Time,Force,Position
4.714108,4.973097653057549,0.1526215548820842
4.716488,4.988460936864957,0.1523800687267667
4.728448,5.016110676830977,0.1523122020067813
4.730827999999999,5.023465557652718,0.152274593308986
4.733231999999999,5.028586020302564,0.1522495133288046
4.735619999999999,5.036407431833128,0.1521198954823097
4.737995999999999,5.045439548177191,0.1519507248292927
4.740399999999999,5.052190024521117,0.1518539756462761
4.742787999999999,5.060243753477159,0.1517637110884403
4.745163999999999,5.07458332392617,0.151503442087826
4.74756,5.089342203255763,0.151210752369526
4.749943999999999,5.101866664413462,0.150938096573221
4.752324,5.117883470384797,0.1505551286900623
4.754719999999999,5.135762607475689,0.1501432858075455
4.757104,5.158437341992332,0.1496387288390234
4.7594840000000005,5.178970206135698,0.149201079632365
4.761892,5.203367502145039,0.148686274326667
4.764275999999999,5.2223175744225685,0.1482666305522837
4.766655999999999,5.24797279707365,0.1476606201713959
4.769052,5.273255932672395,0.1470426025121299
4.77144,5.300169081965217,0.1463660702214977
4.7738320000000005,5.333600390176488,0.1455747935396384
4.776235999999999,5.366752159134039,0.1448053365160883
4.77862,5.402557655144064,0.1440076759241419
4.781000000000001,5.443857596714143,0.143074478210576
4.783403999999999,5.482364041604887,0.1421982176208635
4.785791999999999,5.518356529070016,0.1413562852424806
4.788171999999999,5.554069477281425,0.1405323467166525
4.790571999999999,5.585778224000002,0.1397862505824814
4.792959999999999,5.616788122584279,0.1390959465203465
4.79534,5.64858941710147,0.1384038322248375
4.797736,5.674244639752551,0.1378423312687661
4.80012,5.699108466470715,0.1372923957889649
4.8025,5.722109962069321,0.1367828390133934
4.840736,5.748226027855616,0.13655150186725
4.843124,5.749948589348314,0.1365331456236526
4.845504,5.7570258267742025,0.1364001871841134
4.850296,5.759866545281781,0.1363090539857499
4.852675999999999,5.758703062296526,0.1362912961540031
4.855072,5.761823320057825,0.1361811764699057
4.85746,5.76694567856554,0.1360355407450782
4.85984,5.772207806700116,0.1358807271135269
4.862235999999999,5.775607603715135,0.1357534795712962
4.86462,5.783663228529045,0.1355557866078594
4.867016,5.794931658902871,0.1352866002532337
4.8694120000000005,5.810483830023252,0.1349223669081005
4.871796,5.823474821889775,0.1346360096109807
4.874176,5.833672317076963,0.1343909502455112
4.876572,5.841076315584814,0.1341874308142915
4.8789560000000005,5.851273810772002,0.133941528656136
4.881352,5.8598885140933525,0.1337046077581154
4.919584,5.780849052031636,0.1336418805585581
4.921972,5.7761951200906125,0.1335690323156164
4.924351999999999,5.773543288896008,0.1334602153474846
4.9267520000000005,5.770239831395344,0.133346803010229
4.929136,5.767448230573879,0.1332467203105824
4.931516,5.768381291991526,0.1330936321881414
4.9339200000000005,5.775739964529005,0.1328069211875102
4.936308,5.782447010760426,0.1325168351750585
4.938687999999999,5.793298028111541,0.1321479019829163
4.941091999999999,5.804568354343235,0.1317524094792061
4.943479999999999,5.814907515015152,0.1313713746366545
4.94586,5.82496713643335,0.1310102252030374
4.948264,5.82687858523902,0.1307968300230313
4.950652,5.834796336283939,0.1304796562420357
4.953032,5.853004130314663,0.1299669006811915
4.955428,5.87572798251742,0.1294014056009444
4.957815999999999,5.902176496959287,0.1287902931237675
4.960196,5.922478939535046,0.1282922028993622
4.9626,5.94478348285722,0.1277663629958988
4.964988,5.966296630246477,0.1272434831329058
4.967368,5.98967210875529,0.1266973488689423
4.969764,6.003968249091798,0.1263072959050196
4.972152,6.0194750942418045,0.1258895811365303
4.974532,6.035633565697869,0.1254792389424271
4.976927999999999,6.056075777900487,0.1249883118570254
4.979315999999999,6.071582623050493,0.1245770077188518
4.981696,6.082154101147888,0.1242448559962684
4.9841,6.090443939245145,0.1239616665669388
4.986483999999999,6.095520971782488,0.1237409584690184
4.988868,6.102460335439385,0.1234981405723644
4.991263999999999,6.1114017998427,0.1232250692523855
4.993651999999999,6.119551868313097,0.1229558913970407
4.996032,6.131845907903188,0.1226117211279819
4.998436,6.137202479694249,0.1223749301984477
5.000824,6.139346245925395,0.1222002545862131
5.003204,6.139348141783265,0.1220664994953546
5.005599999999999,6.13506629689458,0.1220117659722878
5.007984,6.136930523872006,0.1218560332668579
5.010368,6.131997052677264,0.1217956526465302
5.012763999999999,6.130928013348496,0.1216822354117523
5.0151520000000005,6.12664616845981,0.1216271365338827
5.017531999999999,6.127299690623737,0.1214985491266971
5.019928,6.126602738347306,0.1214066639561149
5.022316,6.126836951630654,0.1213040625949077
5.024711999999999,6.123066963421166,0.1212624052567104
5.027108,6.123161407077651,0.1211685276515737
5.029496,6.124978412226834,0.121060627564428
5.0318760000000005,6.130520079615129,0.1209086030530331
5.034272,6.141928279615815,0.1206763722225332
5.03666,6.150263443683446,0.1204939750456923
5.03904,6.1564567373778,0.1203504992232313
5.041444,6.162650031072155,0.1202072503030676
5.043832,6.172847526259342,0.1200075053883434
5.046212000000001,6.190913654805337,0.1196996030547954
5.048612,6.210842114470889,0.1193729540348466
5.051,6.228908243016883,0.1190671646835377
5.053379999999999,6.248324846003236,0.1187262459403547
5.055783999999999,6.265599578616314,0.1184264352002162
5.058171999999999,6.28874084384178,0.1180478598816921
5.060552,6.3077381379475534,0.1177364518481926
5.062956,6.33073963354616,0.1173681178754185
5.065339999999999,6.352670193958129,0.1170175062295846
5.067724,6.375671689556736,0.1166499153751341
5.070128,6.396671084408927,0.1163127373099814
5.072512,6.417530709634256,0.1159822175871702
5.074895999999999,6.434525902993611,0.1157006281203219
5.077292,6.45166086597983,0.1154113425535163
5.079675999999999,6.463069065980515,0.1151895770696827
5.082056,6.465677467062616,0.115083721438361
5.084455999999999,6.470287968891133,0.1149497031236484
5.0868400000000005,6.4731759092269545,0.114827568453658
5.089224,6.478065950309193,0.1146779801583599
5.091619999999999,6.480022725085236,0.1145677591546323
5.094004,6.478254837622166,0.1144972167415231
5.096387999999999,6.475416014972456,0.1144442412018223
5.098784,6.478723264188859,0.1143039829475293
5.101172,6.482821909338179,0.1141624925085428
5.1035520000000005,6.486129158554579,0.1140231417295631
5.105952,6.486363371837926,0.1139271602024913
5.108336,6.489810390681187,0.113780887732659
5.110719999999999,6.491534848031754,0.1136459845200509
5.113116,6.498334442061792,0.1134442631738221
5.115499999999999,6.50527380571869,0.1132361505917939
5.11788,6.513563643815947,0.1129974976282982
5.1202760000000005,6.526788848965817,0.1127017638542677
5.12266,6.544018255608519,0.1123565810874707
5.125055999999999,6.564180928557417,0.1119809469858315
5.127459999999999,6.595425040425038,0.1114705976559169
5.129847999999999,6.630813123412353,0.1108993335047772
5.132228,6.664338875280111,0.1103464053642259
5.1346240000000005,6.70266022457362,0.109745706407988
5.137012,6.740190177934212,0.1091527978935984
5.139388,6.774507325734889,0.1086066154238431
5.141795999999999,6.807753538348925,0.1080765103010415
5.14418,6.838485793537348,0.1075568723895554
5.146559999999999,6.860138710553466,0.1071515564564024
5.148963999999999,6.878858361263388,0.1067781224157906
5.1513480000000005,6.89743824234645,0.1064128338551644
5.153732,6.918159993802788,0.1060169026111073
5.156124,6.937950579699349,0.1056327536098481
5.158512,6.956670230409271,0.1052641354569543
5.1608920000000005,6.969523348506803,0.1049609124654751
5.163288,6.981165761790836,0.1046810599184119
5.165676,6.9894555998880925,0.104453879957073
5.168072,6.99215844462668,0.1042755179025057
5.170468,6.990996857499293,0.104135999285095
5.172856,6.988252478506071,0.1039985342495402
5.1752400000000005,6.975357826153904,0.1039798444416093
5.177643999999999,6.964325504921295,0.1039453974017663
5.184804,6.922288972678016,0.1039353508434931
5.187192,6.910185716258766,0.1039142625698764
5.189568,6.897942690212658,0.1039002471732711
5.191976,6.889424326405661,0.1038562386701995
5.19436,6.887052034464776,0.1037398043118478
5.19674,6.885471138456809,0.1036225383499122
5.199135999999999,6.881748372075565,0.1035341003048199
5.20152,6.87867723200038,0.1034524560088946
5.203899999999999,6.872533055992139,0.1034070034107332
5.206303999999999,6.870113542223011,0.1033319940763199
5.208691999999999,6.870487525133218,0.1032348143455778
5.211072,6.868999176923868,0.1031521626764595
5.213467999999999,6.868721533528016,0.1030476688769676
5.2158560000000005,6.870957847557779,0.1029348085839231
5.218235999999999,6.877058593453517,0.1027853341211083
5.22064,6.878735828975839,0.1027006302418887
5.2230240000000006,6.884696805244715,0.1025576220851434
5.225403999999999,6.890797551140452,0.1024090712827063
5.2278,6.896478988155608,0.1022818236621549
5.230188,6.9056527699844,0.1020977137504509
5.232583999999999,6.915385630320634,0.1018850571797927
5.234988,6.920183123604255,0.1017235120334687
5.237372000000001,6.928193422447792,0.1015199923456873
5.239751999999999,6.93527255573155,0.1013250979066635
5.242156,6.941420523455531,0.101138805272218
5.244543999999999,6.951060835993147,0.100898013713225
5.246924,6.966335363717676,0.1005761461375836
5.249319999999999,6.982308739576506,0.1002236146017368
5.251707999999999,7.000563755435474,0.0998365984712885
5.254087999999999,7.015513417935908,0.099458467247218
5.256492,7.028600749316787,0.0990940216393218
5.258875999999999,7.044109490324663,0.0986887854854438
5.261256,7.06483313763887,0.0982273915433184
5.263652,7.082903057900604,0.0977783265077016
5.26604,7.098039711856141,0.0973569450200451
5.268419999999999,7.1183912721180125,0.0968760172908142
5.270823999999999,7.137811666820105,0.096404026880777
5.273211999999999,7.151225759282946,0.0959898194842744
5.275592,7.165990326186146,0.0955504537486391
5.277991999999999,7.180475353835628,0.0951271678496121
5.280379999999999,7.194401302977665,0.0947296734487603
5.28276,7.210329352866124,0.0943122922500944
5.285155999999999,7.223184366821524,0.0939284932569643
5.28754,7.233106114470729,0.0935699097027874
5.28992,7.240885991746658,0.0932375878401978
5.292323999999999,7.249597034582364,0.0929028515136971
5.2947120000000005,7.254815732604435,0.0926209537023814
5.297091999999999,7.257473251372648,0.0923844935601171
5.299488,7.262784497193336,0.0921387228057974
5.301872,7.267396894879723,0.0919249203084557
5.3042560000000005,7.275082328499166,0.0916818877959139
5.306652,7.285281719544223,0.091436820919344
5.30904,7.28812433390967,0.0912695748272822
5.311416,7.295110919394811,0.0910616454742659
5.313812,7.304379144880089,0.09082427255548
5.3162,7.309782938499395,0.09061534319641
5.318595999999999,7.315838358424758,0.0904144368530322
5.320992,7.326829145402733,0.090173396404307
5.32338,7.337540393126986,0.0899463649606154
5.325759999999999,7.348251640851241,0.0897205955225173
5.328163999999999,7.36352616857577,0.089437737012122
5.330548,7.380802797046716,0.0891402639931811
5.332932,7.398079425517662,0.0888422114430548
5.3353280000000005,7.419220485854582,0.0885181847437815
5.337716,7.441152942124419,0.0881950339359429
5.3401,7.455868391341507,0.0879388971069392
5.342496000000001,7.470444070931735,0.0876892017589513
5.34488,7.485299289775683,0.0874273180620062
5.34726,7.495219141567019,0.0872037102572691
5.349656,7.506489467798714,0.0869561133425926
5.352043999999999,7.516549089216912,0.0867276000016173
5.354428,7.523535674702052,0.086527383509028
5.356824,7.534526461680026,0.0862945742523125
5.359211999999999,7.542164673471226,0.0861019694603305
5.361608,7.551106137874542,0.0859259470051612
5.364004,7.56321318600953,0.0857554278742437
5.366391999999999,7.571176263024824,0.0856218931836541
5.368772,7.579930735973035,0.0854906663194254
5.371172,7.589756144107885,0.085349593740388
5.373555999999999,7.599441782615875,0.0852153773377956
5.37594,7.607637177056645,0.0851114830148234
5.378335999999999,7.614482097057056,0.085030794806774
5.380723999999999,7.624260283363663,0.0849311775598764
5.383104,7.632967534483631,0.0848426888731981
5.3855,7.6428854904171,0.0847383053245981
5.387888,7.660672079709375,0.0845814548903831
5.390272,7.679669373815147,0.0844090521776262
5.392671999999999,7.699458063853839,0.084239105585307
5.395059999999999,7.723250955385364,0.0840405962738039
5.39744,7.745972911730251,0.0838525429249376
5.399844,7.767763702515359,0.083669490867398
5.402227999999999,7.789834032554188,0.0834750530570749
5.404608,7.811112966660098,0.0832798850844245
5.407007999999999,7.833602605579508,0.0830688140339015
5.409392,7.852507351886663,0.0828694606854666
5.411771999999999,7.872390485581842,0.0826312071671964
5.414175999999999,7.897768064837071,0.0823374892410421
5.416563999999999,7.922354248159385,0.0820441709768441
5.418944,7.943075999615723,0.0817734344368479
5.421339999999999,7.961144024019586,0.0815090919271245
5.423724,7.974136911743978,0.0812816533955672
5.4261040000000005,7.986478173162313,0.0810472310676435
5.428504,7.99681733383423,0.080827540382785
5.430892,8.004362997826812,0.0806195817709237
5.433287999999999,8.009906561072977,0.0804254896252964
5.435684,8.010934066147112,0.0802460362954184
5.438068,8.00795736972841,0.0800931011297482
5.440448,8.003258111817015,0.0799420952929698
5.442843999999999,7.996836292412921,0.0797931891473004
5.445228,7.9954896096883,0.0796090492284219
5.447623999999999,7.993351531030762,0.0794227831193644
5.450028,7.992284387559862,0.0792274997761466
5.452411999999999,7.9901463089023235,0.0790413729698863
5.454791999999999,7.991872662110757,0.0788362636705537
5.457196,7.993878554572912,0.0786195906737152
5.459579999999999,7.993463037408071,0.0784331625139558
5.46196,7.991836815429729,0.0782621243285687
5.464364,7.989419197518471,0.0780891977357673
5.466752,7.9900746155402675,0.0778949251329624
5.469132,7.9923128254279,0.0777046683648859
5.471536,7.9961810490096115,0.077481912057597
5.473924,7.997116006285129,0.0772743553718224
5.476303999999999,7.99632840206795,0.0770676079873191
5.4787,8.000476164903382,0.0768331933860775
5.481083999999999,8.005694862925452,0.0765897382408377
5.483468,8.01263612244022,0.0763456451201321
5.485863999999999,8.02479228826132,0.0760627069351269
5.4882480000000005,8.038810785201978,0.0757737562433521
5.490627999999999,8.053760447702413,0.0754828574385028
5.493024,8.063634973523376,0.0752263770833709
5.495412,8.074300895277256,0.0749722927097244
5.4977920000000005,8.083895881844498,0.0747277643500278
5.500195999999999,8.095632738785017,0.0744664635251619
5.50258,8.102573998299786,0.0742274323465408
5.5049600000000005,8.110306653747472,0.0739910325070815
5.507363999999999,8.120460718822153,0.0737280490950582
5.509748,8.128612683150418,0.0734767087035709
5.512131999999999,8.135553942665187,0.0732392556154327
5.514528,8.142355432553092,0.0730082599222186
5.516912,8.1498557705753,0.0727505697622765
5.519295999999999,8.162151706023261,0.0724745925515765
5.521699999999999,8.178312073337194,0.0721818028722795
5.524084,8.202341074009933,0.0718538799354715
5.526463999999999,8.222505642816701,0.0715439155311024
5.52886,8.241878815690551,0.0712317336201598
5.531248,8.259110118191122,0.0709358399224158
5.533628,8.274199550318418,0.0706574608705809
5.536035999999999,8.2855643202066,0.0703891275609354
5.538423999999999,8.292785118975088,0.0701466204583359
5.540804,8.301216622557074,0.0698909883971469
5.543208,8.31085883095256,0.0696229367084237
5.545591999999999,8.320640808974904,0.0693501104584882
5.547972,8.328280916623974,0.0690931790906494
5.550367999999999,8.339645686512155,0.0688276733639453
5.5527560000000005,8.352733017893032,0.0685637161380244
5.555135999999999,8.361257069273638,0.0683411671497653
5.557532,8.3699208902811,0.0681130803696147
5.55992,8.379795416102063,0.0678722499672713
5.5623000000000005,8.388738776363247,0.0676344040740526
5.564696,8.400056324423186,0.0674071018578261
5.567084,8.406158966176793,0.0672122831030052
5.56948,8.416265809423232,0.0670004571433568
5.571883999999999,8.416501918564448,0.0668310233943395
5.574268,8.4190196677058,0.0666423577584046
5.5766480000000005,8.42433091352649,0.0664482057149328
5.579048,8.432994734533954,0.0662282458305638
5.581432,8.443520886660973,0.0660052844120285
5.583812,8.458842636213745,0.0657679083040687
5.586207999999999,8.479379292072851,0.0655009530540189
5.588595999999999,8.498845012745315,0.0652414433305769
5.590976,8.518730042298364,0.0649688485315851
5.59338,8.537404367037908,0.0647084567792462
5.595768,8.560641971777732,0.0644127961441266
5.598148,8.579363518345522,0.0641219671626496
5.600543999999999,8.595850646741422,0.063817457586935
5.602931999999999,8.615830119950953,0.0634830621188967
5.605312,8.641815895399738,0.0631268741263114
5.607716,8.669803771594939,0.0627648977359647
5.610104,8.695789547043722,0.0624107685940815
5.612484,8.717119494693614,0.0620655401904754
5.614879999999999,8.745806219023116,0.061682676605134
5.617267999999999,8.766764079620671,0.061323452416813
5.619648,8.791586372084199,0.0609523907891928
5.622043999999999,8.811985154174312,0.0606116976760029
5.6244320000000005,8.828519504398452,0.0602823178421147
5.626811999999999,8.841980818689539,0.0599680130754773
5.629208,8.851997009995229,0.0596499794719166
5.631596,8.862292740554643,0.0593245192180209
5.633991999999999,8.870446600740777,0.0590125112349814
5.636384,8.878740230553772,0.0586954690677926
5.638772,8.88326197629941,0.0584158274334132
5.641152,8.890205131672047,0.0581150697476681
5.643547999999999,8.891514071857772,0.057854315053058
5.645935999999999,8.893754177603274,0.0575919423716428
5.648316,8.898648010401251,0.0573320260449581
5.65072,8.903541843199227,0.0570732055880884
5.653108,8.900427273011537,0.0568418762962368
5.655488,8.896241767637209,0.0566170165438157
5.657883999999999,8.900204434875407,0.0563628444391156
5.660271999999999,8.906029433233162,0.0561066798506116
5.662652,8.905708359724805,0.0558755896617831
5.665051999999999,8.908180782895784,0.055641563266112
5.667436,8.91279507644004,0.0553975161335831
5.669832,8.919271701103852,0.0551509182361574
5.6722280000000005,8.92882136170072,0.0548929589330895
5.674616,8.936368921551171,0.054640297109946
5.677,8.94428856845396,0.0544051875910875
5.6793960000000006,8.947784704983336,0.0541966095790116
5.681784,8.95114107188585,0.0539928606999433
5.684163999999999,8.95715116584084,0.0537923119582127
5.68656,8.967445000542382,0.0535707065329871
5.688948,8.975317425616929,0.0533694515150916
5.691328,8.987333821811168,0.0531521055487379
5.693728,8.999350218005407,0.0529348700025453
5.696116,9.00801403901287,0.05273843684345
5.698496,9.01239411927378,0.0525625495581219
5.700892,9.017705365094466,0.0523853141507818
5.70328,9.016870539049044,0.0522292228608206
5.70566,9.006956374831315,0.0521012702934332
5.708055999999999,8.995831505800087,0.0519829015868139
5.710443999999999,8.984566867142,0.051868840831226
5.71284,8.972371062924136,0.0517549297149832
5.715235999999999,8.957753849079271,0.051660463684884
5.717623999999999,8.949282707100517,0.0515453298302658
5.720003999999999,8.940252486614325,0.0514487489411713
5.722408,8.936157633180745,0.0513410075121805
5.724796,8.933273484560662,0.0512235962960664
5.727176,8.934393537433413,0.0510956702896592
5.72958,8.933791028813468,0.0509635765863645
5.731964,8.934399225007022,0.050822831388382
5.734347999999999,8.930072054147963,0.0506925144364281
