Time,Force,Position
4.684616,4.614601938788844,0.1609546542560671
4.687016,4.70495515719476,0.1601087622097733
4.689404,4.786977003248786,0.1592398297784333
4.691784,4.858433058779024,0.158392839277342
4.741975999999999,4.803279036047449,0.1577683357954706
4.744372,4.80002090451716,0.1577576607320021
4.751528,4.798113247427228,0.1576905048305993
4.753916,4.802956066681222,0.1575166900983159
4.763451999999999,4.823160273884756,0.1572613051580158
4.765848,4.832796794706634,0.1571447115188922
4.768231999999999,4.846157977767624,0.156943444690387
4.770612,4.858587995268837,0.1567621091119401
4.773004,4.868876142396772,0.1566439178665781
4.775396000000001,4.887824318816433,0.1563244413949007
4.777772000000001,4.912499258221624,0.1558742267274528
4.780168,4.944391204679564,0.1552308874873663
4.782552000000001,4.974560589644809,0.1546221030330671
4.784932,5.001796708303857,0.1540897797324566
4.787336,5.030383301403264,0.1535041236310973
4.789724,5.058830124875812,0.1529374741230543
4.792104,5.089279049094776,0.1523369071394149
4.794516,5.119355886261402,0.1517156876099477
4.796900000000001,5.148781097121971,0.1510910267116827
4.79928,5.180907256863258,0.1503669304043894
4.8016760000000005,5.201999199514065,0.1498644408893532
4.804064,5.214710652126866,0.1495297450797516
4.806444000000001,5.231845615113082,0.1490714794781581
4.80884,5.254055714778772,0.1484833919361503
4.811223999999999,5.274683022578625,0.1479119581634865
4.813604,5.288000775527111,0.1474785782441924
4.816008,5.305742038849012,0.1469271531750985
4.8184000000000005,5.325113315864992,0.1463075081966744
4.820779999999999,5.347697398440888,0.1456041741656404
4.823195999999999,5.361062373217617,0.1451276624140256
4.82558,5.374567117621206,0.14465043055946
4.827959999999999,5.384347199785682,0.1442478543538329
4.830356,5.3917530941514045,0.1438634207862046
4.832739999999999,5.399997606278287,0.1434192558217164
4.83512,5.409592592845529,0.1429324590802736
4.837516000000001,5.414531751613879,0.142526314168239
4.8399,5.413744147396699,0.1422301587009022
4.842280000000001,5.416681205418634,0.1418725739575936
4.844676,5.422831069000484,0.1414399667450896
4.847060000000001,5.4246971918357785,0.1411091271413907
4.849436000000001,5.429356811350409,0.1407275635969515
4.851851999999999,5.44002273310429,0.1402207012107315
4.854240000000001,5.45068865485817,0.1397221296674997
4.85662,5.464707151798826,0.139146122853208
4.859016,5.480867519112759,0.1385229138734896
4.861404,5.499681613479167,0.1378582675610223
4.918799999999999,5.371071330328807,0.1375585432272457
4.92118,5.37465622294106,0.137510517194196
4.923576000000001,5.382477634471624,0.1374178423873241
4.92596,5.396956974547497,0.1372175243581261
4.92834,5.416092142422261,0.1369502554517213
4.930732000000001,5.449381785148804,0.1364152573413888
4.933120000000001,5.483602593435124,0.1358762248137014
4.935499999999999,5.51954596321414,0.1353181185148859
4.937896,5.564289131911743,0.1346059580278396
4.940284,5.614898833221736,0.1337839669041472
4.942664000000001,5.6593624626656185,0.1330868257236253
4.94506,5.703034696176582,0.1324061429120319
4.947448,5.749128339314544,0.1316656006892315
4.949828,5.793219881706089,0.1309668554547741
4.9522200000000005,5.837823280776831,0.1302789351867938
4.954604,5.884940637273188,0.1295751266745036
4.956984,5.937133130449017,0.1287894620548494
4.95938,5.988813766945649,0.128003107857417
4.9617640000000005,6.039563237882502,0.1272497592398702
4.964143999999999,6.093013657700073,0.1264362530388227
4.966556000000001,6.145393142331004,0.125642565910382
4.9689440000000005,6.189624454349409,0.1249965972219015
4.971323999999999,6.238419046368088,0.1242637606327758
4.973736000000001,6.278693378721903,0.1236539192180685
4.976124,6.313660256970768,0.1231056403649925
4.978503999999999,6.341177810741406,0.1226652151679546
4.980896,6.370045838952403,0.1221997385669268
4.983283999999999,6.400404111230619,0.1216957376821244
4.985664,6.428900052389279,0.1212221789664028
4.988076,6.456744367241882,0.1207475876434041
4.990463999999999,6.490362666908257,0.1201600295639997
4.992844,6.523189570641714,0.1195806275168937
4.995256,6.556296013628891,0.1189941132305308
4.997643999999999,6.587540125496512,0.1184251675665943
5.000019999999999,6.62148518624485,0.1177931517342304
5.002416,6.651985124007796,0.1171884872996147
5.0048,6.67782923397185,0.1166411781241548
5.00718,6.702881948002986,0.1161013784825575
5.009596,6.723278834235231,0.1156119557308622
5.011979999999999,6.738321044534281,0.1152114392377912
5.01436,6.754713729273692,0.1147790609573902
5.016764,6.776600859573156,0.11425449703872
5.019152,6.791690291700451,0.1138145565819649
5.098000000000001,6.511734498049759,0.1135614656519563
5.10038,6.522721493311995,0.1135032590520504
5.102776,6.535431050066928,0.1134345009800409
5.10516,6.543345009396109,0.113418518410667
5.10754,6.552888982419369,0.1133553247543565
5.109935999999999,6.558708293203516,0.113329370208602
5.11232,6.565738308801162,0.1132789164201314
5.114699999999999,6.572116698092751,0.113221718960973
5.117115999999999,6.577983230705142,0.1131514558830538
5.1195,6.581335805891918,0.1130938743160727
5.121884,6.5835248980934375,0.1130163733646866
5.124276,6.590556809548953,0.1128424737212029
5.126664,6.598287569138769,0.1126308757930309
5.129044,6.607648342422664,0.1123720722208157
5.13144,6.615286554213863,0.1121260601080428
5.133827999999999,6.627208506751616,0.1118146659154582
5.13622,6.640620703356588,0.1114640962178235
5.138616000000001,6.658596179961837,0.1110355801014426
5.141,6.664838591342303,0.1107420488260251
5.1433800000000005,6.667496110110516,0.1104773939200817
5.145784000000001,6.667919210706836,0.110208850815382
5.148172000000001,6.668062772049434,0.10995698223119
5.150551999999999,6.666623541526197,0.1097075177476645
5.152948,6.67147015249593,0.1093691631714671
5.155336,6.6758974545850815,0.1090536028024481
5.157716000000001,6.681395691860873,0.1087220137434907
5.160119999999999,6.692108835442996,0.1083230542322589
5.162504,6.708316424585172,0.1078411084906245
5.164884000000001,6.722801452234653,0.1073695983480589
5.167275999999999,6.738636954324492,0.1068703312211924
5.169663999999999,6.757126183466806,0.1063546188956895
5.172044,6.772542376676066,0.105882169441633
5.174440000000001,6.786096238765769,0.1054253646976758
5.176824,6.800581266415248,0.1049629805974708
5.179204,6.816556538131948,0.1044688696445609
5.1816,6.831740413915729,0.1039795694190777
5.183987999999999,6.847064059326371,0.1034850122146658
5.186368,6.857592107311261,0.1030370066906025
5.188764000000001,6.878410198281956,0.1024647288231325
5.191148,6.898576662946592,0.1018846706821457
5.193531999999999,6.92353872503698,0.1012646404957315
5.195928,6.945847060074892,0.1006621188870881
5.198312,6.9722993662325,0.1000149743917107
5.200696000000001,6.99647003238997,0.0994067706557754
5.203092,7.017986971494965,0.0988105050781226
5.205475999999999,7.0396436802268205,0.0982089853691174
5.207856,7.0511501155997305,0.0977189840040446
5.210272,7.060235141345645,0.0972744756044337
5.212656000000001,7.0679696926512,0.0968557647956987
5.215036,7.073702143210339,0.0964582850484055
5.2174320000000005,7.079434593769476,0.0960625081772076
5.21982,7.083956339515117,0.0956868434314892
5.222200000000001,7.090992042686371,0.0953052087716917
5.224596,7.09374400511107,0.0949760997043915
5.226979999999999,7.089651047535358,0.0947469679872314
5.229364,7.084067845892426,0.094551841445041
5.258056,6.990124047300647,0.0945156654248275
5.270020000000001,7.016799191594387,0.0945114666177526
5.272411999999999,7.026063625363926,0.0944925069768183
5.274812000000001,7.043755770999714,0.0943795919203289
5.277196,7.058654419956167,0.0942837712483671
5.2795760000000005,7.075834708912757,0.0941567530118413
5.281976,7.098369673802541,0.0939699392850496
5.284364,7.123046509065601,0.0937582557966408
5.2867440000000006,7.148142653209242,0.0935275501442779
5.28914,7.174868811046961,0.093257889492958
5.291524000000001,7.202014277765261,0.0929699869217646
5.293904,7.235305816349673,0.0926223752388699
5.296308,7.266735023814528,0.0922891076878176
5.298696,7.292018159413272,0.0920189058894422
5.301076,7.319443165385294,0.091726278516918
5.30348,7.345937005797537,0.0914420773668549
5.305868,7.374852255836777,0.0911212372028356
5.308248000000001,7.398832138823406,0.0908433836515825
5.310651999999999,7.416713171772167,0.0905841237375628
5.313039999999999,7.435013513601509,0.0903059733019008
5.31542,7.4555954954309875,0.0899996788661456
5.317824,7.483534253940076,0.0896223441539269
5.320207999999999,7.511473012449163,0.0892488870652139
5.322588,7.532334533532363,0.0889381400339196
5.324992,7.56027329204145,0.0885683999492423
5.32738,7.58728088499076,0.0882068024319029
5.32976,7.60777031902162,0.0878843207389374
5.332156,7.628399522679342,0.0875574656029049
5.334543999999999,7.648377100031006,0.0872246873496261
5.336924,7.668075138128949,0.0869049181592727
5.339328,7.688192485107473,0.0865695609056698
5.341716,7.702862608354188,0.086258067424456
5.344096,7.718603666787541,0.0859373379837369
5.346500000000001,7.735695199661253,0.0855937618606316
5.3488880000000005,7.7512039406691295,0.0852494563919586
5.351267999999999,7.767923386490504,0.0848914650760376
5.353664,7.783851436378959,0.0845334177433381
5.356052,7.800990191080914,0.0841594268957592
5.3584320000000005,7.823995478395258,0.0837477127820681
5.360828,7.849142636082882,0.0833184026021333
5.363212000000001,7.875220959330283,0.0828897178533019
5.365596,7.891428548472458,0.0825282061135853
5.367988,7.904051245002382,0.0821780422559378
5.370376,7.9196072078385,0.081808550823037
5.37276,7.929156868435368,0.0814824544140822
5.3751560000000005,7.938986068285956,0.0811464692146578
5.37754,7.947464793696188,0.0808308170597863
5.379924000000001,7.95501235354664,0.0805199631418627
5.38232,7.962559913397092,0.0802097676126684
5.384708,7.972249343620818,0.0798817192532171
5.387104000000001,7.979517364217549,0.0795848332717687
5.3895,7.988507946306976,0.0792859042709143
5.391883999999999,7.995356658023128,0.079006314390795
5.394268,8.00141397380636,0.078724851169108
5.396672000000001,8.005049879962595,0.0784732535966769
5.399056,8.003470879812497,0.0782627648948185
5.401436,8.001752110035538,0.0780581034671096
5.403840000000001,7.99975380100486,0.0778649179482449
5.4062280000000005,7.996265247906963,0.0776986426568957
5.408607999999999,7.989563889249149,0.0775599790849862
5.411012,7.976995997978946,0.0774532790017403
5.4133960000000005,7.970154869694273,0.0773198325456606
5.41578,7.964896533275436,0.0771904413413282
5.418176000000001,7.960709132043236,0.0770520800225431
5.42056,7.960386162677012,0.0768944844800572
5.4229400000000005,7.956570848497151,0.0767750964276098
5.425344000000001,7.957179044690704,0.0766141726841734
5.427732000000001,7.956856075324478,0.0764565159754052
5.430111999999999,7.957184732264313,0.0763070663448106
5.432516,7.952578022151533,0.0761851163289723
5.434904,7.9498336431583105,0.0760566344792994
5.437288000000001,7.943085062672254,0.07595194114835
5.439679999999999,7.93540531662642,0.0758501829464476
5.442068000000001,7.929308362446421,0.0757530511262684
5.444448,7.927215609759257,0.0756316539784605
5.4468440000000005,7.931268928938202,0.0754685233817644
5.449232,7.936253413676927,0.0753026531429179
5.451612000000001,7.943519538415789,0.0751145151393914
5.4540120000000005,7.952275907221869,0.0749021375099288
5.456396,7.964245081587865,0.0746647823512641
5.458780000000001,7.980218457446696,0.0744040671159237
5.461172,7.995400437372608,0.0741426635549044
5.4635560000000005,8.013795222858436,0.0738578317184109
5.465935999999999,8.030467446851567,0.0735741654766103
5.468351999999999,8.044485943792225,0.0732947651075402
5.470739999999999,8.061996785546517,0.0729795916384954
5.47312,8.07694644804695,0.0726989092661391
5.475516000000001,8.097111016853718,0.0723852937892227
5.4779040000000006,8.113550923421371,0.0720820729438643
5.480283999999999,8.135065966668499,0.0717495497639724
5.482688,8.15392728286315,0.0714197968270406
5.485075999999999,8.180657232416609,0.0710530357237251
5.487451999999999,8.216466520142372,0.0706401665869567
5.489856,8.250832785629159,0.070217868562507
5.492244,8.282545324063474,0.0697998864186093
5.494624,8.308251560258537,0.069414276087961
5.497028,8.332095465334042,0.069034518785116
5.499412,8.353006104103354,0.0686693192189884
5.501792,8.368841606193195,0.0683324259442186
5.504196,8.378810575670645,0.0680203003675214
5.506584,8.387848379588315,0.0677115490115045
5.508964000000001,8.395163622013289,0.0674027943547221
5.51136,8.400616533318706,0.0671006387613236
5.513748,8.407000610183902,0.0667964945883547
5.516128,8.414315852608876,0.0664904259400703
5.518523999999999,8.419628994287434,0.0661943901214831
5.520911999999999,8.421636782607457,0.0658898058997375
5.523292,8.416287794247873,0.0656313885517565
5.525696,8.419086978500815,0.0653318779957012
5.528084,8.421746393126897,0.0650393435996351
5.530464,8.428549778872673,0.0647243434968845
5.532868000000001,8.431908041633058,0.0644085690764505
5.535252,8.421251599168524,0.0641536576410484
5.537632,8.413248883756465,0.0638987505698002
5.540032,8.404966629090685,0.0636534557396618
5.54242,8.400688575917737,0.0633906604388348
5.5448,8.397621227558288,0.0631158593770649
5.547196,8.39427433994512,0.0628507480352234
5.549583999999999,8.395862819384563,0.062567113709216
5.551964,8.403829688115596,0.0622770696158483
5.554360000000001,8.413379348712464,0.0619950309786988
5.556748000000001,8.422369930801894,0.0617330555103739
5.559127999999999,8.430010038450963,0.0614885995018186
5.561527999999999,8.43737060684631,0.0612545969254755
5.563912,8.441518369681742,0.0610397636457967
5.566292000000001,8.447388694009872,0.060827327531761
5.568695999999999,8.456564371696532,0.0606234398208839
5.57108,8.466671214942972,0.0604168408556981
5.573460000000001,8.469421281509801,0.0602521668889131
5.575863999999999,8.467235981024022,0.0601047622057861
5.578251999999999,8.464491602030797,0.0599782337473784
5.580632,8.461048374903275,0.0598769031951912
5.58304,8.470409148187171,0.0597329090915683
5.585424,8.479350612590485,0.0596048688501609
5.587808000000001,8.493367213673272,0.0594563357942274
5.590204,8.50631287956942,0.0593147292601305
5.592587999999999,8.521772502891183,0.0591805093062353
5.594972,8.538954687705644,0.0590489496545528
5.597376000000001,8.553203606213906,0.0589265847075484
5.59976,8.565729963229476,0.058802501078508
5.60214,8.57481119725965,0.0586734554692745
5.604544000000001,8.58803640240952,0.0585259036168164
5.6069320000000005,8.601261607559389,0.0583785481176114
5.609311999999999,8.615837287149617,0.0582162060551387
5.611716,8.637350434538874,0.0580325218279953
5.6141000000000005,8.656721711554853,0.0578609066835891
5.616479999999999,8.680516498944247,0.0576626716956861
5.618880000000001,8.710317588572893,0.0574450731987395
5.621264,8.743471253388313,0.0572058509403676
5.6236440000000005,8.77941841488307,0.0569632994091295
5.626048000000001,8.81257207969849,0.0567243777738502
5.628436000000001,8.84721598858113,0.0564664660804494
5.630815999999999,8.875993364851379,0.0562266170313456
5.633215999999999,8.902536322949734,0.0559713903999483
5.635604000000001,8.925214849182115,0.0557265872282326
5.637983999999999,8.948684771347416,0.055486448208534
5.640388,8.97057190164688,0.0552405120837441
5.642776,8.993018110453784,0.0549770690453997
5.645156,9.018257815940023,0.0547123898708487
5.647556,9.041774959933566,0.0544453088746547
5.649944,9.067154435046666,0.05417728180595
5.652328000000001,9.087598543107152,0.0539227450999502
5.654724,9.10925335598114,0.0536591854526953
5.657107999999999,9.129697464041628,0.0534066407901132
5.659492,9.145345974676363,0.0531630321618038
5.661887999999999,9.163415894938096,0.0529004624924681
5.664275999999999,9.176270908893498,0.05266031611952
5.666656,9.18353892949023,0.0524241390802734
5.669052000000001,9.188525310086822,0.0522028312545394
5.671436,9.194722395496914,0.0519725027964774
5.673816,9.201199020160727,0.0517329053105836
5.676212,9.204462839264623,0.0515081588339867
5.678599999999999,9.206004096875825,0.0512794127563799
5.68098,9.20526371448689,0.0510642574143969
5.683384,9.19930842579162,0.0508679973300991
5.685772,9.191770345230514,0.050663266041906
5.6881520000000005,9.17701525761666,0.0504824899353527
5.690548,9.15918713406975,0.0503112244364995
