Time,Force,Position
4.746919999999999,4.266444717371682,0.1668417777687826
4.749307999999999,4.274777985581443,0.1666889821156862
4.751688,4.288231716441052,0.1665018939040727
4.754092,4.304012413271171,0.1663506806969369
4.75648,4.318954492340128,0.166276728261501
4.75886,4.334408428088284,0.1662155075109583
4.761264000000001,4.351584925329136,0.1661074926202014
4.763652,4.371834458503043,0.1659025743938313
4.766031999999999,4.391013056490313,0.1657389308601312
4.768436,4.412426072649475,0.1655621544819951
4.770823999999999,4.4385874644061465,0.1653289627256324
4.773204,4.480997979559631,0.1646728293371349
4.775600000000001,4.531696436952502,0.163757540280985
4.777984,4.582302346546757,0.1627769647054309
4.780367999999999,4.634678039461951,0.1617011807229768
4.782764,4.689475142004142,0.1605439245488412
4.785148,4.741478747866998,0.1594862590472635
4.787532000000001,4.79506514559569,0.1584262287848206
4.789936000000001,4.852515975190356,0.1573025808719279
4.79232,4.910386113665603,0.1561676905924769
4.794700000000001,4.960574610237146,0.1551766050457343
4.797103999999999,5.00191798191973,0.1543247746802807
4.799492000000001,5.036930186138969,0.1535582213361401
4.801872,5.072641238492509,0.1527538965594691
4.804268,5.109143686778968,0.1519431231141233
4.806656,5.1482998621179,0.1510856963637689
4.80904,5.195092353390162,0.1500061039232896
4.8114360000000005,5.236717160184336,0.1490109032182685
4.813824,5.277737562500694,0.1479680195920377
4.816204000000001,5.3158719203391,0.1469532346984757
4.8186,5.350561155192113,0.1460071293293409
4.820988,5.3788247789252965,0.1452596277314626
4.823368,5.400523021911786,0.1446912993985909
4.825764,5.423943826390974,0.1440982426269658
4.828151999999999,5.446713004564103,0.1435083312877674
4.830532,5.465385433445782,0.142967164332916
4.832936,5.484337401581181,0.1424119271835523
4.835324,5.499564707477467,0.1419247235715912
4.837704,5.509716876694281,0.1415553717060059
4.8401,5.519589506657375,0.1412103334144594
4.842488,5.531464237366885,0.1408214589525349
4.844868,5.541197097703118,0.1404817027345095
4.847272,5.549207396546655,0.1401628096476213
4.84966,5.55270163721816,0.1399163082527114
4.852043999999999,5.557266813076303,0.13964563863058
4.85444,5.562623384867366,0.1393709965507368
4.856828,5.566349942964348,0.139163745670218
4.859208000000001,5.573801163300444,0.1388951036254072
4.861604,5.580041678823041,0.1386625083947353
4.863992,5.5840005543455,0.1384888869166894
4.866372,5.587679890614239,0.1383349125679271
4.868772,5.591359226882979,0.1381821433424318
4.871155999999999,5.603978131697164,0.1378610983171759
4.87354,5.61552610132471,0.1375641397181802
4.875935999999999,5.622278473526505,0.1373487389815217
4.878323999999999,5.626888975355024,0.1371803395386943
4.880704,5.630288772370041,0.1370467956793646
4.883104,5.636482066064396,0.1368692140794769
4.8854880000000005,5.645189317184364,0.1366676464963405
4.887888,5.651894467557916,0.1365057555870069
4.890283999999999,5.662044740916861,0.1363065927879812
4.8926680000000005,5.675919676514919,0.1360490766532241
4.895052,5.690586008045896,0.1357843809232661
4.897456,5.7056244266292095,0.1355413267782081
4.899839999999999,5.722385406705219,0.1352832282668823
4.902224,5.739146386781227,0.1350284654954522
4.904628000000001,5.751903165364404,0.134848860160608
4.907012,5.760515972827886,0.1347530094271364
4.952392,5.874095420826409,0.13474001563202
4.954791999999999,5.881357753849532,0.1346894315607901
4.9571760000000005,5.887688921312877,0.1346522475149147
4.959555999999999,5.897232894336138,0.134548437345019
4.961952,5.91199177366573,0.1343445469494599
4.96434,5.927030192249044,0.1341223776461609
4.9667200000000005,5.943838394153296,0.1338327841031232
4.969116,5.959994969751491,0.1335441021922806
4.971504,5.972147343856852,0.1333271219723105
4.973884,5.975639688670488,0.1332446985070796
4.976279999999999,5.984486709417317,0.1330555574376337
4.978668000000001,5.992961643111809,0.1328473666932512
4.981048,6.008933123112772,0.1324926704179447
4.983444,6.030538818300644,0.1320185195672179
4.985832,6.054146614234937,0.1315097747634791
4.988212000000001,6.078453258303528,0.1309560188696215
4.990627999999999,6.101037340879423,0.1304217532916429
4.993012,6.128976099388511,0.129788578010424
4.995407999999999,6.164131864950347,0.1290265182055598
4.997804,6.199846709019626,0.1282368746311813
5.000192,6.228903624543595,0.127541256817611
5.002572000000001,6.253025173014953,0.1269294298902689
5.004968,6.279288591859587,0.126277849523493
5.007356,6.300616643651609,0.1257048589818861
5.009736,6.313564205405628,0.1252404917603895
5.0121400000000005,6.328141780853725,0.1247253830445718
5.014528,6.34458168742138,0.1241912337477431
5.016908000000001,6.3570173924962,0.1237204941045758
5.0193080000000005,6.37080357201138,0.1232135717451648
5.021696,6.392737924139087,0.122575469809573
5.024076000000001,6.408945513281264,0.1220177669963072
5.026479999999999,6.421288670557466,0.1215144455231104
5.028864,6.425763194474863,0.1211255276249762
5.031243999999999,6.424883042459067,0.1208329863754718
5.03364,6.422931955256632,0.120559123178446
5.036028,6.42484529992017,0.120235438977318
5.038408,6.42610701827765,0.1199062521046058
5.040804,6.420571038462962,0.1196679379864882
5.043192,6.410239461222523,0.1194898172431333
5.045572,6.393761812115971,0.1194058924274622
5.047972,6.382079760435172,0.1192611155645613
5.05036,6.367464442448178,0.119156276644357
5.05274,6.350847023714766,0.1190803147319707
5.055144,6.3383735761010485,0.1189371521963884
5.08858,6.136578988354145,0.1187828758833489
5.090976,6.130667129771381,0.1187769492385593
5.093363999999999,6.133555070107201,0.1186528616733873
5.09576,6.136303240816163,0.1185375150300532
5.098156,6.145197483391235,0.1183277255090782
5.100543999999999,6.1551626611529455,0.1180995562224877
5.102924,6.161123637421823,0.1179292614834501
5.105320000000001,6.159355749958752,0.117856852145644
5.107708000000001,6.157727632122541,0.1177761482598977
5.110087999999999,6.163456290965941,0.117575014317941
5.112484,6.173608460182756,0.1172933018544847
5.114872,6.18417993828015,0.116989565320805
5.117252000000001,6.199174926750958,0.1166067308820054
5.119652,6.215520389662126,0.116191565741879
5.12204,6.236708671827289,0.1156740412906604
5.124420000000001,6.26073767250003,0.11508779681332
5.126816,6.289190183546185,0.1144243971857534
5.129204,6.319644795338756,0.1137392429641424
5.131584,6.349727320078991,0.1130286615530055
5.133979999999999,6.379437757766888,0.1123026976281694
5.136367999999999,6.401139792469118,0.1116849404196936
5.138764,6.421119265678651,0.1110816959569913
5.141159999999999,6.435232206275793,0.1105531229303764
5.143547999999999,6.448693520566878,0.1100203015428548
5.145932,6.461083899671325,0.1095089109120152
5.148327999999999,6.476407545081965,0.1089674525053492
5.150715999999999,6.494012830492745,0.10838498530158
5.153096,6.518136274821972,0.1077377932165272
5.1555,6.544261819897615,0.1070674023575586
5.157888,6.565172458666927,0.1064751659791853
5.160268,6.583661687809242,0.1059348666199763
5.162664,6.598798341764779,0.1054507757781064
5.165051999999999,6.609511485346903,0.1050396796794641
5.167432,6.617291362622831,0.1046616912616056
5.169832,6.621439125458263,0.1043553417820564
5.172216000000001,6.6190215075470045,0.1041514009385176
5.1746,6.614182480008749,0.1039941284959874
5.176996000000001,6.6082725172838535,0.1038526433717757
5.179384000000001,6.607949547917627,0.1036638919201762
5.181768,6.603063298551128,0.1035505805623929
5.184163999999999,6.605394056237377,0.1033449240233167
5.186552000000001,6.609587145043184,0.1031245715691237
5.188931999999999,6.617644665714963,0.1028660752366065
5.191328,6.626214043065941,0.1026226989187629
5.193716,6.634503881163198,0.1023953415201654
5.196096000000001,6.639720683327399,0.1022067685949785
5.198496,6.64409886773044,0.1020617429726109
5.200884,6.645543785827284,0.1019466144147065
5.203268,6.647640330230187,0.1018391513370167
5.2056640000000005,6.6534615368722045,0.1017024841725776
5.208052,6.66035367870086,0.1015519272867372
5.210432000000001,6.671250022022348,0.1013583028073081
5.212832000000001,6.684939862023172,0.1011424635821771
5.215216,6.702214594636248,0.1009053399689334
5.217612000000001,6.722562363182381,0.1006332993556946
5.2200120000000005,6.746914333221347,0.1003167189639525
5.2224,6.77354794326045,0.099966726434253
5.224780000000001,6.799250387739774,0.099626036342657
5.227176,6.820808861099406,0.0993384824006449
5.229564,6.849724111138647,0.0989610483695982
5.231944,6.875147016364251,0.0986427874831902
5.23434,6.900569921589856,0.0983285253693712
5.236727999999999,6.923990726069043,0.098036857902242
5.239108,6.946899673869032,0.0977326776165099
5.241508,6.971670952788578,0.097418433440689
5.243892000000001,6.998444332454542,0.0970865871087978
5.246271999999999,7.02964122249392,0.0966982286711232
5.248676,7.066844414772548,0.0962558648065435
5.251064,7.103116441491397,0.0958233900239812
5.253444,7.139388468210248,0.0953952710096659
5.255844,7.175380955675377,0.0949829684624755
5.258228000000001,7.2083004072074495,0.0946038618703565
5.260624,7.240568232433466,0.0942191587580006
5.263019999999999,7.271113496166786,0.0938425324605625
5.265408000000001,7.303660860646523,0.0934537834337326
5.267788,7.334625433260424,0.0930651814817122
5.270184,7.3595837036350735,0.0927305310028307
5.32274,7.129006052044314,0.0925872195399767
5.325124000000001,7.131614453126415,0.09250541817528
5.32752,7.13836682532821,0.0923833435770881
5.329908,7.14861154234364,0.0922135016338909
5.332288,7.16006696417257,0.0920264566917466
5.334683999999999,7.171429838202881,0.0918058565769153
5.337071999999999,7.181070150740497,0.0915892091227927
5.339468,7.195133973651528,0.0913190504828954
5.341868,7.215902946936111,0.0909656089699145
5.344251999999999,7.240304034661189,0.0905582347550036
5.346636,7.269128632759682,0.0900992580280821
5.349031999999999,7.297953230858174,0.0896400557917168
5.351419999999999,7.329990634516582,0.0891485398351233
5.3538,7.359514080749374,0.0886644870138293
5.356196000000001,7.388525670302971,0.088167425867795
5.3585840000000005,7.418096338364007,0.0876464272432656
5.360963999999999,7.453021682358235,0.0870639366650089
5.36336,7.484781442620793,0.0864780159928544
5.365748,7.506298381725789,0.0859482441758362
5.368131999999999,7.521436931539197,0.0854491925265874
5.370528,7.530336861687875,0.08497385013169
5.372912,7.53029722329111,0.0845697386415799
5.375308,7.524391052281953,0.0842059477631189
5.377708,7.516343010899519,0.0838640967331812
5.380091999999999,7.506432638397529,0.0835314611633307
5.3824760000000005,7.502109259254208,0.0831722156496269
5.384872,7.497925649737749,0.0828052086781529
5.38726,7.492391565780929,0.0824618676645674
5.38964,7.482294201823836,0.0821734094498692
5.392035999999999,7.466842161933551,0.081936920964004
5.394424000000001,7.44696661166985,0.0817484030929546
5.396804,7.428022226965928,0.0815548977156472
5.399203999999999,7.40572526707523,0.0813986095079031
5.401592000000001,7.379796192744036,0.0812919044004635
5.403972,7.355170371024958,0.0812005670271065
5.4063680000000005,7.329985470798437,0.0811331671322445
5.408756,7.306523132064616,0.0810624307100089
5.411152,7.288228477808883,0.0809842906965342
5.4135480000000005,7.278965939897211,0.0808768355278907
5.415936,7.275942021650268,0.0807528436026407
5.418316000000001,7.275943917508138,0.0806428082043426
5.420712,7.281532806724677,0.0805085474488402
5.4231,7.294431250792583,0.0803483583440479
5.425484000000001,7.308772717099464,0.080198552390444
5.42788,7.324557205645321,0.0800594604819592
5.430268,7.336197723071484,0.0799559749469952
5.432648,7.352354298669678,0.079839939931891
5.435044,7.370512975014292,0.0797111525818772
5.437428000000001,7.393886557665237,0.0795403866822725
5.439807999999999,7.42433737774207,0.0793197696195991
5.442216,7.460003104125236,0.0790580584927082
5.444599999999999,7.498602096814596,0.0787824747060312
5.4469840000000005,7.540553664690733,0.0784741209185566
5.44938,7.587348051820865,0.0781039469506923
5.451768,7.636563848577994,0.077707344398129
5.4541520000000006,7.686198954215704,0.077294370837417
5.456556000000001,7.735182433547356,0.0768780824205458
5.458944000000001,7.776856358027642,0.0764850702483429
5.461323999999999,7.816575403589753,0.0760729489485873
5.463723999999999,7.853920261353111,0.075658608181291
5.466112000000001,7.892103736877631,0.0752125653867022
5.468492,7.924560449416619,0.0747926850378146
5.470888,7.953572038970215,0.0743778259936778
5.473280000000001,7.980628749605637,0.0739388083999946
5.47566,8.005311272442304,0.0734922907517102
5.4780560000000005,8.02626913303986,0.073056274434618
5.480444,8.041360461025024,0.0726507294008942
5.482828,8.054077601211432,0.072239091947354
5.4852240000000005,8.061859374345232,0.0718551940091946
5.487612,8.065636945986196,0.0714959261524867
5.489996,8.066061942440383,0.0711692996520916
5.492392000000001,8.060620406282181,0.0708710814164406
5.49478,8.052105834190924,0.0705927526844854
5.497164,8.04075054359209,0.0703587558903313
5.499560000000001,8.024320116313781,0.0701549332508503
5.5019480000000005,8.00989178978189,0.0699401358752284
5.504332,7.992110888063223,0.0697547960075931
5.506728000000001,7.980848145263004,0.0695507477879115
5.509116000000001,7.968886554328486,0.0693742312610382
5.5115,7.95357238820719,0.0692268348615511
5.513896000000001,7.937699143578454,0.0691010507449268
5.516284000000001,7.92648172674861,0.068962697805398
5.518668,7.916986871411461,0.0688249446048149
5.521064000000001,7.909726434246208,0.068701408928126
5.523452000000001,7.9069820552529855,0.0685715541783006
5.525836,7.909964439245292,0.0684219814570803
5.528236,7.920024060663489,0.068234969450825
5.530624,7.930176229880303,0.0680782947100762
5.533004,7.94419283096309,0.0679076668925531
5.535408,7.960211532792294,0.0677278093741658
5.537796,7.974647442755661,0.0675413627350083
5.540172,7.993878950144781,0.0673385933856655
5.542576,8.01297068790704,0.0671411572104969
5.544964,8.03262150417674,0.0669217885187148
5.547344000000001,8.055345356379496,0.0666854060657684
5.549747999999999,8.075787568582113,0.0664711409112029
5.552136000000001,8.100373751904426,0.0662327356566525
5.554516,8.122445977801124,0.0659920380684978
5.5569120000000005,8.141864476645347,0.06575235249822
5.5593,8.164635550676348,0.0654854764356973
5.561680000000001,8.184752897654871,0.0652195059981701
5.564083999999999,8.203566992021278,0.0649378824815065
5.566471999999999,8.219727359335213,0.0646579432622553
5.568856,8.235236100343089,0.0643702515336541
5.571251999999999,8.249301819111988,0.0640729070409837
5.573639999999999,8.26285568120169,0.0637637041997185
5.576015999999999,8.27161394586564,0.0634704047019318
5.578424,8.278137792357697,0.0631605210560515
5.580807999999999,8.281588602916697,0.0628668473983977
5.583188,8.281035211982863,0.0625898672356919
5.585592,8.282623691422307,0.0622988249796876
5.587975999999999,8.280627278249495,0.062009284417316
5.590356,8.278910404330409,0.0617088192283256
5.592756,8.279987027090657,0.0614042974310534
5.595140000000001,8.281855045783821,0.0611047636383362
5.597519999999999,8.281860733357426,0.0608076710336867
5.599924,8.279072924251702,0.0605155875054556
5.602312,8.276005575892253,0.0602339937563761
5.604692,8.276662889771918,0.0599469232744385
5.607087999999999,8.275038563651448,0.0596782524196627
5.609476000000001,8.278209834956726,0.0593982555505988
5.611856,8.280542488500846,0.0591492005098834
5.61426,8.2844579339108,0.0589080013278117
5.616648,8.289816401559731,0.058680277333798
5.619028,8.292334150701084,0.0584908504595334
5.621432,8.296294922081414,0.0583153573582571
5.62382,8.301047089394661,0.05814380421781
5.626200000000001,8.312317415626357,0.0579648407852063
5.628596,8.32545007297761,0.0577838191438149
5.630984,8.346171824433949,0.0575896880989881
5.633368000000001,8.367405432569484,0.0574104954561398
5.635764,8.395157199623469,0.0572256257112835
5.638152,8.424631528170151,0.0570446626578675
5.640532,8.450893051156914,0.0568823885494503
5.642928,8.47263851597165,0.0567206736204043
5.645315999999999,8.499459117465854,0.0565404271563206
5.647696,8.530144150826034,0.0563534167165006
5.650096,8.560829184186215,0.0561672336788392
5.652483999999999,8.58792932493414,0.05598056339214
5.654864,8.618382040868845,0.0557732329274894
5.657260000000001,8.64711219531085,0.0555650290549776
5.659648000000001,8.676820737140877,0.0553238507276986
5.662032,8.707228127105209,0.0550605288146482
5.664427999999999,8.732467832591448,0.0547868803607608
5.666816000000001,8.758685925465707,0.0544792827236362
5.669196,8.78439216166077,0.054161025805756
5.671592,8.808096297109417,0.0538486830703627
5.67398,8.826073669572533,0.0535462774962426
5.676360000000001,8.842608019796675,0.0532313949921905
5.678763999999999,8.850901649609668,0.0529175788415763
5.681151999999999,8.858683422743466,0.0525908266987358
5.683536,8.85687400102576,0.052278705260325
5.685931999999999,8.854273183375136,0.0519628298237195
5.688319999999999,8.851300278672175,0.0516275634542167
5.690704,8.847908065088633,0.051304561581365
5.693099999999999,8.836367678892563,0.0510080327166169
5.695487999999999,8.816958659337688,0.0507280906577474
