Time,Force,Position
4.75712,4.696326305039944,0.1662925090389325
4.75946,4.784403571019331,0.1649926897411672
4.761804000000001,4.866523652445581,0.1636780065950435
4.764148,4.939473743758777,0.1624492853961096
4.766488,5.002043140145418,0.161338496759576
4.768832000000001,5.057025338284844,0.1602870536767292
4.771168,5.105071964483111,0.1592829915172783
4.773511999999999,5.143901378740079,0.1583973351368872
4.775856,5.179240344041282,0.1574866812374835
4.778200000000001,5.206525580386442,0.156704744843116
4.780539999999999,5.224266843708342,0.1561027029512689
4.782884,5.233907156245959,0.1556665317861234
4.785240000000001,5.243454920984957,0.1551826111479934
4.787584,5.249138253857983,0.1547924996550102
4.789931999999999,5.256032291544508,0.1543635214666939
4.792276,5.25934143661878,0.1540004724553904
4.794616,5.263349429827351,0.1535862589058315
4.796964,5.266193940050668,0.153157089411833
4.799304,5.26694380172895,0.1527326783158095
4.8016440000000005,5.265039936354758,0.1523552728979134
4.80398,5.260202804674369,0.1520453641886617
4.806328,5.252292637060927,0.1518123341375752
4.80868,5.2441029301937645,0.1515999902778841
4.81102,5.238706720005937,0.151333158328514
4.813364000000001,5.234521214631608,0.1510261795729136
4.815708,5.228752917391443,0.150734428767944
4.818052000000001,5.2228448505244165,0.1504530350923803
4.820396,5.218659345150088,0.150145236973068
4.8227400000000005,5.2131233653354,0.149887087493981
4.825088,5.208239011826768,0.1496315198959833
4.827424,5.206148154997472,0.149321029588571
4.8297680000000005,5.204848694101096,0.1490015432237722
4.832116,5.208484600257331,0.1485739235036085
4.834452,5.210630262346347,0.1482037857735287
4.8367960000000005,5.211285680368143,0.1478947387795259
4.83914,5.214315286188694,0.1475616195835203
4.841492,5.215435339061444,0.1473212706456458
4.843827999999999,5.2150651478669765,0.1471399823683739
4.846172,5.21292517335157,0.1470395463729736
4.848528000000001,5.213159386634916,0.1469169290922342
4.890732000000001,5.196589189729748,0.146855989353518
4.893068,5.201245017528639,0.1467676829985978
4.895416,5.204178283834834,0.1467045480381284
4.897760000000001,5.208973881260585,0.1466085166592938
4.900099999999999,5.213769478686336,0.1465140054401517
4.902448000000001,5.219636011298728,0.146391873361025
4.904792,5.23015837171001,0.1461842736443712
4.907132,5.243893537681208,0.1458986207146948
4.909468,5.259491034771962,0.1455842745383558
4.911816000000001,5.276531554101692,0.1452667480377039
4.914164,5.287705540819032,0.1450700033629018
4.916504000000001,5.303814894588983,0.1447720573591284
4.918844000000001,5.321646809851631,0.1444487656457886
4.921188,5.3425517610473365,0.1440560342002152
4.923528,5.369043705601709,0.1435718051851592
4.925872000000001,5.398748455716,0.1430060441491991
4.928211999999999,5.429384371390066,0.1424310216485468
4.930560000000001,5.462022387810551,0.1418128246764728
4.932896,5.49172713792484,0.1412608424552487
4.935239999999999,5.522922132106348,0.1406552434014479
4.937588000000001,5.554536435168437,0.1400247350228541
4.93992,5.584940033417028,0.1394403452166636
4.942264000000001,5.617345732412034,0.1388197898554192
4.944604000000001,5.648028869914344,0.1382333083531493
4.9469520000000005,5.67549920185674,0.1377214427935065
4.949288,5.705902800105329,0.1371609429364811
4.951632000000001,5.733512901674585,0.1366464646018968
4.9539800000000005,5.759772528803481,0.1361838051974803
4.956316,5.782167724066404,0.1357910477636193
4.958656,5.806053163396546,0.1353508317682787
4.960999999999999,5.835805135339078,0.1348101506741869
4.963348000000001,5.865696876908472,0.1342715899052001
4.965687999999999,5.899732589597558,0.133658244837766
4.968028,5.930183409674392,0.1330910799591984
4.970372,5.953976301205916,0.1326322891024018
4.972708,5.978840127924079,0.1321565280137792
4.975064000000001,6.001701853895826,0.1317189280059896
4.977408,6.02670545024085,0.1312435030403043
4.97976,6.050498341772374,0.1307973117785227
4.982095999999999,6.075082629236817,0.130351922085155
4.984436,6.100598082261038,0.1298992936371021
4.98678,6.124251204165704,0.1294742237621831
4.989120000000001,6.146041994950812,0.1290771557632983
4.991464,6.163549044989366,0.1287640025862793
4.9938080000000005,6.1853398357744735,0.1283690197501616
4.996144,6.205547834693746,0.1279871049933367
4.99848,6.229620265478991,0.1275508134411148
5.000824000000001,6.253832465891097,0.1271110486688805
5.003168,6.281909098169176,0.126618247100556
5.005508,6.311708291939952,0.126119376251083
5.007852000000001,6.337782823471613,0.1256722973539466
5.010196,6.36078431907022,0.1252794743781494
5.012536,6.380852548362633,0.1249338138005324
5.014876,6.406787310267434,0.1245094636828567
5.017216,6.434724172918652,0.1240533728279343
5.019559999999999,6.4614503307563735,0.1236283631985053
5.021904,6.49017858934051,0.1231763097765559
5.024244,6.514762876804952,0.1227935926843451
5.026587999999999,6.541489034642673,0.1223736175716964
5.090535999999999,6.362737476749014,0.1222192678624606
5.092932,6.356965387793109,0.1222076887184118
5.095324000000001,6.355988896262956,0.1221369140542374
5.09772,6.359016606225638,0.1220089332906208
5.100116000000001,6.369912949547127,0.1217727861751399
5.1025,6.380949062495475,0.1215278657425373
5.104895999999999,6.392916341003602,0.1212738072771368
5.107292,6.408096425071646,0.1209643381771672
5.10968,6.418620681340796,0.1207069123091616
5.112076000000001,6.429284707236807,0.1204432443415719
5.114472,6.444884100185431,0.120109901432169
5.11686,6.462485593880471,0.1197470097037078
5.119256000000001,6.486233159441622,0.1192931075172239
5.121652,6.508258163510076,0.1188577900945491
5.124035999999999,6.526838044593139,0.1184487876658298
5.126416,6.542484659370005,0.1180779755979084
5.128812000000001,6.562694554147146,0.1176211933002898
5.131200000000001,6.582532361871951,0.117150177014586
5.133584,6.597202485118665,0.1167146779664733
5.135980000000001,6.61243168687282,0.116253477510404
5.138368000000001,6.62514693120136,0.1158071620375369
5.140747999999999,6.638653571462819,0.1153609802757358
5.143152,6.652439750977999,0.1149022950826721
5.145536000000001,6.662501268254065,0.1144804639538182
5.147916,6.669629519223935,0.1140954457882739
5.150324,6.6779684750073045,0.1136860538273114
5.152708,6.685376265230896,0.1132872771043689
5.155092000000001,6.691992659521569,0.1128916110866328
5.157492,6.69967998899888,0.1124764270895919
5.15988,6.703502886610218,0.1121048215756958
5.162260000000001,6.711749294594971,0.1116642259518802
5.164656,6.72199780332614,0.1112008099373887
5.167044,6.727310945004696,0.1107993479071431
5.169428000000001,6.731553151496615,0.1104151935499517
5.171824,6.738309315414149,0.110019812223496
5.174212,6.748929911197656,0.1095832218369731
5.176592,6.759131198100582,0.1091727925748785
5.178996000000001,6.762906873883677,0.1088558630693978
5.18138,6.77278139970464,0.1085022509912214
5.183764000000001,6.778092645525328,0.1082262268638812
5.18616,6.785405992092432,0.1079270016514106
5.188548,6.790717237913121,0.1076518838149375
5.190928,6.795888714106949,0.1073854081228124
5.193324,6.806647183659447,0.1070708975321554
5.195711999999999,6.824482890637834,0.1066762945921996
5.198092,6.844041159108917,0.1062759069569254
5.200492,6.862248953139641,0.1059041682948702
5.202876000000001,6.8801772079166446,0.1055476460056683
5.205272,6.901550585679042,0.1051747104712136
5.207668000000001,6.927859330494051,0.1047492431234128
5.210056000000001,6.944809197883032,0.1044448892518662
5.212435999999999,6.958686029338958,0.1041789002013558
5.214836000000001,6.970420990421608,0.1039406823856084
5.21722,6.98108501631762,0.1037172172267846
5.219604,6.987605071093937,0.1035447492709881
5.222,6.99012092437742,0.1034172659034222
5.224388,6.991565842474266,0.1033051318356441
5.226768000000001,7.001810559489696,0.1031043567144184
5.229164,7.006048974265877,0.1029697779174033
5.231552,7.011498093855556,0.1028127884577794
5.233932,7.014525803818237,0.1026993582401299
5.236332,7.020486780087113,0.1025566658370805
5.23872,7.024305885982713,0.1024432209961469
5.245883999999999,7.01145845545879,0.1023787835696514
5.24828,7.007269158368722,0.10235290550271
5.250676,7.004150796465293,0.1023129756920838
5.253063999999999,7.002103369748502,0.1022593514399812
5.255444,7.00070756933777,0.102212559078902
5.257844,7.007180402285845,0.1020908171241769
5.260231999999999,7.016446731913253,0.1019490361200336
5.262616,7.0334419252726095,0.1017405527092569
5.265012,7.052299449751522,0.1015189712456461
5.267399999999999,7.076511650163628,0.1012298148989933
5.26978,7.104588282441706,0.1009071769509417
5.27218,7.1326649147197845,0.1005865422072784
5.274568,7.15701688475875,0.1002974504077067
5.276948,7.184581660357631,0.099966489103222
5.279348,7.216010867822487,0.0996049005200044
5.281736,7.250792650474118,0.0991986840681343
5.284116,7.283432562752472,0.0988210772401791
5.286516,7.321007842083437,0.0984012183148782
5.288900000000001,7.3590949780936015,0.0979933086110266
5.291284,7.399184214850181,0.097568111639234
5.293684,7.436200415673706,0.0971761124483089
5.296072,7.472937077243511,0.0967995669587538
5.298456000000001,7.509673738813316,0.096426170874232
5.300847999999999,7.540823407024449,0.0960910951149253
5.303232,7.566386081876915,0.0957940281778802
5.305612000000001,7.589015490423185,0.0955254310076076
5.308012000000001,7.608571863036397,0.0952884007206416
5.3104000000000005,7.621330537477442,0.095107969040165
5.312779999999999,7.633949442291627,0.0949346657107298
5.315184,7.648290908598508,0.09475850676058
5.3175680000000005,7.660909813412695,0.0945887726727995
5.319947999999999,7.673668487853739,0.0944138237011835
5.322344,7.683354126361729,0.094268466338865
5.324728,7.69811490154919,0.0940782835618705
5.327124,7.710082180057317,0.0939063443850685
5.329528000000001,7.720978523378807,0.0937474683568205
5.331912,7.734156506700432,0.093560417555859
5.3342920000000005,7.74067656147675,0.0934177294264817
5.336696000000001,7.749897565133785,0.093228722699383
5.33908,7.754462740991928,0.0930662401215762
5.3414600000000005,7.7635911968503475,0.0928472873653199
5.343864000000001,7.775280831962623,0.0925899090641208
5.346248,7.784688827074762,0.0923609347093849
5.348628000000001,7.80089452035907,0.0920849237009925
5.351032000000001,7.820964645509351,0.0917820482696296
5.353416,7.838381043607158,0.0914887014594493
5.355796000000001,7.858358620958821,0.0911558594187131
5.358192,7.8816887734972605,0.0907841907972617
5.360576000000001,7.903436134169865,0.0904112243976122
5.362956,7.918525566297159,0.0900807047726873
5.36536,7.933614998424454,0.0897508750628506
5.367743999999999,7.94162719312586,0.089477858109873
5.370128,7.951781258200543,0.0891822215411447
5.3725320000000005,7.957139725849474,0.0889201820599694
5.374916,7.963569128685044,0.0886481190753565
5.377296,7.96478362521428,0.0884233081769083
5.379692,7.963204625064184,0.0882136302872143
5.382079999999999,7.962696560100724,0.087991993140832
5.384472,7.956321962524874,0.0878111334945282
5.386864,7.95395156644186,0.0875985206995285
5.389252,7.944503932932953,0.0874433316658388
5.391632,7.927979061998159,0.0873450191330984
5.394036000000001,7.914015370317225,0.0872071383548069
5.39642,7.896466786024034,0.0870817340240803
5.3988000000000005,7.879989136917483,0.0869454723297424
5.401196,7.864442653370711,0.0868040351539665
5.403584,7.848616630570218,0.0866739160294798
5.405959999999999,7.831579902956228,0.0865594253124387
5.408368,7.813751779409317,0.0864428979980381
5.410752,7.797925756608826,0.0863110698747481
5.413132,7.783170668994971,0.086168560626039
5.415527999999999,7.774841192500947,0.0859631773013268
5.417916000000001,7.766651485633784,0.0857517816380517
5.420312,7.757390843579984,0.0855503459838623
5.422707999999999,7.746128100779765,0.0853633422671608
5.425096000000001,7.741430738726238,0.0851085383564396
5.427476,7.734172197418853,0.0848909652156137
5.42988,7.731849023164081,0.0846400362246199
5.432268,7.736835403760673,0.0843604942967069
5.434648,7.741682014730406,0.084087963106486
5.437043999999999,7.749182352752615,0.0838067171733398
5.439432000000001,7.762409453760353,0.083493258870004
5.441812,7.772423749208175,0.0832106941304337
5.444216,7.783089670962056,0.0829368144812426
5.446599999999999,7.790682556782881,0.0826881120250071
5.448984,7.800277543350123,0.0824257761303851
5.45138,7.810152069171084,0.0821532221346453
5.453767999999999,7.821097530178686,0.0818718094683574
5.456148,7.8357676534254,0.0815752210788068
5.458544000000001,7.8555129133515855,0.0812441584996818
5.460932000000001,7.87740004365105,0.0808975512106505
5.463311999999999,7.90100973544321,0.0805516520481397
5.465704,7.922617326488955,0.0802190420267302
5.468092,7.942222816788281,0.0798983201173738
5.470484,7.962899242274246,0.0795686840288398
5.472888,7.9812940277600735,0.0792658057896362
5.475276,8.005323028432814,0.0789050334954633
5.4776560000000005,8.02520805798586,0.0785778338523803
5.480060000000001,8.042998438993875,0.0782367627640355
5.482444,8.055993222576136,0.0779179079705509
5.484824000000001,8.07355128615867,0.0775534489118223
5.487228000000001,8.090457723435147,0.0771838140787486
5.489616000000001,8.109645800711762,0.0767906643950689
5.491995999999999,8.123246884629708,0.076416304999291
5.494404,8.136987738174513,0.0760358439447249
5.496788,8.146864159853346,0.0756740893815563
5.499168,8.1545987111589,0.0753308590824554
5.501563999999999,8.157258125784983,0.0750198571478124
5.503952000000001,8.159777770784205,0.0747162676947318
5.506332,8.155220178357537,0.0744577174873681
5.508724,8.1431660396244,0.0742597080209382
5.511112,8.12831840421193,0.0740708437588257
5.513492,8.115472869545874,0.0738696479508008
5.515888,8.105420831559156,0.0736585761370975
5.518275999999999,8.095089254318715,0.0734584601701833
5.520651999999999,8.084897446705135,0.0732526287656767
5.523052000000001,8.072563768718279,0.0730638161186184
5.525436,8.061440795544922,0.0728606966538276
5.527819999999999,8.045894311998149,0.0726959676196271
5.530216,8.03435202994421,0.0725077975115487
5.5326,8.015313201583803,0.072377872977309
5.5349960000000005,7.993992733223257,0.0722695968126997
5.537392,7.973323891168769,0.0721688258446324
5.53978,7.960104373592507,0.0720453713523158
5.54216,7.949026726389523,0.0719050842802286
5.544556000000001,7.94167374142565,0.071753513400055
5.54694,7.93311005164828,0.0716151746917747
5.549335999999999,7.928690332990603,0.0714487332293467
5.55174,7.920545952093814,0.0712930454816384
5.554128,7.915334837503219,0.0711232030816563
5.556503999999999,7.913755837353123,0.0709108934200341
5.5589,7.913759629068861,0.0707044554059322
5.561284,7.914415047090658,0.0705068552809635
5.563664,7.91828327067237,0.0702858131522915
5.566064,7.921220328694304,0.0700672186922976
5.568447999999999,7.923877847462516,0.0698598854044276
5.570828,7.92611605735015,0.0696692384081426
5.57322,7.92886612391698,0.0694929393857488
5.575608,7.934269917536285,0.0693139887581644
5.578004000000001,7.942327438208065,0.0691341203559006
5.580396,7.957322426678873,0.0689203041432924
5.582783999999999,7.974319515896099,0.0686965047779785
5.585164,7.9910370658596035,0.0684845772018222
5.587568,8.006032054330413,0.0682739017291351
5.589951999999999,8.019536798734002,0.0680880741394315
5.592332,8.033041543137593,0.06790324048253
5.594728000000001,8.04775699235468,0.067704762406261
5.597116000000001,8.068990600490217,0.0674932940731773
5.599507999999999,8.094740266797784,0.0672769174838831
5.601912,8.121421098665131,0.0670594902341086
5.604299999999999,8.15140728389101,0.0668511026336285
5.60668,8.18153323874375,0.066638733037384
5.609076000000001,8.211938732850209,0.0664173598406729
5.61146,8.24113352214317,0.066211475324214
5.613843999999999,8.274332512928964,0.0659886676072209
5.616244000000001,8.308462669274537,0.0657647005304927
5.618632000000001,8.344594926366526,0.0655325215523068
5.621008000000001,8.380215326779318,0.065287865028493
5.623404,8.417977597565388,0.0650302514154588
5.625792,8.450944270925705,0.064788490648789
5.628184,8.481117447606687,0.0645542922387631
5.630588,8.510079919474169,0.0643329399775552
5.632972,8.542394966528427,0.0640882210795748
5.635352,8.57242837358255,0.0638630004569763
5.637756,8.603672485450172,0.0636266168101209
5.640144,8.636778928437348,0.0633889512053968
5.64252,8.673749803290498,0.0631412936316578
5.6449240000000005,8.699918778478649,0.0629335230508792
5.647312,8.721711465121626,0.0627249805677383
5.649692000000001,8.742293446951106,0.0625285887973096
5.652083999999999,8.759150766541472,0.0623393926260609
5.654471999999999,8.776008086131835,0.062151168852825
5.656852,8.792725636095343,0.0619689559427482
5.659244,8.808512020499068,0.0617894060024437
5.661632,8.82043397303682,0.0616216233405767
5.6640120000000005,8.830912903335594,0.0614425724178532
5.666416000000001,8.840228350649118,0.0612430843576159
5.6688,8.852616833895695,0.0610312499927848
5.671183999999999,8.864493460463077,0.0608077557995195
5.673576,8.87944312296351,0.0605709654409754
5.675964,8.896534655837224,0.0603233659984529
5.6783600000000005,8.912322936098821,0.0600590721379658
5.680756,8.921313518188247,0.0598137524621419
5.683140000000001,8.932445970650951,0.0595567090335691
5.68552,8.944928897554014,0.0592858511115712
5.687924,8.954758097404603,0.0590150437845593
5.690312,8.961793800575856,0.0587488895207162
5.692692,8.972182078933887,0.0584593999304466
5.695096,8.98536385397125,0.0581670468191298
5.69748,8.998173541956277,0.0578570350122704
5.699864000000001,9.0121939347548,0.0575367192223387
5.702255999999999,9.026493866807048,0.0572084571699504
5.704643999999999,9.041073338113014,0.0568723119669783
5.707024,9.05099698162009,0.0565402534681699
5.709420000000001,9.059989459567388,0.0562084617558758
5.711804,9.073637765313572,0.0558741454906904
5.714196,9.085656057365682,0.0555644481005198
5.716588000000001,9.09245944311146,0.0552783360347895
5.718972,9.097912354416875,0.0550077224092751
5.721368000000001,9.103644804976014,0.0547290163278519
5.723771999999999,9.107514924415597,0.0544528281229099
5.7261560000000005,9.113107605347874,0.0541797805481877
5.728535999999999,9.121633552586347,0.0538997386704628
5.730936000000001,9.127645542399206,0.0536125664630009
5.7333240000000005,9.128442625905732,0.0533467623308295
5.7357000000000005,9.1273773782927,0.0530817785136476
5.738104000000001,9.124310029933254,0.0528220666962837
5.740492000000001,9.121382451200663,0.0525574100451554
5.742871999999999,9.11645277172166,0.0522984006645172
5.745268,9.113245653735351,0.0520431943916064
5.747652,9.108036435002628,0.0517929816253896
5.750032,9.098683245150209,0.0515576022322071
5.752436,9.087188184924514,0.0513320089818696
5.75482,9.07941778693793,0.0511040329109237
5.7572,9.073509720070906,0.0508749193503608
5.759595999999999,9.058662084658431,0.0506666930914921
5.76198,9.042883283686184,0.050458045880056
5.764376,9.025102381967518,0.0502532910383716
5.76678,9.004388213942658,0.0500532110347539
5.769168,8.98018170110416,0.0498764744667481
5.771548,8.951551677892247,0.049722943612503
