Time,Force,Position
4.112128,3.17987573842202,0.1688225235827225
4.114507999999999,3.355643016465504,0.1664506038761197
4.116904,3.5187951814105403,0.1647463692877279
4.119292,3.674035282884265,0.1630365334953973
4.121687999999999,3.817219349766984,0.1616536489937877
4.124084,3.943504562804703,0.1607673185069602
4.126467999999999,4.056615584236535,0.1601699256047954
4.128848,4.161255463689613,0.1595420334893144
4.131243999999999,4.26221979858969,0.1587708156132689
4.133628,4.359508588936767,0.1578278124139384
4.136011999999999,4.447534841372173,0.1569536111444065
4.138415999999999,4.524156685522631,0.1562006758448058
4.164691999999999,4.937261396171658,0.1557410031283216
4.167088,4.974592982929932,0.1556634516709724
4.169471999999999,5.011133173755287,0.1555933468138195
4.171856,5.051864557528578,0.1553461925881856
4.174248,5.09054851458508,0.1550343915942499
4.176636,5.124623865670931,0.1547562492657374
4.188604,5.211528169375717,0.154617927522153
4.190987999999999,5.225446535086279,0.1545428595480706
4.193372,5.241181905946025,0.1543288215370974
4.195763999999999,5.255521476395038,0.1540655098436631
4.198152,5.262319174567207,0.153909641024486
4.200531999999999,5.273308065687312,0.1535923322072607
4.202928,5.283273243449021,0.1532499881327491
4.205316,5.293285643038975,0.152855310977352
4.207696,5.299061523710617,0.1525224469750606
4.210099999999999,5.295945057665056,0.1523436616543381
4.212484,5.293527439753798,0.1521129306068471
4.214864,5.285383058857009,0.1520015461369077
4.217267999999999,5.2795203179603565,0.1518233521129389
4.219652,5.274588742623485,0.1516277217930341
4.222035999999999,5.272171124712226,0.1513990699598094
4.224432,5.275759809040218,0.1510331999450694
4.226816,5.279488262995069,0.1506544252915621
4.29612,5.008910305349096,0.1505650154788974
4.298503999999999,5.0090500749759554,0.1505543863667675
4.300884,5.014125211655428,0.1504322168082143
4.303276,5.0229250105740135,0.150238313676246
4.30566,5.033726910239016,0.1500018063173335
4.308055999999999,5.04960394658349,0.1496499245493453
4.310459999999999,5.06855401886102,0.1492233160961072
4.312844,5.089086883004386,0.1487713829225985
4.315223999999999,5.113763718267446,0.1482121327394523
4.317627999999999,5.137229848717007,0.1476942523866517
4.320012,5.159764813606792,0.1471961681473555
4.322391999999999,5.179226742563518,0.1467719912762318
4.324788,5.199899376333745,0.1463141485965813
4.327171999999999,5.2216429452906095,0.1458300656290837
4.329552,5.243526283874335,0.1453424717221165
4.331956,5.268203119137395,0.144802896859844
4.334339999999999,5.291809019213816,0.144295730206399
4.33672,5.316765393730597,0.1437460633380565
4.339115999999999,5.3417217682473765,0.143196396469714
4.3415,5.366957682017878,0.1426260818799859
4.343895999999999,5.393404300601878,0.1420250539257027
4.346292,5.412354372879408,0.1416182892157969
4.348675999999999,5.432095841089856,0.1412120931621974
4.351056,5.456772676352915,0.1407205609731883
4.353451999999999,5.479447410869559,0.1402776118365915
4.355836,5.494765368706593,0.1400023533770982
4.358231999999999,5.511945657663183,0.1397009467348305
4.360636,5.534620392179827,0.139267175934863
4.363023999999999,5.559017688189166,0.1388198875513487
4.365404,5.586627789758422,0.138304588599858
4.367796,5.617310927260733,0.1377325184113165
4.370184,5.651067100696099,0.1370958139468628
4.372563999999999,5.682681403758188,0.1365122219029678
4.374955999999999,5.715226872380056,0.1359208238651417
4.37734,5.743768139509089,0.1354054420013842
4.379735999999999,5.773799650705341,0.1348479875802923
4.382128,5.802248370035758,0.1343002634877577
4.384516,5.825482183059843,0.1338582908883077
4.386896,5.849647161643706,0.1334035666412161
4.389287999999999,5.873532600973847,0.1329672328807685
4.391676,5.897138501050268,0.132555167596727
4.394067999999999,5.9238174370597445,0.1320798804498213
4.396471999999999,5.948773811576525,0.1316291015677113
4.398856,5.962928286428304,0.1313681878461431
4.401235999999999,5.9709366894139695,0.1312223065200086
4.403632,5.986162099452387,0.1309355448612665
4.40602,5.996591912065053,0.1307271143772511
4.4084,6.006602415797137,0.1305494601733954
4.410796,6.013539883596166,0.1304306069695644
4.413179999999999,6.019406416208556,0.1303355209418164
4.415576,6.02206014326103,0.1303058698642248
4.417971999999999,6.0276471366197,0.1302306010170348
4.420356,6.032302964418592,0.1301676856475274
4.422739999999999,6.035096461097926,0.1301302651183703
4.425144,6.0389608929639005,0.130071195522256
4.427527999999999,6.039752288896819,0.1300673538203824
4.429912,6.0453392822554886,0.1299937606692348
4.432316,6.055070246733852,0.1298444892393717
4.434699999999999,6.064940980839076,0.1296877069691077
4.43708,6.075882650130938,0.1295104164777932
4.439475999999999,6.086032923489884,0.1293384362212868
4.441863999999999,6.096602505729409,0.1291422587513704
4.444243999999999,6.107032318342075,0.1289556644111652
4.44664,6.1262619298733245,0.1286373566578024
4.449024,6.155502045136659,0.1281570255225368
4.451404,6.178735858160743,0.1277762182569604
4.453799999999999,6.202481527864025,0.127404367527803
4.456187999999999,6.223713240141692,0.1270553009112602
4.458584,6.246155657232859,0.1266786151147937
4.460975999999999,6.266456203950748,0.1263440890921207
4.463364,6.287176059549218,0.1259849733483452
4.46574,6.3040314832817135,0.1256850946315011
4.468135999999999,6.325962043693682,0.1253066285785452
4.470519999999999,6.345750733732373,0.1249656785720188
4.472916,6.370474790823676,0.1245547544518272
4.47532,6.395850474221037,0.1241498336186303
4.477703999999999,6.4144284594462295,0.1238419868966378
4.480084,6.433146214298281,0.1235285155272505
4.482488,6.450793033963697,0.1232353066459057
4.484876,6.467648457696193,0.122946123978136
4.487256,6.481570615122494,0.1226977715494852
4.489656,6.494421837362156,0.1224697273832018
4.492044,6.5055504981091214,0.1222558110167011
4.494424,6.508810525497281,0.1221541421146739
4.496827999999999,6.507554494713408,0.1220991540059384
4.499215999999999,6.513515470982284,0.1219313874270945
4.501595999999999,6.5263213672515725,0.1216328798441347
4.504,6.537916558707363,0.1213601663025721
4.506383999999999,6.547649419043595,0.1211085548184136
4.508763999999999,6.557010192327491,0.1208359259223945
4.511168,6.569304231917582,0.1205273731312986
4.513556,6.581598271507673,0.1202192404935915
4.515936,6.587886008858513,0.1199965626226534
4.51834,6.598317717329047,0.1197106530297782
4.520728,6.603162432440911,0.1194863202792872
4.523107999999999,6.60563295975402,0.1192685976945553
4.525504,6.612107688559965,0.118994976680658
4.527887999999999,6.621515683672104,0.1186874005323411
4.530268,6.630411822105045,0.1183667297743209
4.532672,6.641449830911263,0.118013358398148
4.53506,6.651696443784562,0.117659077971554
4.53744,6.659940955911446,0.1173310542845306
4.539831999999999,6.669256403224966,0.1169854388146058
4.54222,6.680713720911766,0.1166019637974772
4.544596,6.691751729717984,0.116242243970927
4.547003999999999,6.6919878388592,0.116022207287155
4.549388,6.681933905014611,0.1159542902888922
4.551767999999999,6.6750927767299375,0.1158338028969279
4.554164,6.673187015497876,0.1156500438015356
4.556552,6.671793110945012,0.1154793356657977
4.558928,6.664253134526038,0.1153965299296725
4.561323999999999,6.656713158107063,0.1153135862422438
4.563708,6.652385987248005,0.1151790122786589
4.566103999999999,6.648198586015806,0.1150373055413653
4.568508,6.647875616649581,0.1148507650715892
4.570895999999999,6.649275208776053,0.1146527063926091
4.573276,6.648672700156107,0.1144809160327877
4.575676,6.642203658923771,0.114379775226496
4.578059999999999,6.638528114370771,0.1142511307497723
4.580439999999999,6.631779533884714,0.1141644518609914
4.582836,6.62996632045127,0.1140177233066895
4.585224,6.631365912577742,0.1138216157460865
4.587603999999999,6.631694569517574,0.1136417889300387
4.59,6.633233931270906,0.1134380567337028
4.592383999999999,6.631188400411985,0.1132617931410012
4.594764,6.635940567725232,0.1130054562650973
4.597159999999999,6.646838806904589,0.1126619600980116
4.599548,6.652801679031335,0.1123797758188898
4.601944,6.648102421119939,0.1122208404773437
4.604339999999999,6.642751536902484,0.1120556912077257
4.606728,6.640753227871806,0.1118315860225077
4.609107999999999,6.63796352290821,0.1116088745563433
4.611504,6.633963113131115,0.1114109385100919
4.613887999999999,6.627029437047825,0.1112480877730792
4.616268,6.61581202021798,0.1111517913378508
4.618672,6.606736473761412,0.1110219811871844
4.62106,6.600733963237901,0.1108501947763871
4.62344,6.596593783833945,0.1106601853212123
4.62584,6.587238698123656,0.1105447478243865
4.628228,6.578163151667089,0.1104137734660499
4.630607999999999,6.568156439650743,0.1102913009276281
4.633004,6.556147626887981,0.1101932955326492
4.635387999999999,6.548282785244912,0.1100379406699803
4.637772,6.541069569907901,0.109888813276649
4.640172,6.541585218302839,0.1096568633606772
4.64256,6.542100866697774,0.1094257901370286
4.64494,6.541405810279211,0.1092182774781821
4.647344,6.544435416099762,0.1089769403762286
4.649728,6.55519388565226,0.1086509575032135
4.652108,6.56488142001812,0.1083397210676839
4.654512,6.575080811063176,0.1080434751866053
4.6569,6.588213468414428,0.1077161683784454
4.659279999999999,6.603487996138957,0.1073596583344479
4.661671999999999,6.620624854983044,0.1069876742541493
4.664059999999999,6.64390778569324,0.106539277408283
4.666452,6.664117680470381,0.1061321427114496
4.668847999999999,6.682185704874245,0.1057584145999422
4.671236,6.699462333345191,0.1053854702482829
4.673615999999999,6.72195386812247,0.1049431960546022
4.676019999999999,6.74896146107178,0.1044730579989248
4.678407999999999,6.776480910700288,0.1040207919528801
4.680788,6.805583152194631,0.1035681702445508
4.683183999999999,6.8285393218228645,0.1031921987945233
4.685571999999999,6.852706196264596,0.1027979338507986
4.687951999999999,6.871937703653716,0.1024590046828383
4.690356,6.890098275856195,0.1021360379912969
4.692739999999999,6.907187912872039,0.1018271949237441
4.695119999999999,6.925348485074519,0.1015064956899459
4.697524,6.946023014702615,0.1011817004276885
4.699911999999999,6.975217803995575,0.10079008744373
4.702292,7.006554463661813,0.1003746469822716
4.704696,7.035469713701054,0.1000030379625216
4.70708,7.0608926189266565,0.0996875049247325
4.70946,7.084173653778985,0.0994000287473142
4.711864,7.103730026392198,0.0991436349393653
4.714248,7.121144528632136,0.098912387181785
4.716628,7.140561131618489,0.098662437737264
4.719023999999999,7.158627260164485,0.0984383887299799
4.721408,7.177345015016537,0.0982243441846309
4.723787999999999,7.191127402815979,0.0980584363231123
4.726191999999999,7.203187229122722,0.0978997654166663
4.728579999999999,7.216597529869825,0.0977160723029004
4.73096,7.232801327296263,0.0975117671716238
4.733364,7.246723484722564,0.0973416893447684
4.735747999999999,7.262507973268422,0.0971590797149976
4.738128,7.279083857747197,0.0969772547213678
4.740532,7.301805814092083,0.0967335271763634
4.742915999999999,7.323736374504051,0.0964922447552993
4.745296,7.343432516744127,0.0962467157068237
4.7477,7.355679334505973,0.0960525502903071
4.750088,7.362059619655431,0.0959070869781719
4.752468,7.368998983312328,0.0957361731418799
4.754871999999999,7.375566259916889,0.0955446763798267
4.757259999999999,7.387348442827782,0.0952994517128479
4.759639999999999,7.3965694464848175,0.0950974310653874
4.762036,7.415009557941019,0.0948061730216464
4.764424,7.431447568650804,0.0945344685633551
4.766803999999999,7.453100485666921,0.0942095208934929
4.769207999999999,7.471028740443924,0.0939090052116036
4.771592,7.487094664101372,0.0936179435681627
4.773975999999999,7.502229422199041,0.0933325249559913
4.776368,7.516293245110071,0.0930614005883843
4.778756,7.534640808767655,0.0927453414468002
4.781139999999999,7.554199077238739,0.0924121653571436
4.783536,7.576830381642878,0.0920538734412073
4.785919999999999,7.600812160487376,0.0916742060435645
4.788304,7.62051019858532,0.0913448955872956
4.790704,7.6417910285490995,0.0910203490032167
4.793092,7.659719283326102,0.0907359448964904
4.795472,7.677367998849387,0.0904631672153545
4.797867999999999,7.699300455119224,0.0901452382674031
4.800255999999999,7.721884537695121,0.089835799721903
4.802636,7.7491244480699075,0.0895024302243405
4.805043999999999,7.770218286578583,0.0892255635851444
4.807428,7.79787750583395,0.0888783523209761
4.809808,7.820321818782984,0.0885848668495007
4.812204,7.841974735799102,0.0882904412438749
4.814591999999999,7.861625552068801,0.088014382843887
4.816976,7.884349404271558,0.0877136915919156
4.819372,7.914010724273342,0.0873638386153879
4.821755999999999,7.946605310581323,0.0869956132979383
4.82414,7.97999129282222,0.0866314061571109
4.826535999999999,8.006300037637228,0.086324139996523
4.82892,8.032608782452238,0.0860188657378584
4.831315999999999,8.052911225027996,0.085759259947192
4.833712,8.071071797230477,0.0855214913808175
4.8361,8.084716311260927,0.0852990066990844
4.838479999999999,8.095707098238902,0.0850852243400742
4.840876,8.11084185633657,0.0848373114209457
4.843264,8.128258254434376,0.0845640699794042
4.845644,8.146326278838242,0.0843002146791401
4.848048,8.163463137682328,0.0840413100279894
4.850436,8.175804399100661,0.083809818944791
4.852815999999999,8.188285430145854,0.0835714411107614
4.855219999999999,8.193549454138301,0.0833914838803594
4.857607999999999,8.194017880704992,0.0832374352990895
4.859988,8.195417472831462,0.0830791763369654
4.862387999999999,8.196817064957935,0.0829214445683972
4.864772,8.193141520404934,0.0828010878452919
4.867156,8.183739212866405,0.0827107895578147
4.869555999999999,8.17061224308876,0.082636308740301
4.871943999999999,8.152829445512223,0.0825816479052528
4.874324,8.1399820149883,0.0824955216519163
4.876728,8.123409922225264,0.0824249581577516
4.879111999999999,8.107257138342806,0.0823370585449876
4.881492,8.091663432967792,0.0822259166563253
4.883887999999999,8.081005094645388,0.082083144318365
4.886275999999999,8.06662209408387,0.081955552822957
4.888655999999999,8.050376762402797,0.0818354336654144
4.89106,8.032129329975307,0.081728231398001
4.893447999999999,8.008015364935426,0.0816552786689365
4.895828,7.983249773589487,0.0815742231986825
4.898232,7.961557218176603,0.0814697248397005
4.90062,7.944939799443192,0.0813287129291515
4.902999999999999,7.933677056642975,0.0811401466457769
4.905396,7.927629220149088,0.080909496916272
4.907784,7.921581383655202,0.0806788372634825
4.910167999999999,7.908875618616007,0.0804788378734987
4.912564,7.899382659136728,0.0802498084397381
4.914947999999999,7.892822965963643,0.0800035647579441
4.917328,7.891338409470033,0.0797222194758299
4.919727999999999,7.891995723349699,0.0794210032483786
4.922112,7.889068144617111,0.07912890838269
4.924496,7.88772335775036,0.0788396836910078
4.9269,7.889032297936083,0.0785451753567971
4.929283999999999,7.88670912368131,0.0782950635057927
4.931664,7.88345478386676,0.0780489643490634
4.934068,7.886066976664599,0.0777697850125713
4.936456,7.888539399835579,0.0774966461946986
4.938836,7.892082758193197,0.0772143325710546
4.941236,7.900701253230287,0.0768966486435779
4.943619999999999,7.908248813080738,0.0765875146033584
4.946004,7.913794272184772,0.0762915114011042
4.948407999999999,7.909468997183582,0.0760516237498101
4.950792,7.901651377368757,0.0758507883214597
4.953172,7.891831656807514,0.0756621653522942
4.955572,7.882011936246272,0.0754733917545824
4.957955999999999,7.880852244976754,0.0752428488085417
4.96034,7.880623719267016,0.0750095244186999
4.962736,7.877461927251081,0.0747914582438681
4.965123999999999,7.868945459301955,0.0746179133696472
4.967504,7.863222488032163,0.0744350017508565
4.969908,7.859222078255066,0.07425111839148
4.972296,7.85764307810497,0.0740385238784348
4.974675999999999,7.855272682021955,0.0738237034083878
4.977079999999999,7.856254861125714,0.0735764962076115
4.979467999999999,7.859099371349031,0.0733242240871099
4.981847999999999,7.8595224719453505,0.0731010944062524
4.984244,7.862878838847865,0.0728647508252824
4.986632,7.864884731310021,0.0726478888020527
4.989011999999999,7.867682019705095,0.0724347917200263
4.991412,7.875135135899059,0.0722082774707433
4.9938,7.886592453585858,0.0719609646339574
4.996179999999999,7.911505397990133,0.0716594678974033
4.998576,7.936558112021268,0.0713518120308951
5.000964,7.964264553104879,0.0710431390879664
5.003344,7.992902159748269,0.0707332233788781
5.005744,8.020468831205019,0.0704348237870382
5.008127999999999,8.04682479784827,0.0701512113436026
5.010508,8.075974261170858,0.0698604629617133
5.012903999999999,8.110059091546056,0.0695471488648179
5.015291999999999,8.143352525988337,0.0692342569767069
5.017688,8.178648061177034,0.0689134191676424
5.020083999999999,8.213943596365732,0.0685957886049121
5.022468,8.250030527487347,0.068283023956263
5.024848,8.288910955288298,0.0679664975941056
5.027251999999999,8.324858116783055,0.067663930449313
5.029639999999999,8.362295522345029,0.0673396525822411
5.032019999999999,8.394657791227532,0.0670433698211043
5.034424,8.428510304177253,0.0667245324344303
5.036807999999999,8.462642356380695,0.0663986237817501
5.039192,8.492118580785249,0.0660845958394903
5.041587999999999,8.5203841003763,0.0657863823739911
5.043972,8.54306262660868,0.0655042299522731
5.046355999999999,8.570956059147393,0.0651945195649791
5.048752,8.595776455753052,0.0649013811318244
5.05114,8.621667787545352,0.0646034568813803
5.053519999999999,8.645696788218093,0.0643106825902931
5.055923999999999,8.670005328144553,0.0640086369900875
5.058308,8.694313868071012,0.0637080982466982
5.060687999999999,8.713175184265664,0.0634138151061509
5.063087999999999,8.730546256393096,0.0631420716370962
5.065472,8.745775458147252,0.0628847594455121
5.067855999999999,8.759374646207327,0.0626544675085653
5.070252,8.773113603894263,0.062420364009702
5.072635999999999,8.782848360088364,0.0622033394199455
5.075032,8.796447548148441,0.0619762368944373
5.077432,8.809627427327936,0.0617648166457959
5.07982,8.822947076134291,0.0615476291503301
5.0822,8.840922552739539,0.0613253084937152
5.084603999999999,8.853543353411592,0.0611345507251021
5.086988,8.871099521136259,0.0609279352214711
5.089368,8.88572242255473,0.0607309230484648
5.091771999999999,8.899274388786564,0.0605408553460712
5.094156,8.907611448712062,0.0603777555528035
5.096536,8.921303184570755,0.0601853561555723
5.098932,8.936065855616087,0.0599888046637895
5.101319999999999,8.952830627407838,0.0597861252886712
5.1037,8.968384694386087,0.0595942914748138
5.106104,8.98207643024478,0.0594052245061528
5.108492,9.001494929089002,0.0592054000153884
5.110871999999999,9.023055298306502,0.0589947026760729
5.113272,9.046757537897278,0.0587735441999779
5.11566,9.071950021555276,0.0585332310430072
5.118039999999999,9.093929699653357,0.0583103282246637
5.120436,9.117120082564936,0.058077390752508
5.122819999999999,9.135235328797044,0.0578642925280119
5.125204,9.151628013536452,0.0576489583721816
5.127604,9.174166770141976,0.0574103863905785
5.129992,9.18762618857519,0.0572043158695264
5.132372,9.20630051331474,0.0569749595662041
5.134767999999999,9.223764133240788,0.0567577224383341
5.137155999999999,9.241227753166836,0.0565402504220505
5.139536,9.259762308279525,0.0563181469276694
5.141931999999999,9.280578503392352,0.0560812173368118
5.144319999999999,9.294037921825566,0.0558783904776263
5.146699999999999,9.300420102832891,0.0556997360803871
5.149096,9.304939952720662,0.055523381014165
5.151479999999999,9.311461903354848,0.0553410848565518
5.153876,9.32091712029523,0.0551524948632411
5.156272,9.329161632422114,0.0549750371176492
5.158659999999999,9.332750316750108,0.0548011500715148
5.16104,9.33647877070496,0.0546238006747409
5.163435999999999,9.341417929473309,0.0544378331656571
5.165823999999999,9.348498958614936,0.0542414655844909
5.168203999999999,9.353577887010148,0.0540506527842393
5.1706,9.363080325778771,0.053835588090565
5.172988,9.374584865293814,0.0536153666217669
5.175383999999999,9.379151937009828,0.0534128777028688
