Time,Force,Position
6.976799999999999,2.3296398140775376,0.163475005644633
6.979187999999999,2.394806236399066,0.1628326132559328
6.981567999999999,2.4541080219660736,0.1622340732125654
6.983964,2.5080570274577574,0.161704621626342
6.986352,2.5558618569412,0.1613051404093564
6.988731999999999,2.600875085603177,0.1607125042167269
6.991128,2.6312238785920474,0.1606160760774173
6.993516,2.6582692140802537,0.1603073078036283
6.995911999999999,2.679449912813939,0.1599669881075226
6.998308,2.693275730725885,0.1597457557451062
7.000696,2.7083594752795723,0.1593453366123633
7.003079999999999,2.725585090206537,0.1588346369583704
7.005476,2.741507452521385,0.1583122323094326
7.007864,2.7662768355830623,0.1572981962000995
7.010244,2.7923966930850983,0.1562054181522454
7.012639999999999,2.8149316579748818,0.1552459789352953
7.015027999999999,2.834161269506132,0.1543904947056302
7.017408,2.854881125104601,0.1534247282574323
7.019807999999999,2.877742851076348,0.1523473132843976
7.022195999999999,2.9015357426078734,0.1512711655666462
7.02458,2.926539338952897,0.1501299381469749
7.026971999999999,2.953545036044337,0.1489193041297772
7.029356,2.976546531642944,0.1478613130565533
7.153596,3.055123254711576,0.146981665632917
7.155992,3.061733961428641,0.1468718320681583
7.158379999999999,3.0743509703849563,0.1465358525600429
7.160776,3.0894819367668878,0.1461512132226463
7.163171999999999,3.1043333638950967,0.1457987276592248
7.165559999999999,3.125610402143137,0.1451833957048248
7.16794,3.142511151846008,0.1446612073812645
7.170344,3.159272131922018,0.1441490355841918
7.172727999999999,3.17933846535656,0.1435771592760774
7.175108,3.1954005972982684,0.1431461367676831
7.177503999999999,3.2102520244264783,0.1427722973759889
7.179891999999999,3.2241722859949107,0.1424254011737226
7.182271999999999,3.235718359764588,0.1421184958461424
7.184676,3.2470321161087874,0.1417564041304746
7.187059999999999,3.2614189083860428,0.1412812198885666
7.189439999999999,3.279670132529272,0.1406806652383717
7.191844,3.295639716672364,0.1401845058269664
7.203771999999999,3.309558082382927,0.1401068539965073
7.206168,3.314446227607296,0.140036193031267
7.208551999999999,3.31709995465977,0.1399772979996737
7.210948,3.3221750913392425,0.139806607301334
7.213339999999999,3.3231062568990204,0.13978264191063
7.215728,3.3296244158174693,0.1396129826124825
7.218107999999999,3.339075841042112,0.1393556938161795
7.220504,3.3442907473484453,0.1391724152393176
7.222892,3.356722660707527,0.1387442231240556
7.225287999999999,3.374509249999801,0.1381250531005554
7.227684,3.3952291055982715,0.1374231664276721
7.230072,3.417112444181996,0.1367520022218765
7.232448,3.43829693463142,0.13615901798211
7.234843999999999,3.457479324334427,0.1356404584114139
7.237231999999999,3.4700037854921257,0.1352955159130492
7.239623999999999,3.4861603610903207,0.1347924517490048
7.24202,3.509394174114405,0.1340701563381322
7.244403999999999,3.533419383071407,0.133351621106734
7.246779999999999,3.564242290200578,0.1324476090032662
7.249184,3.592131931023553,0.1316214444223854
7.251571999999999,3.6189506366598905,0.1308532440191021
7.253947999999999,3.6445586374827297,0.1301627693449816
7.256352,3.6726805957311823,0.1294434841289631
7.258739999999999,3.6986606836063594,0.1288038408057161
7.26112,3.726642872227951,0.128116310081405
7.263512,3.7536938952897656,0.1274587327529711
7.265896,3.779953522418662,0.1268175817452454
7.268291999999999,3.808075480667114,0.1261302737270073
7.270688,3.8321932374227337,0.1255662100578025
7.273076,3.854448663058797,0.1250591151955787
7.275456,3.876704088694859,0.1245629814078539
7.27786,3.897376722465085,0.124075038775415
7.280244,3.917397729929254,0.1235749717918387
7.282624,3.936627341460505,0.1230829636585936
7.285027999999999,3.964796521537201,0.1223774209751341
7.287412,3.9928259319870367,0.121702731489044
7.289792,4.012846939451205,0.1212220039225103
7.292195999999999,4.0302142198628985,0.1207836637702284
7.294584,4.041714967662203,0.120478413593281
7.29696,4.058151082514118,0.1200626536486507
7.339979999999999,4.027241315159937,0.1200581520480219
7.342371999999999,4.030034811839273,0.1200106666400483
7.344759999999999,4.030965977399051,0.1199951861153755
7.34714,4.039114150011579,0.1198115261505227
7.349535999999999,4.046331157064327,0.1196431551301688
7.351924,4.058343761542828,0.1193870282264106
7.354303999999999,4.069285430834691,0.1191596263740992
7.3567,4.087444107179303,0.118764235142545
7.359088,4.10280928684458,0.1184145564182032
7.361468,4.119524940950217,0.1180123331556748
7.363859999999999,4.133586868003378,0.1176431926443586
7.366244,4.149930435056676,0.1172061801983102
7.368639999999999,4.168974950990692,0.1166574098533433
7.371043999999999,4.18736784061865,0.1160938073702035
7.373431999999999,4.203618859873332,0.115588263277449
7.375807999999999,4.215214051329121,0.1151671319585834
7.378211999999999,4.230813444277745,0.1146639429565435
7.380595999999999,4.244690275733672,0.1141798755205347
7.38298,4.256053149763984,0.113715950806077
7.385372,4.265553692674741,0.1132896819961114
7.387755999999999,4.272260738906161,0.1129099792413318
7.390151999999999,4.278828015510722,0.1125452654801507
7.392548,4.282741565062808,0.112212174894413
7.394935999999999,4.279717646815865,0.1120167241213921
7.397316,4.27748512450184,0.1118183926448616
7.399708,4.269525839202285,0.1117181021818823
7.402096,4.26198586278331,0.1115817369526408
7.404475999999999,4.25151262005814,0.1114982049249069
7.406879999999999,4.243972643639165,0.1113606250254088
7.409264,4.236292897593331,0.1112342464648987
7.411643999999999,4.2335485186001085,0.1110158183174172
7.414047999999999,4.230012743673968,0.1107996798154613
7.416435999999999,4.228851156546582,0.1105783730056679
7.418816,4.2315540012851685,0.1102926620195688
7.421211999999999,4.235467550837255,0.1099702845426193
7.4236,4.24031226594912,0.1096342376394657
7.425979999999999,4.2392904484485925,0.1094008985782066
7.428383999999999,4.234124659828374,0.1092539956079513
7.430768,4.23068143270085,0.1090911154773316
7.433147999999999,4.228029601506244,0.1089271004937814
7.435547999999999,4.226169166244556,0.1087610288973381
7.437932,4.2204442991168944,0.1086600932943039
7.440324,4.216302223855071,0.1085552075284325
7.442727999999999,4.214022479712803,0.108422305206611
7.445115999999999,4.21481577150359,0.1082257719934947
7.447495999999999,4.220264891093269,0.1079605787238254
7.449895999999999,4.226225867362145,0.1077186351177319
7.452283999999999,4.229625664377164,0.1075613672220155
7.454663999999999,4.233677087698242,0.1074157923685969
7.457068,4.239451072512015,0.1072564164805671
7.459455999999999,4.245736914004985,0.1071227816425341
7.461836,4.253465777736932,0.1069991014582868
7.464236,4.261334411095739,0.1068663695681003
7.471399999999999,4.27441605490301,0.1068156896656591
7.473787999999999,4.282609553485912,0.1067815373499264
7.476167999999999,4.299742620614259,0.1065896285871603
7.478572,4.319948723675662,0.1063421000184357
7.480955999999999,4.337081790804009,0.1061547481302235
7.483335999999999,4.35207298755908,0.1060118755056923
7.485731999999999,4.375724213605875,0.1057399190001795
7.48812,4.401098001145367,0.1054565083627891
7.490499999999999,4.43233832129725,0.1050859748459566
7.492896,4.458363735142799,0.1048204216883741
7.495284,4.483597753055431,0.1045600914063765
7.49766,4.50948339727412,0.1043119731576303
7.500059999999999,4.540583947799141,0.1039622757849146
7.502447999999999,4.569682397577747,0.103648672988719
7.504828,4.5989206169832135,0.1033306450839416
7.507232,4.620429972656732,0.1031233224039098
7.50962,4.641427471651053,0.1028988767805753
7.512,4.6585605387794,0.1027300896052984
7.514403999999999,4.676904310721247,0.1025315972621791
7.516791999999999,4.70367579452934,0.1021774830492762
7.519171999999999,4.734870788710848,0.1017317901934204
7.521571999999999,4.762480890280103,0.1013225418077212
7.523956,4.787017955916304,0.10097329379886
7.526339999999999,4.806479884873031,0.100707763414731
7.528744,4.825010648269981,0.1004488591036109
7.531127999999999,4.847685382786624,0.1001169215721431
7.533507999999999,4.863562419131099,0.0998835801956707
7.535912,4.878927598796374,0.0996330826722134
7.5383,4.889357411409039,0.0994561780747151
7.54068,4.903279568835341,0.0992000567578706
7.543084,4.916550099955583,0.0989361654583307
7.545468,4.928657148090571,0.098644444560528
7.547848,4.939181404359722,0.0983565643087639
7.550243999999999,4.952127070255871,0.0980136315830139
7.552628,4.9642813402191015,0.097673938547479
7.555007999999999,4.985003091675441,0.0971866618490267
7.557416,5.004653907945141,0.0967207653366059
7.559799999999999,5.0263068249612575,0.0962252771049523
7.56218,5.043164144551622,0.0957838673410679
7.564572,5.05308399634296,0.0954397724063061
7.56696,5.059139416268322,0.0951423011942608
7.56934,5.066126001753464,0.0948360112885157
7.571743999999999,5.072321191305687,0.0945297878860263
7.574128,5.08466245272402,0.0941376371417255
7.576511999999999,5.101287454888909,0.0936754026434671
7.578911999999999,5.114467334068404,0.0932296753482388
7.581299999999999,5.125924651755202,0.0927876785585324
7.583679999999999,5.136311034255361,0.0923652978656033
7.586076,5.144043689703048,0.0919562043600392
7.588464,5.149634474777456,0.0915833883849492
7.590843999999999,5.156947821344563,0.0912061088758798
7.59324,5.164121398284806,0.0908392451671996
7.595628,5.170084270411553,0.0905004142436619
7.598023999999999,5.17497620735166,0.0901815596055406
7.600427999999999,5.176003712425793,0.0899020690167924
7.602812,5.169394901566597,0.0897497114091663
7.605191999999999,5.160923759587844,0.0896121599730979
7.607595999999999,5.150450516862675,0.0894987916557619
7.609983999999999,5.14305031007056,0.0893433367841513
7.612363999999999,5.1345791680918085,0.089204332548544
7.61476,5.12890152279239,0.0890418827440251
7.617148,5.124434582306471,0.0888534677917707
7.619527999999999,5.120107411447412,0.0886558091213512
7.621931999999999,5.107771837602685,0.0885547364804783
7.624319999999999,5.093573932638404,0.088467203753672
7.6267,5.082821150659514,0.0883678235599471
7.629095999999999,5.074722095733098,0.0882553272610668
7.631484,5.064620940060266,0.0881664103335029
7.633863999999999,5.057173511439908,0.0880642062185738
7.648187999999999,4.979382496730587,0.0880132732197089
7.650596,4.968302953669733,0.0879882726519011
7.652979999999999,4.96295017359441,0.0879083204607866
7.65536,4.962672530198558,0.0877634798911837
7.657755999999999,4.9631862827356255,0.087620955771672
7.660143999999999,4.969706337511942,0.0874084078889344
7.662523999999999,4.975155457101622,0.0872140134952365
7.66492,4.978322936691165,0.087061383247311
7.667308,4.982421581840485,0.0869025701376847
7.669703999999999,4.992666298855916,0.0866654011531223
7.6721,5.003842181431123,0.0864234957604806
7.674488,5.015157833633195,0.0861757538160205
7.676871999999999,5.027823960275623,0.0858960387058209
7.679268,5.045704993224384,0.0855501426932731
7.681656,5.068289075800279,0.0851235697662993
7.684035999999999,5.093294568003172,0.0846535873607936
7.686439999999999,5.118859138713505,0.0841472791821981
7.688827999999999,5.15070955091681,0.0835615370263241
7.691208,5.1885662653593645,0.0829191105582487
7.693612,5.228425080548337,0.0822548554395628
7.695995999999999,5.270193448685109,0.081529187570184
7.698376,5.310099485702325,0.0808190703535488
7.70078,5.345349694920648,0.0801466233459925
7.703168,5.377806407459636,0.0795002701786787
7.705548,5.413615695185401,0.0788150966343223
7.707943999999999,5.440904723246299,0.078188959646038
7.710327999999999,5.4646088586949455,0.0775747791618396
7.712712,5.4938074397036445,0.0768914631648283
7.715104,5.521143689592788,0.0762209504663287
7.717495999999999,5.545546673175736,0.0755782206642766
7.719875999999999,5.567807786385407,0.074964130757139
7.722272,5.589417273289019,0.0743451102548319
7.724655999999999,5.61195792575241,0.0737279978806049
7.727036,5.627561110416773,0.0731686296920112
7.72944,5.637669849521081,0.0726856673490124
7.731828,5.6457764878789725,0.072222827280566
7.734207999999999,5.655745457356422,0.071753055627876
7.736604,5.663852095714313,0.0712967300649414
7.738992,5.665952431832954,0.0708899297474132
7.741375999999999,5.666981832764958,0.0704945024490008
7.743767999999999,5.664379119256466,0.0701572723877052
7.746155999999999,5.662567801680892,0.0698237185648785
7.748547999999999,5.659685548918677,0.0695002927799608
7.750943999999999,5.656803296156464,0.0691771085600698
7.817843999999999,5.353028068964077,0.0689885862148943
7.820228,5.378122317249849,0.0689518681622282
7.822623999999999,5.401214464789204,0.0689306146567079
7.825008,5.4281710441945314,0.0688877833981703
7.827392,5.46262416990633,0.0687679008477809
7.829787999999999,5.506016864163573,0.0685887275551187
7.832175999999999,5.553693299167371,0.0683636786003319
7.834555999999999,5.604582539731084,0.0681035909489299
7.836952,5.651886887682544,0.0678539820372968
7.83934,5.694814947088832,0.0676070026320269
7.841735999999999,5.732295782763311,0.0673755759349184
7.844135999999999,5.77140663213187,0.0671063943419494
7.84652,5.811867955940787,0.066811361591805
7.8489,5.85675279012312,0.0664681616707386
7.851303999999999,5.898192501320059,0.0661219923990434
7.853691999999999,5.934184988785189,0.065788501064512
7.856071999999999,5.967523749197844,0.0654600945438601
7.858476,6.000490422558161,0.0651117067152468
7.860859999999999,6.031315225545201,0.0647868931154465
7.863244,6.057344431106489,0.0644860470490115
7.865648,6.082070384055662,0.0641653094543814
7.868031999999999,6.105865171445055,0.063851537959274
7.870415999999999,6.130079267715031,0.0635186059073797
7.872816,6.15857710473156,0.0631530651816535
7.875204,6.182791201001535,0.0628289161298222
7.877583999999999,6.200487138353061,0.0625243981189839
7.879987999999999,6.219673319771807,0.062194553075038
7.882375999999999,6.24235184600419,0.0618295474791059
7.884755999999999,6.265030372236571,0.0614658337666225
7.887152,6.289990538469089,0.0610796569637919
7.88954,6.315881870261388,0.0606923568786868
7.891919999999999,6.340702266867045,0.0603179771572024
7.894323999999999,6.364731267539787,0.0599403208119652
7.896711999999999,6.38689793709297,0.0595704409517205
7.899092,6.413068808138988,0.0591820287642856
7.901487999999999,6.441241779931422,0.0587835480159246
7.903872,6.469274982096998,0.0583928106697193
7.906255999999999,6.493443752396598,0.0580185585349563
7.908652,6.515889961203503,0.0576404911619902
7.911035999999999,6.5394071051970455,0.0572547182071635
7.91342,6.558500738817174,0.0569073869226221
7.915815999999999,6.575871810944607,0.0565586831773556
7.918199999999999,6.591240782325622,0.0562204141689773
7.920584,6.599812055534468,0.0559067305071326
7.922979999999999,6.6100133424373935,0.0555607731008981
7.925364,6.62035439896718,0.0552081984418379
7.927743999999999,6.623338678817357,0.0549023647378454
7.93014,6.619897347547703,0.0546427617890309
7.932528,6.614314145904772,0.0543973852865539
7.934911999999999,6.608591174634981,0.0541590773811935
7.937315999999999,6.6028682033651895,0.0539207492767906
7.9397,6.591930325789066,0.0537115435064229
7.942079999999999,6.58206338339958,0.0534950734400259
7.944483999999999,6.570054570636818,0.0532927777105625
7.946871999999999,6.554972721941,0.0531054818298253
7.949251999999999,6.541101578058679,0.0529044184592462
7.951647999999999,6.52844113898986,0.0526899610456439
7.954036,6.514430225480679,0.0524940521432528
7.956415999999999,6.503212808650835,0.0522956588698666
7.958812,6.492926557380769,0.0520966952805699
7.9612,6.486924046857256,0.051869509443824
7.96358,6.4805022274531625,0.051661246033294
7.965975999999999,6.472869703235572,0.0514652755365271
7.968363999999999,6.4648178701374,0.0512872929012463
7.97076,6.454204857785371,0.0511418582594958
7.973155999999999,6.444103702112538,0.051014638791214
7.975543999999999,6.43800674793254,0.0508720924653266
7.977924,6.43298072893918,0.0507220351856814
7.980328,6.431307285132595,0.0505447583413987
7.982716,6.425489870206318,0.0503878922916497
7.985099999999999,6.417530584906762,0.0502441626351146
7.987496,6.414786205913541,0.0500720606907226
7.989884,6.408968790987263,0.0499136424674836
7.992263999999999,6.405293246434263,0.0497416535130657
7.99466,6.402688637067899,0.0495627049450167
7.997047999999999,6.395660517328123,0.0494165134619662
7.999428,6.388352858334625,0.0492834597423505
8.001832,6.384909631207102,0.0491432107733662
8.004216,6.382397569639356,0.0490034124618646
8.006596,6.374950141018998,0.0488764642936179
8.009,6.368433877958419,0.0487497201110342
8.011384,6.360195053405144,0.0486162971429148
8.013764,6.3561001999715625,0.04846346316118
8.01616,6.355357921724757,0.0482848249897813
8.018548,6.35554680903773,0.0481059125692424
8.020928,6.353873365231145,0.0479265057098251
