Time,Force,Position
27.261516,2.2779618358749656,0.1723402065032847
27.263895999999995,2.2932797937119997,0.171524139507299
27.266304,2.30487308930992,0.1708821395930219
27.268692,2.31646638490784,0.1702466896520551
27.271072,2.3259178101324838,0.1697666540358407
27.273468,2.3364401705437654,0.1692084963373007
27.275856,2.3464506742758497,0.1686325459010514
27.278236,2.363538415433823,0.1676355399647617
27.280632,2.383419653271132,0.1664904258060655
27.28302,2.401857868869464,0.1653746664818178
27.2854,2.4169435092810203,0.1644801475720241
27.287796,2.4358935815585503,0.1633694084237918
27.290184,2.4561941282764392,0.1621719813539613
27.29258,2.477565610180967,0.1609216131407397
27.294979999999995,2.498145696152576,0.1597316595518041
27.297368,2.514721580631352,0.1587635029725108
27.299748,2.531856543617568,0.1577342220908307
27.302147999999995,2.545127074737811,0.1568940689764149
27.304536,2.5558836484324394,0.1561416586769453
27.306916,2.562915559887955,0.1555646091402003
27.309315999999995,2.5643132561565567,0.1553406734196955
27.311704,2.564220708357941,0.1552472283066013
27.314088,2.568504449104495,0.1549931621264413
27.316484,2.573719355410826,0.1547025705958007
27.318876,2.5773514698513225,0.1544472994689083
27.321256,2.580471727612621,0.1541646190004748
27.323656,2.5863854820532546,0.153771234287958
27.326044,2.59108853168039,0.1534722063709984
27.328424,2.592439006120749,0.1533696042374976
27.33082,2.5975141428002213,0.15312104673901
27.333208,2.609014890599524,0.1525275739410268
27.335592,2.61986401209277,0.1519419697031975
27.337988,2.6244272920930447,0.1516723786063087
27.340376,2.6265691624663217,0.1515584299967951
27.342756,2.6288035806382157,0.1515343743056805
27.345152,2.638627092915196,0.1512147372735733
27.347539999999995,2.6446787211248206,0.1511410780846487
27.349924,2.657528047506614,0.1507940863855318
27.35232,2.671680626500523,0.1504591391254187
27.354704,2.6852741269869904,0.1501988857923218
27.357088,2.707527656765184,0.1495887595786536
27.359483999999995,2.7288500209836,0.1490010573431709
27.361872,2.751522859642373,0.1483367556791136
27.364256,2.770610805688894,0.1477878883927303
27.366651999999995,2.7915610828549715,0.1471704015477237
27.36904,2.8180983533797197,0.1463787110709571
27.371424,2.839932574277332,0.1458642066407745
27.373819999999995,2.8562723496148923,0.1456214703327591
27.376208,2.877827031258785,0.1451320233465151
27.378588,2.8967279858502017,0.1447418111180747
27.380987999999995,2.9114849693219256,0.1445470581246371
27.383376,2.925822643913069,0.1444134697286315
27.38576,2.9470977863032406,0.1440043036576573
27.388155999999995,2.971445964626468,0.1434648502357663
27.390544,2.992349019964302,0.1430060119454497
27.392924,3.004731815637271,0.1428510146024375
27.395323999999995,3.021538121683655,0.1424831474107309
27.397712,3.0339681391848674,0.1422441874000212
27.400096,3.047748631126439,0.141928000748527
27.402491999999995,3.065673094187704,0.1414481597647406
27.40488,3.0788019598232177,0.141138482743451
27.407264,3.0942124654588685,0.1407202088668938
27.409659999999995,3.1058983088554064,0.1404168539504229
27.412052,3.124381850424112,0.1398987029795407
27.414432,3.144076096806317,0.1393320822179885
27.416827999999995,3.156832875389494,0.1390068062883869
27.419216,3.171079898039889,0.1385832116303857
27.421596,3.188027869571002,0.1379894570109688
27.423995999999995,3.2012511788630014,0.1375089453471226
27.42638,3.212332617781725,0.1371155756305743
27.428764,3.224624761513946,0.1366640830467466
27.431168,3.2359857396863894,0.1362396858609785
27.433552,3.2454843867392755,0.135876805274164
27.435936,3.2501874363664105,0.1356573484454825
27.438332,3.2587549178595183,0.1353172943474676
27.44072,3.275191032711433,0.1347263642060246
27.443104,3.2897648164437925,0.1341994628237804
27.4455,3.305781622415127,0.1336798161468378
27.447888,3.318865162080267,0.1332528849942364
27.450268,3.3310175361856285,0.1328616590894326
27.452664,3.347313881410684,0.1323402835379595
27.455051999999995,3.365332788128436,0.1318001731782479
27.457432,3.387355896339021,0.1311480514335133
27.459836,3.40137060156394,0.1307380662613778
27.462224,3.4151057675351377,0.130367104880207
27.464604,3.4327053653723083,0.1298951182587614
27.467008,3.449373797649701,0.1294422944659953
27.469396,3.4725603888455425,0.1288558651739166
27.471776,3.4988200159744385,0.1281829777007307
27.474172,3.525219412730195,0.1274873062162662
27.47656,3.550408104672452,0.1268454676998634
27.47894,3.5789493718014858,0.1260954857185952
27.48134,3.6073508693036582,0.1253685595506215
27.483728,3.6446919353512777,0.1244161784437912
27.486108,3.680030900652481,0.1235254407531646
27.488508,3.707361462968015,0.1228573976088397
27.490896,3.7314792197236346,0.1222864646669556
27.53868,3.728219192335476,0.1222837340036506
27.543448,3.717838497408923,0.1222771973979523
27.545848,3.715139444386075,0.1221775977868612
27.548236,3.716165053602339,0.1220057499625061
27.550619999999995,3.719844389871079,0.1217925156170042
27.553016,3.7231044172592367,0.1216214657513289
27.5554,3.7294374805804513,0.1213729404080679
27.557784,3.734839378341888,0.1211389834440466
27.560184,3.743965938342437,0.1208332343342399
27.562568,3.754163433529624,0.1204968069360232
27.564952,3.765943720582648,0.1201526320833055
27.567352,3.7727886405830593,0.1199261269195963
27.56974,3.779913099837192,0.1196753574585167
27.572123999999995,3.787037559091324,0.1194271206441936
27.57452,3.7998887813309854,0.1190620046427292
27.576908,3.8160453569291817,0.1186669152207129
27.579288,3.8331330980871545,0.1182527257363267
27.581684,3.848078968871851,0.1179025356421878
27.584072,3.860091573350352,0.1176165206124427
27.586452,3.872104177828853,0.1173315476140955
27.588852,3.884256551934214,0.1170374015695015
27.591235999999995,3.897060552345633,0.1167539377828551
27.593632,3.9106559486899695,0.116472272336896
27.596032,3.921597617981833,0.1162263689775014
27.59842,3.932167200221358,0.1159469470965618
27.6008,3.940362594662129,0.1156770290417041
27.603196,3.946555888356484,0.1154567698648221
27.605584,3.9570329227973913,0.1151224706575958
27.607964,3.966066934999324,0.1147851413016296
27.610368,3.974589090522058,0.1144277540826286
27.612756,3.981248914925237,0.1141012394925108
27.615136,3.9907022360077486,0.1137271591691505
27.617536,3.997082521157206,0.1134245825940465
27.619924,4.004533741493302,0.1130980637972908
27.622304,4.005606572537809,0.1128647358993316
27.6247,4.004305215783562,0.1126397458475072
27.627088,3.9988598879096218,0.1125129845896331
27.629468,3.993926416714879,0.1124088502458636
27.631864,3.992205751080052,0.112219181679757
27.634256,3.992347416564781,0.1119994867743176
27.636636,3.9951428091019854,0.1117502299186658
27.639032,3.997426344959992,0.1114794172951072
27.64142,3.997847549698441,0.1112396368596824
27.643804,4.001062251116227,0.1109555424271974
27.6462,4.005859744399848,0.1106695014571131
27.648588,4.015173295855501,0.1103260260675289
27.650968,4.023276142497654,0.1100221812723799
27.653368,4.030168284326309,0.1097605260648091
27.655756,4.035570182087746,0.1095606674029229
27.658136,4.040552770968601,0.1093975597084309
27.660532,4.046466525409234,0.1092201131637669
27.66292,4.053311445409646,0.1090308414342079
27.665316,4.066022898022449,0.108738908272638
27.667712,4.074730149142416,0.108525221551572
27.6701,4.090886724740612,0.1082054470893468
27.672484,4.107974465898585,0.1078722047122856
27.674888,4.133629688549666,0.1073381047013306
27.677271999999995,4.159704220081329,0.1067673188933519
27.679656,4.18521967310555,0.1062500029182972
27.682052,4.207801859823576,0.1057868162645981
27.684436,4.223586348369434,0.1054401561417978
27.68682,4.239882693594488,0.1051174700936555
27.689215999999995,4.25790160031224,0.1047838251998429
27.691604,4.2767119029629095,0.1044535351996644
27.693988,4.292309400053664,0.1041960928390123
27.696383999999995,4.304694091584502,0.104012625650453
27.698772,4.31828948792884,0.1037948054788074
27.701152,4.331605345019457,0.1036013662751745
27.703551999999995,4.348134007669989,0.1033387660756866
27.70594,4.369598037373135,0.1030005770016627
27.70832,4.393203937449557,0.102620584207633
27.710716,4.41508727603328,0.102256375900368
27.713104,4.431895477937534,0.1019867621319576
27.715484,4.450566010961343,0.1016921288719685
27.71788,4.465372112119179,0.1014584116392788
27.720268,4.484973810702767,0.1011646196734778
27.722648,4.502154099659358,0.1009437258287244
27.725044,4.520405323802587,0.1007041279396301
27.727432,4.541869353505732,0.1004076886660269
27.729816,4.566406419141932,0.1000623008460184
27.732212,4.5920144199647694,0.0996891322106744
27.734604,4.616179398548632,0.0993060234743861
27.736984,4.635688549333604,0.0989736218500945
27.73938,4.653475138625878,0.0986541113069179
27.741768,4.674754072731788,0.0982535098512456
27.744164,4.693658819038944,0.097848153039727
27.746559999999995,4.709770068666765,0.0974737297647937
27.748948,4.725369461615389,0.0970798540072563
27.751332,4.739897919377374,0.0967112259162767
27.753732,4.745626578220772,0.0964649400109498
27.75612,4.749073597064034,0.096270569393934
27.7585,4.749587349601101,0.0961151176903275
27.760895999999995,4.750240871765028,0.0959485887227868
27.763284,4.753176033929092,0.0957322295052479
27.765664,4.757321900906655,0.0954862658481204
27.768063999999995,4.751736803405855,0.095369178507523
27.777615999999995,4.701227233325957,0.0953189456993923
27.779996,4.6892165247053255,0.0953181391326282
27.782396,4.67892837757739,0.0953081006804804
27.784783999999995,4.67744002936804,0.0951855377044122
27.787164,4.67581191153183,0.0950728999773414
27.78956,4.670039822575926,0.0950258696221654
27.791948,4.669854726978691,0.0949250379125881
27.794332,4.672323358433933,0.094807105887185
27.796728,4.67544361619523,0.0947004998475918
27.799116,4.677492938769891,0.0946129142275742
27.801496,4.686200189889861,0.0944530562338175
27.803892,4.69453535395749,0.0942624943770832
27.80628,4.706734949891095,0.0940254634207553
27.808664,4.721867812130894,0.0937528844754922
27.81106,4.733648099183918,0.0935478059553914
27.813448,4.745288616610082,0.0933546616997152
27.815832,4.761864501088857,0.0930945006204923
27.818228,4.777369450380995,0.0928504172901239
27.820616,4.792874399673131,0.0926086665060513
27.823012,4.814665190458239,0.0922655664272783
27.825408,4.838737621243485,0.0918792000104316
27.827796,4.857083289043201,0.0915573005203334
27.830176,4.8744977912831375,0.0912457992363207
27.832576,4.880179228298294,0.0910755601950886
27.834959999999995,4.888002535686727,0.0908704540582132
27.837344,4.899830044567994,0.090613239380064
27.83974,4.911145696770064,0.0903403255580736
27.842127999999995,4.917805521173241,0.0901058766090932
27.844508,4.921811618523944,0.0898857862895009
27.846903999999995,4.927028420688146,0.0896392124460915
27.849292,4.928939869493815,0.0893973077538908
27.851676,4.929500843859124,0.089190960552863
27.854071999999995,4.931132753411072,0.0889687198823727
27.856463999999995,4.930250705537405,0.088751408180422
27.858844,4.933512628783434,0.088476232691816
27.861239999999995,4.932910120163488,0.0882400904612276
27.863628,4.936172043409515,0.0879666052185007
27.866008,4.9437177074021,0.0876262017183638
27.868404,4.950332205834904,0.0872944033885034
27.870792,4.953594129080932,0.0870242396338209
27.873176,4.952572311580405,0.0868199518612417
27.875572,4.954763299639795,0.0865662951179328
27.87796,4.957885453258962,0.0863062887044293
27.880356,4.967013909117381,0.0859719024951792
27.882756,4.973209098669603,0.0856697884509739
27.885144,4.978473122662049,0.0853773971784767
27.887524,4.977311535534662,0.0851814516601255
27.889924,4.9860206825125,0.0848810046820532
27.892312,4.996592160609893,0.0845659043591621
27.894692,5.003019667587594,0.0843050216884463
27.897088,5.011169736057991,0.0840406744773328
27.899476,5.022392840461444,0.0837372786201983
27.901855999999995,5.033476175238035,0.0834467371850443
27.904252,5.048004633000019,0.083150669527742
27.90664,5.057737493336252,0.0828977019372999
27.90902,5.072265951098238,0.0826030043821477
27.91142,5.08306974662111,0.0823377371152905
27.913808,5.096806808450178,0.0820516509158928
27.916188,5.108541769532828,0.0817854511577779
27.918588,5.119625104309419,0.0815075169718418
27.920976,5.131919143899509,0.0812037793797098
27.923356,5.144864809795657,0.080914986796031
27.925752,5.157810475691806,0.0806281255079557
27.928144,5.174341034200209,0.0803304536839666
27.930524,5.190731823081752,0.0800404409197747
27.93292,5.206191446403515,0.0797582247416686
27.935308,5.231941112711082,0.0793615111054507
27.937692,5.25182424640626,0.0790232827710511
27.940092,5.275851351221131,0.0786438641526341
27.94248,5.304953592715473,0.0782122216532944
27.94486,5.332984899023179,0.0777969996208715
27.94726,5.36380970201022,0.0773736365121074
27.949648,5.392260317198505,0.0769442134719012
27.952028,5.414984169401261,0.0765533225286524
27.954424,5.438499417536935,0.0761635960563346
27.956816,5.459360938620133,0.075782551305294
27.9592,5.478220358956915,0.0754191574517002
27.961604,5.487069275561614,0.0751465442205741
27.963992,5.502064264032422,0.0748145756512079
27.966372,5.513706677316455,0.074526771284303
27.968772,5.527490960973766,0.0742139007287427
27.971156,5.537830121645683,0.0739043071489887
27.97354,5.543513454518709,0.0736167047067911
27.97594,5.543749563659924,0.0733499343065591
27.978328,5.546267312801276,0.0730495109643276
27.980708,5.5435701556362975,0.0728028102638669
27.983112,5.53258505623193,0.0726432500873896
27.985499999999995,5.524533223133758,0.0724623419501699
27.98788,5.510475087796335,0.0723315141817336
27.990284,5.496416952458913,0.0722004469134783
27.992672,5.481567421188571,0.0720647753135023
27.995052,5.461782522865619,0.0719653295308089
27.997448,5.441298776408366,0.071905266625283
27.999835999999995,5.424819231443946,0.0718125114560673
28.002216,5.4115524920394416,0.0716831547570659
28.004612,5.40201041487405,0.0715379007265722
28.007,5.3972639351344105,0.0713654538677793
28.00938,5.398383988007161,0.0711526714561913
28.01178,5.393218199386941,0.0710035558302311
28.014168,5.395269417819471,0.0707876097307083
28.016548,5.394899226625003,0.0706113013928133
28.018944,5.39597205766951,0.070450972860099
28.021332,5.400769550953131,0.0702744840678549
28.023712,5.409151936849004,0.0700913798883419
28.026112,5.41632361793138,0.0699290041706686
28.0285,5.431503701999422,0.0697041572112525
28.03088,5.448034260507824,0.0694501428352886
28.03328,5.460420847896533,0.0692369438576351
28.035668,5.476252558270633,0.0690251346846983
28.038048,5.4868693623384015,0.0688634499441549
28.040448,5.4969270878987295,0.0687333699662059
28.042832,5.506053647899278,0.0686061449241782
28.045216,5.514249042340049,0.0684815266691813
28.047612,5.521373501594181,0.068369536087864
28.05,5.526356090475037,0.0682820730637725
28.05478,5.51550886483966,0.0682564946591286
28.057168,5.509689554055513,0.0682410395081506
28.059552,5.504149782525087,0.0682094597153525
28.061948,5.496328370994522,0.0682087376583556
28.06434,5.490788599464095,0.0681769361280624
28.06672,5.488321863866723,0.068118925444942
28.069123999999995,5.490650725695104,0.0680368731101321
28.071508,5.492048421963705,0.0679586237127163
28.073892,5.495448218978725,0.0678666201352791
28.076288,5.498848015993744,0.0677759152570488
28.078676,5.503690835247739,0.0677022313579504
28.081056,5.506671323382177,0.0676341378156987
28.083452,5.506346458158084,0.067555207099029
28.08584,5.513378369613599,0.0674088517947167
28.088224,5.525904726629167,0.0672026047851294
28.090616,5.540712723644872,0.0669671800623915
28.093004,5.562877497340187,0.0666679547107229
28.095384,5.583040170289085,0.0663814078747765
28.097784,5.602131908051343,0.0661052200174496
28.100168,5.628300883239492,0.0657780337135845
28.102552,5.662618031040169,0.065390560725695
28.104948,5.689997711041815,0.0650485128095562
28.107336,5.722172988469215,0.0646869053733273
28.10972,5.753836409217415,0.0643075199237999
28.112116,5.787501930712035,0.0639208822634218
28.114504,5.819305121087096,0.0635446176240657
28.1169,5.843658986983931,0.0631917805107971
28.119296,5.867221456947847,0.0628358313497012
28.121683999999995,5.889852761351985,0.062485760299873
28.124068,5.907828237957233,0.0621492941054419
28.126464,5.9245004619503625,0.0617887383330928
28.128851999999995,5.9462478226229685,0.0613952545115387
28.131232,5.970928449601768,0.0609889600736454
28.133632,5.991604875087732,0.0606108869999794
28.136019999999995,6.007485703147945,0.0602543018353737
28.1384,6.023086991954438,0.0599131408733541
28.1408,6.033613144081457,0.0596070439426644
28.143187999999995,6.047491871395254,0.0592675867244764
28.145568,6.065794109082463,0.0588883827758404
28.147964,6.0810233108366205,0.0585312481896377
28.150352,6.091317145538165,0.0581991341083127
28.152736,6.103752850612984,0.0578481828770261
28.155131999999995,6.113395059008469,0.0575043410441843
28.15752,6.121966332217316,0.0571692683598592
28.159904,6.126673173560189,0.056848544699331
28.162299999999995,6.129657453410365,0.0565242360892569
28.164688,6.137437330686294,0.0561867042190731
28.167068,6.140561380163331,0.0558534514417083
28.169464,6.139820997774394,0.0555313104562671
28.171852,6.140942946505015,0.0552060742380656
28.174236,6.140993960048997,0.0548878510835189
28.176632,6.136109606540366,0.05458879747724
28.179024,6.128943613031598,0.0543126880381106
28.181404,6.120986223589914,0.0540301561672113
28.1838,6.111818129334727,0.053761104564093
28.186188,6.102929574333265,0.053478018625487
28.188572,6.0949721848915805,0.0531943307927734
28.190968,6.08873735694259,0.0529174120662727
28.193356,6.077147853060408,0.0526786526446078
