Time,Force,Position
6.9666,2.099158024480561,0.1811947962940114
6.968996000000001,2.193096135498731,0.1780218059309669
6.9713840000000005,2.278004026030708,0.1751145390542872
6.973763999999999,2.3611912509278574,0.1721462215003787
6.976156,2.440096630936321,0.1692472164813648
6.978539999999999,2.512298756429104,0.1666353890155552
6.980920000000001,2.5770062314732853,0.1643616087616879
7.02394,2.710725602126277,0.1643304515245733
7.026347999999999,2.715054668843205,0.1642953349254785
7.0287320000000015,2.724179332985885,0.1640687506429795
7.031112,2.7386114512335147,0.1636577639628014
7.033515999999999,2.755837066160479,0.1631350954972385
7.035903999999999,2.774133616274081,0.1625419234581055
7.038284000000001,2.797924611947737,0.1616354017924437
7.040687999999999,2.8161286142627224,0.1609316326933464
7.043071999999999,2.833960529525371,0.1601890884114953
7.0454560000000015,2.8483473218026263,0.1595362450111558
7.04786,2.861942718146964,0.1588965809065121
7.050243999999999,2.878750920051217,0.1581044882993332
7.052624000000002,2.8899721285968,0.1575447270030861
7.055015999999998,2.898399840463048,0.1571033065772375
7.057403999999998,2.904685681956019,0.1567812529508762
7.0597840000000005,2.91083175382213,0.1564738318703521
7.0621800000000015,2.9188401568077973,0.1560893252054207
7.066952000000001,2.923543206434932,0.1558015858371299
7.069344000000001,2.924242054569233,0.1557031434813814
7.071732000000001,2.925639750837836,0.1555068321176405
7.074124000000001,2.9253148856137408,0.15536470784947
7.076519999999999,2.922755602217752,0.1552483032299277
7.078907999999998,2.922617728448761,0.1549947309686923
7.081288000000001,2.9221077676274323,0.1547008313365074
7.083691999999999,2.926021317179518,0.1541958808346961
7.086079999999999,2.926861830798549,0.1538214569746373
7.088460000000001,2.9338484162836904,0.1531841990513698
7.090864,2.9413468584480293,0.1525737905294082
7.15776,2.7685223260000877,0.1518676262844379
7.160139999999998,2.778810473128023,0.1517101605149914
7.1625440000000005,2.79226420398763,0.1515022063407347
7.164932,2.807021187459354,0.1513044863751244
7.167311999999999,2.8194965309309405,0.1512243864522092
7.169708,2.8367674718282787,0.1509663738067548
7.172096,2.8571114486586726,0.1505614524977454
7.174475999999999,2.8795500740341,0.1501562781530432
7.176880000000001,2.903851030529085,0.1496796805908073
7.179268,2.930945483703403,0.1490923690149543
7.181647999999999,2.9609732031839178,0.1484007272080068
7.184044,2.994073958597488,0.1475984824739483
7.186432,3.029456354011194,0.1466731935973026
7.188811999999999,3.063488274984542,0.1458400592430015
7.191216000000001,3.09738042633103,0.1450353014097174
7.1936040000000006,3.1309930384237967,0.1442860003377144
7.195979999999999,3.162324010516427,0.1436569827803253
7.198384000000001,3.1899303203699443,0.143178982096434
7.200772000000001,3.2148829031709867,0.1427699110124822
7.203151999999999,3.233549644479057,0.1426324768954462
7.205548,3.256919435414263,0.1422784174070246
7.207936,3.276983872990937,0.1419972877302093
7.210315999999999,3.295745057955494,0.1417057011247791
7.212712,3.315065321427492,0.1413512992360675
7.215095999999999,3.340019800086403,0.1407704903008341
7.217476000000001,3.363111947625758,0.1402445438555812
7.219871999999999,3.390208296657946,0.1396001661978583
7.222256000000002,3.4150702275182403,0.1389679545618582
7.224636,3.442493337632392,0.1382246505411603
7.227052,3.46740249032093,0.1375166620843886
7.229436,3.486584880023937,0.1369697378644774
7.2318159999999985,3.5012512115549126,0.1365364281419185
7.234211999999999,3.513635903085751,0.1361962579971556
7.236595999999999,3.527510838683809,0.1357727188361799
7.238992,3.53938367353545,0.135410018774877
7.241388000000001,3.5488823205883366,0.1350738329990301
7.243776,3.5600109813353025,0.1346384500286808
7.246155999999999,3.568066606149213,0.1343033564934657
7.248560000000001,3.580266202082817,0.1338317341854451
7.250948000000001,3.5968893083898363,0.1331959253538689
7.253328,3.607226573203884,0.1327833509654299
7.255731999999998,3.616632672458153,0.1323961933530412
7.258119999999998,3.629903203578397,0.1319146475310203
7.2605,3.641171633952223,0.1314922108542706
7.262903999999999,3.643360726153743,0.1313401015184477
7.265287999999998,3.6496937894749566,0.1310629595431998
7.267668,3.6545838305571934,0.1307922447927222
7.270075999999999,3.663338303505407,0.1304306753838728
7.272459999999999,3.669019740520564,0.1301608081763946
7.274840000000001,3.679776314215192,0.129755544181861
7.277239999999999,3.69667895977593,0.1291812505077937
7.279623999999998,3.71344183570981,0.1286169706754078
7.282008000000001,3.7316949557109087,0.1279757078921443
7.2844039999999985,3.7507394716449247,0.1273391029240942
7.286788000000001,3.773276332392577,0.1265806455178084
7.289172000000001,3.799957164259923,0.1257177969449552
7.291568000000002,3.824496125753992,0.1249218905398432
7.293952000000001,3.85024579206156,0.1240703083372045
7.296332,3.8721310265031543,0.1233171773463452
7.298736000000002,3.888801354638417,0.1227145656207871
7.3011240000000015,3.9038888909078415,0.1221116173696775
7.351284,3.8013889859701706,0.121534567703556
7.353680000000001,3.802971777836007,0.1215267350964115
7.356076000000002,3.8084190015678168,0.121440440377227
7.358460000000001,3.812236211605548,0.1214346845416488
7.360844,3.821500645375088,0.1213431538152537
7.363240000000001,3.8318360143312655,0.1212190962731405
7.365628000000001,3.843893944780141,0.121071243426977
7.368008,3.863680738960964,0.1207620347454233
7.370404000000001,3.8833277635149255,0.1204635421823005
7.372792,3.9025554791883055,0.1202018814191113
7.375167999999999,3.923785295608104,0.1198967104442685
7.377564,3.947808608707237,0.1195475502275087
7.379947999999999,3.972483548112428,0.1192035546387966
7.382328000000001,3.9948768475174816,0.1189264682526418
7.384744000000001,4.015827124683559,0.1186392625896719
7.387128000000001,4.036497862595916,0.1183812932885228
7.389507999999999,4.051441837522744,0.118240552944825
7.391912000000001,4.068807222076567,0.1180159916200778
7.394296000000001,4.081888865883839,0.1179129063825068
7.396675999999999,4.092968408944692,0.117859129505487
7.399080000000001,4.105118887192184,0.1177772583339316
7.403848,4.121970519208942,0.1177475153333234
7.4062519999999985,4.131095183351621,0.1176727556889975
7.408636000000001,4.135703789322269,0.1176648523105047
7.411016,4.142594035293056,0.1175889612818657
7.413419999999999,4.153256165331198,0.1173838369049224
7.415807999999998,4.155817344585056,0.1172928972394157
7.418188000000001,4.162150407906269,0.1170744891441697
7.420584000000002,4.167180218615368,0.1168360322919645
7.4229720000000015,4.171418633391548,0.116603215927233
7.425352,4.172863551488394,0.1164163936628961
7.427751999999998,4.175938483279317,0.116156652708604
7.430136000000001,4.182785299137599,0.1157701010586018
7.43252,4.191494446115437,0.1153520907958547
7.434916000000001,4.197829405294519,0.1149414842964803
7.437304000000001,4.210030897085994,0.1144199370799219
7.439684,4.221301223317688,0.1139194552031774
7.442080000000001,4.234992959176383,0.1133431137425929
7.444464,4.248172838355878,0.1127491618818039
7.4468640000000015,4.262283883095151,0.1121475263934395
7.449259999999999,4.275463762274646,0.1115581388228993
7.451647999999999,4.287712475894364,0.1109821510259174
7.454028000000001,4.297819319140804,0.1104613282249499
7.456431999999999,4.311650824626356,0.1098863466643766
7.458819999999999,4.326133956417968,0.1093269370627882
7.461200000000002,4.33819567858258,0.1088489782741178
7.463604,4.354493919665504,0.1083351754586009
7.465987999999999,4.366228880748155,0.1079469910588847
7.468367999999998,4.383830374443194,0.1074634449922887
7.470763999999999,4.402083494444292,0.1069953379246176
7.473151999999999,4.421919406311227,0.1065273613462984
7.475532000000001,4.444129505976916,0.1060650902427222
7.477936,4.465640757508304,0.1056623374510814
7.480323999999999,4.4882229442263295,0.1052388329963194
7.482703999999998,4.517183520235944,0.1047501377798598
7.485108,4.543722686618561,0.1043341578591889
7.487496,4.56891137856082,0.103963771770231
7.489875999999999,4.5938205312493565,0.1036186059304851
7.492272,4.618030835803593,0.1033268503692464
7.49466,4.641170205171191,0.1030608049662463
7.497043999999999,4.6689654023376805,0.1027429957614648
7.499448000000001,4.69648106025045,0.1024435063478314
7.501832,4.725207422976716,0.1021148220475354
7.504215999999999,4.75086074976993,0.1018411234502374
7.506612,4.774791515070445,0.1015816706841328
7.508996,4.795369705184185,0.101394071975788
7.511379999999999,4.817158600111423,0.1011776675723222
7.513776,4.838947495038663,0.1009583191022071
7.516164,4.855661253286429,0.1008275507771352
7.518543999999999,4.868650349295083,0.1007394458449336
7.520944,4.8800566534379,0.1006530374396791
7.523332,4.884944798662269,0.1006407195676052
7.525715999999999,4.890252252767218,0.1005984490192881
7.5305,4.8962113331782255,0.1005666574066572
7.532879999999999,4.896490872431946,0.1005468482816548
7.535276,4.897981116499166,0.1004973463948249
7.537663999999999,4.900821835006743,0.1004091494984125
7.540043999999998,4.904221632021762,0.1002817446182804
7.542439999999999,4.906038637170945,0.1001544722614522
7.544827999999999,4.903479353774957,0.1000567278538367
7.547208000000001,4.9059952070584405,0.0998830719586851
7.549612,4.908231521088204,0.0997295450672062
7.552,4.912609705491244,0.0995381003718992
7.554379999999998,4.916056724334506,0.0993558495861744
7.556784,4.923927253551183,0.0990878819993709
7.559172,4.93207732202158,0.0988043540589433
7.561551999999999,4.946513231984947,0.0984231326143843
7.563948,4.962951242694732,0.0980148782996285
7.566336,4.984324620457129,0.0975449983568777
7.5687159999999984,5.004906602286606,0.0970749761968034
7.571116,5.029492785608919,0.0965487737323953
7.573499999999999,5.0510059329981765,0.0960681686856329
7.5758800000000015,5.070796518894738,0.095599926861635
7.578279999999999,5.096453637403688,0.0950652062797806
7.580663999999999,5.122110755912639,0.0945357432141523
7.583044000000001,5.14790764404845,0.0940016295385712
7.585447999999999,5.1675584603181495,0.0935536902306943
7.587831999999999,5.18720927658785,0.0931076513330498
7.590212000000001,5.207651488790468,0.0926628026935819
7.592616,5.23237744173964,0.0921549056085102
7.595003999999999,5.252587336516782,0.0916844686711378
7.597383999999998,5.267489777188974,0.0912401688652021
7.599788,5.281740591555107,0.0907881466023681
7.602176,5.29585163629438,0.09034354855504
7.604555999999999,5.307308953981179,0.089916147585551
7.606960000000001,5.315041609428866,0.0895213664687967
7.609348000000001,5.316116336331244,0.0891918428821257
7.611727999999999,5.316539436927562,0.0888528768608615
7.6141320000000015,5.313098105657907,0.088553225659575
7.616520000000001,5.311658875134671,0.0882305514035126
7.6189,5.307426147932097,0.0879288809853049
7.6213039999999985,5.307477161476079,0.0875638517355762
7.623691999999998,5.30766794464692,0.0871905186482579
7.626072000000001,5.303063130392011,0.0868623218368929
7.628475999999999,5.296735754644404,0.0865388804295071
7.630863999999999,5.287475112590601,0.0862435912697574
7.633244000000001,5.283149837589413,0.0858959075504864
7.635639999999999,5.277613857774724,0.0855719476818875
7.6380279999999985,5.269144611653841,0.0852756203023022
7.640408000000001,5.253970215159405,0.0850895975773212
7.642803999999998,5.237445344224612,0.0849357681596611
7.6451920000000015,5.228369797768044,0.084727169866386
7.647572,5.217943776871118,0.0845512373633643
7.649968000000001,5.207005899294994,0.0843544222646635
7.652356000000001,5.197790583211567,0.0841525706563328
7.654736,5.190018289367115,0.0839633384490219
7.657132000000001,5.180615981828584,0.0838243474571284
7.65952,5.173587862088807,0.0836922897477329
7.661899999999999,5.165488807162392,0.0835752892675972
7.664296,5.152966241862563,0.0835295610685253
7.676235999999999,5.097194543648088,0.0834883647037372
7.678632,5.091375232863941,0.0834883508605802
7.68102,5.084764526146876,0.0834853872431423
7.683399999999999,5.082158020922645,0.0834397524381477
7.685796,5.083276177937526,0.0833691251965204
7.688184,5.08946947163188,0.0832404337468013
7.690563999999998,5.100458362751985,0.0830721887175006
7.692959999999999,5.110236549058592,0.0829301153064205
7.695347999999999,5.124158706484893,0.082739298082527
7.6977319999999985,5.143248548389282,0.0825407412421149
7.700127999999999,5.162990016599731,0.0823559463499655
7.702515999999999,5.183662650369958,0.0821658823672674
7.7048960000000015,5.210621125633155,0.0818984646637812
7.707291999999999,5.2339947082841,0.0816475572669726
7.709679999999999,5.259370391681461,0.0813755738806546
7.712060000000001,5.293825413251128,0.0810120829251341
7.714472000000001,5.329863226686631,0.0806561753745907
7.71686,5.363619400121997,0.0803396458963434
7.719239999999999,5.39951744393064,0.0799981014455441
7.721636,5.438208984418618,0.0796407840321319
7.724024,5.476528437854259,0.0792564112127837
7.726407999999999,5.5097727546104265,0.0789265161475331
7.728804,5.543668697672653,0.0786099558963213
7.731192,5.574631374428684,0.0783221142859526
7.733571999999999,5.608946626371492,0.0779919414067037
7.735976000000001,5.640608151261824,0.0776716532118412
7.738364000000001,5.667613848353263,0.077378658456173
7.740743999999999,5.691965818392229,0.0770938464190558
7.743144000000001,5.711242651751723,0.076860015046958
7.745532000000001,5.726794822872104,0.0766479169859373
7.747911999999999,5.742626533246205,0.0764223966117609
7.750308,5.760739883620443,0.0761667002559343
7.752696,5.774569493248126,0.0759626036657613
7.755075999999999,5.789470038062449,0.0757463500263948
7.757476,5.804370582876771,0.0755306105161266
7.75986,5.812752968772645,0.0753495174266289
7.762243999999999,5.819692332429543,0.0751548699823866
7.76464,5.825980069780383,0.0749487806986669
7.767028,5.82840337526525,0.0747680961232116
7.769424000000001,5.827241788137863,0.0745970061788912
7.771816000000001,5.826080201010477,0.0744260195469497
7.774204000000001,5.829062585002784,0.0742150426688236
7.776584,5.833535213062311,0.0739708198405296
7.778984000000001,5.83721644518892,0.0737230158360358
7.781372000000001,5.8339602095165,0.0735272585597453
7.783752,5.829493269030582,0.0733499549455518
7.786155999999998,5.830101465224136,0.0731301562995707
7.788540000000001,5.8329913014178265,0.0728800826686777
7.790924,5.8408165046641285,0.072596095579222
7.793320000000001,5.849061016791011,0.0722899434673948
7.795704000000001,5.852370161865283,0.072017868720401
7.798088,5.848741839140525,0.0717948839989592
7.800484000000001,5.848605861229403,0.071523348215238
7.802868,5.84846988331828,0.0712520642900582
7.805247999999999,5.854479977273269,0.0709327011099808
7.807652000000001,5.860210531974539,0.0706277435349677
7.810040000000001,5.866080856302667,0.0703160833276143
7.812419999999999,5.8722307198845165,0.0699890963913521
7.814820000000001,5.883176180892118,0.0696387420819176
7.817204,5.896403281899856,0.069259271979722
7.819587999999999,5.908559447720956,0.0688906572682588
7.821984,5.920855383168915,0.0685184486346697
7.824372,5.92900734749718,0.0681821106989405
7.826768000000001,5.939952808504781,0.0678377398688701
7.829163999999999,5.954622931751495,0.0674801802827915
7.8315519999999985,5.976090753170379,0.0670889830936749
7.833932000000001,5.990341567536513,0.0667558754319448
7.836335999999999,6.00217097227565,0.0664588318890918
7.838719999999999,6.010135945148812,0.0661823639243767
7.841100000000001,6.015959047648698,0.0659258612435676
7.843495999999998,6.02364448126814,0.0656618097076376
7.845884000000002,6.039058778619529,0.065360276509264
7.848264,6.052051666343921,0.0650955657079419
7.850663999999998,6.065835950001231,0.0648364237277978
7.853048000000001,6.068399025112959,0.0646590096143842
7.855428,6.073755596904022,0.0644739231430321
7.857828000000001,6.079763795001141,0.0643012514003278
7.860212000000001,6.086283849777458,0.0641474968532309
7.862591999999999,6.088008307128024,0.0640143637912457
7.864992000000001,6.091036017090705,0.0639052590447648
7.867376,6.094063727053386,0.0637959153113427
7.869755999999999,6.0930872355232335,0.0637108624574475
7.872171999999999,6.095695636605334,0.0636231418243372
7.874555999999998,6.097233102500796,0.063545457356881
7.876936000000001,6.09797917246334,0.0634633105538216
7.879339999999999,6.092067313880576,0.0634046703425414
7.881727999999999,6.091882218283343,0.0633250241168248
7.884108000000001,6.094770158619164,0.0632246498971732
7.886503999999999,6.098729034141623,0.0631150081583409
7.8888919999999985,6.108414672649614,0.0629856420342014
7.891272000000001,6.1226635911578775,0.0628073470022149
7.893675999999999,6.132116912240392,0.0626479677585574
7.896063999999999,6.143991642949901,0.0624581599187998
7.898444000000001,6.154143812166716,0.0622660332784797
7.900839999999999,6.170581822876501,0.0620261498572283
7.903227999999999,6.182224236160533,0.0618031050885902
7.905608000000001,6.192144087951869,0.0615776787687507
7.908011999999999,6.204205810116481,0.061335675737943
7.910395999999999,6.221202899333707,0.0610715793808061
7.912776000000001,6.235546261498459,0.0608070315237745
7.915179999999999,6.253754055529183,0.0605297788924013
7.917567999999999,6.273824180679462,0.0602484137794038
7.9199480000000015,6.29165988765785,0.0599468723652819
7.922343999999999,6.306841867583762,0.0596441401810008
7.924731999999999,6.324957113815869,0.0593321579439099
7.927112000000001,6.345354000048114,0.0589968601274561
7.929511999999999,6.364587403295103,0.0586337293621129
7.931895999999998,6.383029410609174,0.0582686251605739
7.934276,6.401471417923245,0.0579046165315549
7.9366720000000015,6.415257597438425,0.0575506554977071
7.939060000000001,6.425551432139967,0.0572367672510207
7.941455999999999,6.438126906841648,0.0569014693265768
7.943852,6.44842074154319,0.0565902498607365
7.946235999999999,6.458714576244732,0.0562787783817805
7.948616000000001,6.4700793461329145,0.0559622779743595
7.95102,6.487729957514068,0.0556077455727566
7.953408,6.508313835201415,0.055245381716624
7.955787999999998,6.526383755463148,0.0548754109921916
7.958183999999999,6.541799948672407,0.0545052770738169
7.960571999999999,6.556564515575609,0.0541225312913034
7.962955999999998,6.569886060239832,0.0537262308484193
7.965351999999999,6.581624813038221,0.0533185143315783
7.967739999999999,6.592804487329169,0.0529357954055213
7.970120000000001,6.606917427926311,0.0525450094432436
7.972524,6.614232670351286,0.0521718858810102
7.974912,6.622990935015236,0.0518182697566336
7.9772919999999985,6.63398361785108,0.0514905009356418
7.979687999999999,6.639901164007452,0.05118334001327
7.982075999999999,6.644747774977185,0.050882887589378
7.9844560000000016,6.64866322038714,0.0505820556306554
7.986851999999999,6.651647500237317,0.0502814473329631
7.989239999999999,6.65034803934094,0.0500072320538339
7.991624000000002,6.64425298101881,0.0497394733526244
