Time,Force,Position
5.934907999999999,2.750434630953581,0.1555429946522498
5.937295999999999,2.763656044387712,0.155225549879153
5.939676,2.77929886744884,0.1547391226692416
5.94208,2.7912170282708555,0.1544005778059476
5.944463999999999,2.796756799801281,0.1542914898192005
5.946844,2.803367506518347,0.1541291759441165
5.949248,2.809698673981692,0.1540065915831009
5.951631999999999,2.81989427331101,0.1537343921615152
5.954016,2.830229642267189,0.1534356585428283
5.956411999999999,2.833767313051199,0.1534186148839301
5.958796,2.8418682638354835,0.15314452548034
5.96118,2.8490380490599896,0.1529023821103275
5.963575999999999,2.857930395777192,0.1526102795412357
5.96596,2.8709667136140884,0.1521187607990058
5.968355999999999,2.879998829958151,0.1518076348275654
5.970752,2.889822342235132,0.1514888014352407
5.97314,2.8984823715268577,0.1511403006507991
5.97552,2.905280069699026,0.1508674765514195
5.977923999999999,2.90900473193814,0.150738408295173
5.982691999999999,2.9133810204833104,0.1506131892006508
5.985091999999999,2.915103581976007,0.1505682378917834
5.987480000000001,2.920038949028619,0.1503743884817474
5.989859999999999,2.9252538553349514,0.1501409673790602
5.992256,2.9343331935072574,0.1497564116158
5.994644,2.940898574253949,0.1494329329686795
5.99942,2.9424360401494107,0.1492245843068762
6.001803999999999,2.9435541971642927,0.1490749046200719
6.004184,2.9506786564184244,0.1486723220861331
6.0065800000000005,2.9555214756724197,0.1483975077543324
6.008968,2.9631577916057497,0.1480285069199365
6.011364,2.97065433791222,0.1476811916961338
6.01376,2.97694017940519,0.1474074994047558
6.071103999999999,3.044388241726856,0.1473087924812938
6.073491999999999,3.046809651353854,0.147179747633245
6.075867999999999,3.0482998954210734,0.1470803674107361
6.078271999999999,3.049370830607712,0.147034460907713
6.080659999999999,3.0627339095265715,0.1465119066555364
6.08304,3.072232556579458,0.1461122282141371
6.0854360000000005,3.0872256491923973,0.1454611735562843
6.087824,3.1027778203127774,0.144747079859151
6.090203999999999,3.1187493003137385,0.1439893589023467
6.092607999999999,3.131228435501064,0.1434070035994807
6.094992,3.145290362554225,0.1428087542133748
6.097376,3.163216721473359,0.1420905110596511
6.099771999999999,3.181794706698552,0.1413797042443069
6.1021600000000005,3.1962287208040507,0.1408304666748052
6.104539999999999,3.211314361215607,0.1402925428925574
6.106936,3.225980692746583,0.1398111885733096
6.109324,3.241810507262814,0.1393567177851462
6.1117040000000005,3.255358681778908,0.1389919561289452
6.114104,3.265461733309609,0.1387042349751679
6.116492,3.2767754896538093,0.1383620948228506
6.1188720000000005,3.2930246130506213,0.1378661948879011
6.121268,3.3124393201791054,0.1373477365615639
6.123656,3.332785192867368,0.1368067343376119
6.1260520000000005,3.3540622311154094,0.1362497895860435
6.128448,3.364397600071588,0.1360533519879145
6.130836,3.383952076826933,0.1355509937324655
6.133216,3.401783992089581,0.1350940775419311
6.135611999999999,3.4194761377253693,0.1346602184424256
6.137999999999999,3.435957578547659,0.1342837143184691
6.14038,3.4556518249298644,0.1337949030491791
6.142779999999999,3.474834214632872,0.1332920254454533
6.145164,3.4880103020966287,0.1329668347815915
6.147543999999999,3.5046787343740213,0.1325119695399945
6.14994,3.5252115985173877,0.1319544442906843
6.152328,3.546815397847392,0.1313699622240285
6.154723999999999,3.5688385060579773,0.1307484818360256
6.15712,3.592771167216363,0.1300124618029588
6.159508,3.626574562479972,0.1290162715703027
6.161888,3.662891915169195,0.1279809363126876
6.164283999999999,3.695065296738725,0.1270754654229142
6.166671999999999,3.719370044949448,0.1263881911773627
6.169052,3.7388791957344183,0.1258242402909746
6.171447999999999,3.760250677638946,0.125230534556847
6.1738360000000005,3.779759828423917,0.1246812070397402
6.17622,3.80406457663464,0.1240098549400556
6.178612,3.821571626673194,0.1235202390705468
6.180996,3.836797036711611,0.123110969695527
6.183392,3.849880576376751,0.1227673940591702
6.185788,3.8628243464150303,0.1224369490629412
6.2479000000000005,3.969517340158507,0.122395099150315
6.250303999999999,3.971891527957261,0.1223812362592198
6.252692000000001,3.976966664636733,0.122255433108938
6.2550680000000005,3.984043902062623,0.1220821595229263
6.257471999999999,3.994194175421567,0.1218347507120969
6.259859999999999,4.005694923220871,0.1215391060432722
6.262239999999999,4.014541943967699,0.1212819718796002
6.264644,4.024739439154886,0.1209699750949111
6.267027999999999,4.035868099901852,0.1206411502928064
6.269407999999999,4.050209566208734,0.1202299875365193
6.2718,4.063759636582697,0.1198275695046754
6.274183999999999,4.081453678076354,0.1193279919124157
6.27658,4.094491891771121,0.1189132851954835
6.278975999999999,4.107018248786687,0.1184805631395043
6.281363999999999,4.1190327491230585,0.11803551358424
6.283744,4.134632142071681,0.1175429873063477
6.286148,4.155725980580358,0.1169072595240069
6.288531999999999,4.174957487969478,0.1162988447800067
6.290912,4.201545772038207,0.1155124963641486
6.293316,4.227342660174019,0.114732882390024
6.295699999999999,4.254070713869608,0.1139535768691123
6.298084,4.285594364990949,0.1130954856572603
6.300484,4.310040778686401,0.1123824105376969
6.302872,4.332624861262296,0.1117000077444914
6.305252,4.352275677531997,0.1110808118186354
6.307656000000001,4.367782522682003,0.1105578658770305
6.31004,4.384080763764928,0.1100315961823198
6.31242,4.400099465594132,0.1095296788015021
6.314816,4.416118167423336,0.1090289452067918
6.317203999999999,4.430274538132982,0.108563585491786
6.319584,4.443639512909712,0.1081030806943064
6.321984,4.455281926193745,0.1076649953242321
6.324371999999999,4.466924339477778,0.1072252454885111
6.326752,4.4813602494411455,0.1067540953058008
6.329147999999999,4.489789857165263,0.106390708799007
6.331535999999999,4.497707608210184,0.1060105128129912
6.333915999999999,4.502412553695187,0.1057037803340888
6.33632,4.511773326979083,0.1053385038308623
6.338703999999999,4.513917093210229,0.1051110278367986
6.341088,4.516480168321955,0.1048516215717579
6.343492,4.510522983768817,0.1047083599882756
6.345876,4.500049741043648,0.1046123540755997
6.40322,4.328088297890679,0.104407657652564
6.405599999999999,4.33218504718213,0.1043943158276762
6.408003999999999,4.339354832406635,0.1043274422842093
6.410388,4.343731120951807,0.1042938759036781
6.412767999999999,4.356115812482647,0.1041301203251045
6.415164,4.3723649358794585,0.1039112928732801
6.417547999999999,4.394480591888661,0.1036012003325839
6.419928,4.419529514204058,0.1032487302319741
6.422327999999999,4.449513803572068,0.1028154432347014
6.424712,4.477635761820522,0.1024047493343863
6.427108,4.506037259322693,0.1019724032427533
6.4295040000000006,4.530574324958893,0.101595265792848
6.431888,4.560838153580624,0.101143699346929
6.434268,4.588588024776739,0.1007136232848771
6.436671999999999,4.614615334480159,0.1002940044073806
6.439056,4.639851248250659,0.0998839763602404
6.441436,4.666158097207799,0.0994579406389417
6.443839999999999,4.692464946164938,0.0990347868404484
6.4462280000000005,4.720913665495355,0.0985653665644608
6.448607999999999,4.748431219265993,0.098114082793228
6.451012,4.776368081917212,0.097637208066463
6.453396000000001,4.801511447889095,0.097200557105421
6.455775999999999,4.81957757643509,0.0968751548901701
6.458172,4.837783474607945,0.096538109599223
6.46056,4.849983070541549,0.0962923966378803
6.462940000000001,4.86073964423618,0.0960381369205771
6.465343999999999,4.869773656438112,0.0957943920831796
6.467731999999999,4.879878603826682,0.0955356971566182
6.470111999999999,4.886398658602999,0.0953038745908955
6.472508,4.896783145245289,0.0950276278225577
6.474896,4.90716763188758,0.0947519530584434
6.477275999999999,4.919973528156867,0.0944183881791073
6.479679999999999,4.933338502933596,0.0940554977303771
6.482067999999999,4.943630441777271,0.0937373591441426
6.484448,4.957926582113779,0.0933683071040518
6.486852,4.972222722450287,0.0930044539242666
6.48924,4.982514661293961,0.0926926091063471
6.49162,4.988150772338743,0.0924203570858666
6.494015999999999,4.995788984129943,0.0921234964881452
6.496403999999999,5.00421859185406,0.0918305425327581
6.498784,5.013439595511095,0.0915420943590895
6.501179999999999,5.018516628048436,0.0913123853408639
6.5035680000000005,5.027737631705471,0.0910217169648353
6.505944,5.04189400241512,0.0906761738587571
6.508347999999999,5.056841769057685,0.0903290132476988
6.510739999999999,5.073232557939226,0.0899967585977204
6.513115999999999,5.0934877786867405,0.0896290184661141
6.515512,5.109878567568282,0.0893041836680986
6.517896,5.132135889062215,0.0889194451724721
6.520292,5.149877152384116,0.0885652056947252
6.522695999999999,5.167758185332877,0.0882031584115685
6.52508,5.185219909401058,0.087869374422381
6.5274600000000005,5.195185087162767,0.0876507343753041
6.529863999999999,5.209014696790451,0.0873947143545957
6.532248,5.220981975298578,0.0871564698354154
6.5346280000000005,5.22987621787365,0.0869578028672675
6.537024,5.243054201195275,0.0866966304800552
6.539407999999999,5.265171753062346,0.0863406200016128
6.541788,5.286637678623361,0.0859783918469479
6.544192,5.3054498771319,0.085629561923841
6.54658,5.321328809334244,0.085311052222938
6.54896,5.345216144522254,0.0849084359932184
6.551364,5.369894875643183,0.0845124484918971
6.553748,5.389638239711502,0.0841695004643334
6.556128,5.413805114153234,0.083762498015816
6.558523999999999,5.434107556728992,0.0833881049960817
6.560911999999999,5.447752070759442,0.0830666988434751
6.563292,5.459534253670334,0.0827552593182946
6.565687999999999,5.466241299901755,0.0825017581439151
6.5680760000000005,5.473599972439234,0.0822579742326167
6.570455999999999,5.479747940163214,0.0820369618192951
6.572852,5.488037778260472,0.0817884658637397
6.57524,5.498609256357866,0.0815001642192309
6.577635999999999,5.507458172962564,0.0812172301621556
6.580032,5.513094284007346,0.080977095002854
6.58242,5.519801330238767,0.0807222307639456
6.5848,5.525297671656688,0.0804921908344167
6.587196,5.5246479412084994,0.0803317714077681
6.589579999999999,5.520645635573536,0.0802213904778753
6.591959999999999,5.517294956244629,0.0801218346468297
6.594356,5.514595903221781,0.0800331926031045
6.59674,5.506030317586541,0.0799945933084715
6.599136000000001,5.494811004898826,0.0799637219538118
6.603924,5.474327258441575,0.0799335463754417
6.606307999999999,5.4666928383661135,0.0798884140109942
6.608712,5.463062619783488,0.0798055531386179
6.611095999999999,5.464088228999753,0.079696352299933
6.613476,5.46911803970885,0.0795506606504186
6.61588,5.480293922284058,0.0793439943336399
6.618263999999999,5.499478207844934,0.0790696448632696
6.620648,5.51880226303267,0.078791516136817
6.623043999999999,5.541199354153463,0.0784854393112576
6.625428,5.563596445274255,0.0781808921630649
6.627812,5.588275176395184,0.077842340921817
6.630216,5.612814137889254,0.0775120917423152
6.632599999999999,5.634419833077128,0.0772034423418315
6.63498,5.655094362705223,0.0768974541628919
6.637375999999999,5.6820547338262894,0.0765265077686467
6.63976,5.709154874574216,0.0761481341781924
6.642143999999999,5.737745259389363,0.0757354257273107
6.64454,5.766195874577649,0.075329296487685
6.646923999999999,5.79743998644527,0.0749123129342287
6.649304,5.824028270513999,0.0745173149628714
6.651699999999999,5.852758424956005,0.0741002171909537
6.654087999999999,5.876692981972259,0.0737148449479807
6.656484,5.898345898988377,0.0733630095969542
6.658879999999999,5.921209520817992,0.0729965852936612
6.661267999999999,5.939277545221857,0.0726609025430794
6.663647999999999,5.950408101826691,0.0723804047044665
6.666044,5.950596989139665,0.0721840174872578
6.668432,5.946641905332943,0.0720262922684509
6.670811999999999,5.937471915219889,0.071918296851825
6.673215999999999,5.929233090666615,0.0718061730749487
6.6756,5.923787762792674,0.0716827614085084
6.677979999999999,5.919832678985953,0.0715257447200316
6.680376,5.918019465552509,0.0713458401426285
6.682759999999999,5.922212554358314,0.0711222085874696
6.685156,5.919468175365092,0.070946857198416
6.687551999999999,5.916072170065811,0.0707599744912803
6.689939999999999,5.910394524766393,0.0706023427630172
6.69232,5.9079296850268905,0.0704122839403758
6.694724,5.897316672674861,0.0702863866795172
6.697107999999999,5.890847631442524,0.0701235479523531
6.699488,5.881445323903994,0.0699785751566945
6.701883999999999,5.878700944910772,0.0698023267895402
6.704268,5.879029601850605,0.0696015542829099
6.706648,5.874283122110966,0.0694398132271501
6.709048,5.870467807931105,0.0692740471236659
6.711431999999999,5.869445990430578,0.0690981630760492
6.713828,5.872568144049746,0.0688856071702826
6.716231999999999,5.876901002482412,0.068653885338093
6.718616,5.883375731288356,0.0683987768651941
6.720996,5.8898504600943,0.068145131358661
6.723392,5.893671461847769,0.0678957033272849
6.725779999999999,5.898004320280436,0.0676670620904659
6.72816,5.90298880501916,0.0674506518930907
6.730564,5.9030379227052725,0.0672653932060383
6.732952,5.906811702630497,0.0670676665843108
6.7353320000000005,5.914961771100895,0.0668712265029369
6.737728,5.926324645131207,0.0666451543497012
6.740111999999999,5.934614483228465,0.0664431813753499
6.742496,5.955196465057943,0.0661499556185716
6.7449,5.972565641327506,0.0658872047414743
6.747284,5.993007853530124,0.0656033911963204
6.749667999999999,6.00823515942641,0.0653638641864924
6.752071999999999,6.025464566069113,0.0651158494720253
6.754456,6.044696073458232,0.0648549216017335
6.756835999999999,6.066721077526686,0.0645873622798664
6.759239999999999,6.08981701678178,0.0643126888631876
6.761627999999999,6.110491546409874,0.0640702760853336
6.764008,6.132888637530667,0.0638308316112729
6.7664040000000005,6.159289930144293,0.0635697837764304
6.768792,6.181547251638225,0.0633389346199696
6.771171999999999,6.203385264251577,0.063130087138493
6.773575999999999,6.221498614625815,0.0629312886677659
6.77596,6.24203337462705,0.0627025348979697
6.778339999999999,6.263639069814923,0.0624649769416774
6.780739999999999,6.286315700189436,0.0622204654496625
6.783124,6.305407437951696,0.0619804067937083
6.785504,6.321286370154039,0.0617684367953127
6.787912,6.339307172729661,0.0615395412875851
6.7902960000000006,6.347317471573197,0.061366638212267
6.792675999999999,6.359471741536426,0.0611659009116343
6.79508,6.366411105193325,0.0610020735866418
6.797467999999999,6.375771878477221,0.0608074925891612
6.799848,6.377264018402308,0.0606487960147091
6.802252,6.380106632767755,0.0604685270285743
6.804636,6.381366455267367,0.0602792194402807
6.807016,6.3818348818340604,0.0600860713155393
6.80942,6.386075192468111,0.0598410343392892
6.811808,6.39045527272902,0.0595903860380848
6.814188000000001,6.392833252243514,0.0593514787486018
6.816584,6.402428238810756,0.0590694463562088
6.818972,6.413373699818356,0.0587671377785393
6.821352,6.428463131945652,0.0584401666562583
6.823747999999999,6.439408592953252,0.0581405235773027
6.826135999999999,6.451424989147492,0.0578343480986942
6.82852,6.459437183848896,0.05754688513599
6.830915999999999,6.467449378550302,0.0572599862942956
6.833303999999999,6.47560134287857,0.0569658961097791
6.835684,6.4825426023933375,0.0566869967647313
6.838088,6.495350394520495,0.0563870609979597
6.840471999999999,6.506016316274375,0.0561041031500182
6.842852,6.521897144334588,0.0557892662833746
6.845256,6.536846806835023,0.0554773898513032
6.847644,6.556871606014929,0.0551397650464425
6.850024,6.576477096314256,0.0548237591512165
6.852427999999999,6.596082586613582,0.0545093081096534
6.854812,6.613406436912771,0.0542167800643325
6.857192,6.631242143891159,0.0539452813568655
6.859595999999999,6.647215519749989,0.0536764507741166
6.8619840000000005,6.666122161915015,0.0534019096262266
6.864363999999999,6.679953667400569,0.0531522839649242
6.866768,6.692574468072624,0.0529168880563082
6.869155999999999,6.701842693557902,0.052709308452136
6.871536,6.711250688670041,0.0524953213093295
6.873948,6.71944797896868,0.0522951473007804
6.876335999999999,6.731929010013874,0.0520683998312073
6.878716,6.74347887549929,0.0518425337097532
6.881111999999999,6.758241546544621,0.0515977574939468
6.883499999999999,6.771141886470396,0.0513536584683825
6.885879999999999,6.786044327142586,0.0511054570923321
6.888276,6.804159573374694,0.0508398068274141
6.890664,6.821064114793302,0.0505885550092289
6.893043999999999,6.8355472465849125,0.050361864082032
6.895452,6.848679903936166,0.0501543987014954
6.89784,6.860089999794721,0.0499419978261559
6.90022,6.872011952332475,0.049748031711739
6.902627999999999,6.885284379310587,0.0495359839508363
6.905012,6.894552604795865,0.0493371794159036
