Time,Force,Position
6.93538,2.059925901496129,0.1805383815351005
6.937776,2.1327286397509875,0.1785439459955918
6.940163999999999,2.19701301419885,0.1769128342788809
6.942548,2.254082277451833,0.1756427235085815
6.944944,2.310222271002906,0.1739489031048115
6.947331999999999,2.3622201892921546,0.1722045825818911
6.949716,2.4114265067599376,0.1703823185359808
7.009464,2.5795045594682406,0.1688410376645601
7.0118480000000005,2.594493860365441,0.1686354224479126
7.014232,2.6132078235017557,0.168273754399803
7.016636,2.636857153690682,0.1676757179541332
7.019024,2.6605064838796086,0.1670735896164991
7.021404,2.690441655561506,0.1661360160388733
7.0238,2.7227982368704007,0.16504251549667
7.026187999999999,2.756365522992794,0.163888213574215
7.0285720000000005,2.7912832835555466,0.1626335269038565
7.030968,2.830345015237993,0.1611517892818316
7.033356,2.8686153509875214,0.159715061790443
7.035736,2.904883585990633,0.1583903745152872
7.03814,2.9345864402470525,0.1574088399788138
7.040528,2.962426963383916,0.156511270222909
7.042908000000001,2.986170737229328,0.1557325436491734
7.045308,3.0146175607018755,0.1546605287517592
7.047696,3.037617160442613,0.153796124717628
7.050076000000001,3.0647607313030445,0.1527414831314733
7.052476,3.09004197104392,0.1517761055843466
7.05486,3.1075943470528475,0.1511432699514968
7.057244000000001,3.1172780897029684,0.1508404922534387
7.05964,3.119512507874863,0.1508150368311104
7.062028,3.122817861233395,0.1507390295062627
7.188668,3.015713142040814,0.1506993507700107
7.191056,3.023068022862554,0.150656728903319
7.193436,3.0322852348038505,0.1505534365722505
7.195836,3.0508613241711746,0.1500742198558592
7.198224,3.071299744658054,0.1495442984649472
7.200604,3.095882136264628,0.1488588763535499
7.2030080000000005,3.1233977941773965,0.1480872981149768
7.205396,3.147188789851053,0.1474372881116793
7.207775999999999,3.173121655897986,0.1467162443585767
7.210176000000001,3.20561990269161,0.1457057235765
7.212564,3.2394686239255925,0.1446257760998599
7.214943999999999,3.2773215466524093,0.1434079431801891
7.21734,3.311170267886393,0.1423481232536841
7.219728,3.3482317946802915,0.1411795939913575
7.222108,3.396794069273493,0.1396349735213315
7.224504,3.4454035656949387,0.13802480910214
7.226891999999999,3.495643075810463,0.136331010972005
7.229272,3.5418783844331543,0.1347900704880216
7.231672,3.5833180956300934,0.1334142318761332
7.234056000000001,3.6218245405208376,0.1321212100878888
7.23644,3.6555353879858297,0.1309794681658061
7.238835999999999,3.684450638025071,0.1299707690163182
7.241224000000001,3.716998002504807,0.1288220172268108
7.243603999999999,3.742468129558655,0.1279069746915379
7.246003999999999,3.767286630306444,0.126998577467839
7.248388,3.7883804688151206,0.1261863427489357
7.250771999999999,3.8097538465775176,0.1253696134892123
7.253168,3.83298955545947,0.1245151703827935
7.255556,3.851569436542533,0.1237651751182885
7.257951999999999,3.8660053465059,0.1231377116674297
7.260348,3.881372422029046,0.1225010620867808
7.262736,3.896599727925332,0.121889439038975
7.265115999999999,3.9138291345680343,0.1212280389120022
7.267512,3.927054339717903,0.1206729343748946
7.269904,3.9281271707624112,0.1204335368098298
7.272283999999999,3.92798929699342,0.1202383848995306
7.27468,3.9249181569182334,0.1201077576236833
7.277068,3.9261307575896014,0.1198592943386455
7.279448,3.92720358863411,0.1196225581115205
7.281848,3.9320010819177313,0.1193185548685199
7.284231999999999,3.939731841507548,0.1189527365863586
7.286612,3.952677507403696,0.1184546619878784
7.289012,3.9642726988594856,0.1180216759723811
7.291399999999999,3.9795925525543887,0.117524382985445
7.29378,3.9952844933016287,0.1170663846318898
7.296175999999999,4.011208751474347,0.1166527178498736
7.298564000000001,4.020847168154094,0.1163976474457019
7.300948,4.029135110393482,0.1161963959864274
7.303343999999999,4.037934909312067,0.1160140917002579
7.305731999999999,4.049528204909988,0.1157825147333939
7.308128,4.057629155694272,0.1156628129247237
7.310523999999999,4.065450567224836,0.1155703824571613
7.312912000000001,4.070198942822344,0.1155500271432106
7.315296,4.077740815099188,0.115482493790608
7.317691999999999,4.089007349615144,0.1153494162416616
7.320076,4.103207150437297,0.1151601415526638
7.343964,4.202547159216903,0.1151365526982636
7.346360000000001,4.214185780785197,0.1150535726341871
7.348748,4.229037207913407,0.1148943311139389
7.351127999999999,4.248172375788172,0.1146338380751275
7.353528000000001,4.269030105155632,0.1143611710979083
7.355916000000001,4.2983155463893405,0.113908258463062
7.358295999999999,4.324295634264518,0.1134764956007081
7.3607,4.355211089192304,0.1129559841273538
7.363087999999999,4.384264213000535,0.1124664699519835
7.365468,4.410663609756292,0.1120033582321355
7.367868,4.432779265765494,0.111642253783759
7.370255999999999,4.456105626588196,0.1112498765275574
7.372636,4.481713627411034,0.1107952331544221
7.375031999999999,4.505738836368036,0.1103480683297624
7.377420000000001,4.524968447899286,0.1099796835212903
7.379804,4.540333627564563,0.1096740058601689
7.382199999999999,4.5559783464835615,0.1093461595808091
7.384584,4.575767036522253,0.1089292880665985
7.386967999999999,4.598488992867138,0.1084624889688721
7.389364,4.620279783652247,0.1080054860257479
7.391752,4.63299123626505,0.1077280721802502
7.394131999999999,4.644631753691214,0.107475959268412
7.396532,4.651476673691626,0.1073001477175052
7.398916,4.65631949294562,0.1071631047614076
7.401296,4.660929994774138,0.1069870994609001
7.408472,4.64393859313052,0.1069826110923809
7.410868000000001,4.638818130480674,0.1069588163013753
7.413252,4.63863303488344,0.106856200193957
7.415632,4.641940284099841,0.1066672554259522
7.418028,4.64166264070399,0.1065137887339848
7.420415999999999,4.640873140628941,0.1063408577602196
7.422812,4.643948072419866,0.1061149879022425
7.425208,4.650096040143847,0.1058352512329801
7.427595999999999,4.66173845342788,0.10544113213108
7.42998,4.671658305219216,0.1050576191156032
7.432376,4.680646991450774,0.1046865704286483
7.434763999999999,4.6863303243238,0.1043288094022842
7.437144,4.693084592383463,0.1039481654611922
7.439548,4.701980730816404,0.1035211830816919
7.441936,4.709433847010369,0.1030839064850932
7.444319999999999,4.72023953839111,0.1025723253714168
7.446716,4.728391502719376,0.1020830695638564
7.4491,4.732539265554808,0.1016595825418942
7.45148,4.735476323576741,0.1012619099348545
7.45388,4.742185265666032,0.1007596840298894
7.456268,4.747963042195543,0.100267808956703
7.458648,4.749876386859081,0.0998308880660251
7.461052,4.744060867790672,0.0994997801333395
7.46344,4.736243247975847,0.0992011287349897
7.465819999999999,4.729077254467079,0.0989112939078565
7.468216,4.721631721704591,0.0986420251842357
7.470599999999999,4.707528260396796,0.0984563882969701
7.472984,4.6922140942755,0.098301369061882
7.475379999999999,4.669543151474595,0.0982796510998101
7.477764,4.648455000539527,0.098257929355463
7.480148,4.627227079977598,0.0982461418047352
7.482544000000001,4.608233577587563,0.0982444792402548
7.484932000000001,4.593895902996421,0.0981893202026379
7.487316,4.582631264338333,0.0980823530197394
7.489711999999999,4.573601043852138,0.0979861524812313
7.492096,4.564291284112224,0.0979093025907236
7.494496,4.558566416984566,0.0978033851664171
7.496891999999999,4.553073867282382,0.0977386407275501
7.499280000000001,4.553028541312007,0.097624760741411
7.501659999999999,4.550142496834055,0.097602511675347
7.504059999999999,4.549118783475659,0.0975607063084973
7.506448000000001,4.551540193102657,0.0975005695154459
7.508827999999999,4.562481862394519,0.0973428166774294
7.511227999999999,4.570210726126466,0.097243959338113
7.513616000000001,4.581943791351247,0.0970870712772575
7.515995999999999,4.592605921389389,0.0969498683543463
7.5184,4.606992713666645,0.0967733023938281
7.520788,4.623521376317177,0.0965590905822019
7.523172000000001,4.643774701206823,0.0963015420287168
7.525563999999999,4.666030126842886,0.0960166129208641
7.527951999999999,4.688565091732669,0.0957122743115207
7.530336,4.714732171062948,0.09532633267009
7.532731999999999,4.740107854460309,0.0949516901248079
7.535119999999999,4.763341667484393,0.0946196342027573
7.5375,4.788205494202557,0.0942346810721929
7.539896000000001,4.811718846480361,0.0938895887119445
7.54228,4.832438702078832,0.0935725592951063
7.54466,4.8550681106251,0.0931781085449268
7.547064000000001,4.877465201745892,0.0927488659132179
7.549452,4.899490205814348,0.0922881035140782
7.551831999999999,4.920723813949883,0.0918290651048699
7.554232000000001,4.937441363913389,0.0914017289804409
7.556620000000001,4.952715891637918,0.0909708059770922
7.559004,4.973205325668779,0.0904609690388511
7.561399999999999,4.992903363766723,0.0899586810830743
7.563788000000001,5.015814207424582,0.0894076524079634
7.566167999999999,5.035140158470188,0.0888773913603681
7.568567999999999,5.049810281716903,0.0883865000281767
7.570956000000001,5.065970649030836,0.0878525030765688
7.573335999999999,5.079337519665435,0.0873433790618375
7.575732,5.09470649104645,0.086814384179995
7.57812,5.102858455374715,0.0863857769061874
7.580500000000001,5.102722477463595,0.086069218393112
7.582896,5.099653233246278,0.0857823225621857
7.585288,5.094162579401964,0.0855478515124813
7.587668000000001,5.0892310040650885,0.0852764239221058
7.590068,5.083368263168436,0.0850108769292592
7.592456,5.080019479697399,0.0847436430039451
7.594835999999999,5.074249286599365,0.0845269998245035
7.597236,5.071412359807526,0.0842808481321176
7.599624,5.070577533762102,0.0840131724612528
7.602003999999999,5.076540405888848,0.0836819569103445
7.604404000000001,5.077288371709262,0.0834196847648509
7.606792,5.07482353196976,0.0832045026479747
7.609171999999999,5.068214721110564,0.0830419035962991
7.611575999999999,5.0583931046914525,0.0829251024587125
7.613963999999999,5.054949877563929,0.0827730888560994
7.616344,5.056022708608436,0.0825985480358296
7.618743999999999,5.061099741145777,0.0823851101160965
7.621128000000001,5.06631654330998,0.0821624353390908
7.623512,5.069251705474045,0.0819790409306871
7.625916,5.076191069130942,0.0817541245544718
7.628304,5.091418375027229,0.0814280134116207
7.630687999999999,5.113443379095684,0.0810444769536299
7.633084,5.138541419097194,0.0806297397674752
7.635472,5.160286883911928,0.0802656496853414
7.637851999999999,5.187619342085331,0.0798695928511971
7.640256000000001,5.210947598765902,0.0795168755268763
7.64264,5.238140287312445,0.0791351504059593
7.645019999999999,5.26384273179177,0.0787973321270597
7.647416,5.288054932203877,0.0785026722534559
7.649804,5.30598129112301,0.0782847064094345
7.652180000000001,5.328563477841037,0.0780392106365521
7.654575999999999,5.355010096425037,0.0777655608407025
7.6569639999999985,5.388254413181205,0.077441225144956
7.659355999999999,5.423640600310649,0.0770906897049787
7.661752,5.455162355574121,0.0767736760807294
7.66414,5.485473406024094,0.0764809093682627
7.6665199999999984,5.5081481405407375,0.0762925455565823
7.668924,5.533336832482995,0.0761070449044596
7.671308,5.559596459611891,0.0759093912104917
7.6736879999999985,5.584505612300428,0.075742154913563
7.676092000000001,5.607272894615689,0.0756042376723916
7.67848,5.625104809878337,0.0755077441872812
7.680859999999999,5.635859487715096,0.0754758437030194
7.683264000000001,5.656484899657079,0.0753670491378956
7.685648,5.671523318240394,0.0752867776098751
7.688027999999999,5.689634772756762,0.0751779168471685
7.690424,5.706815061713352,0.0750755953883132
7.692812,5.724554429177383,0.0749431550122301
7.695191999999999,5.742713105521995,0.0747883499944393
7.697596000000001,5.7662264577998,0.0745740120637172
7.699984000000001,5.784292586345795,0.0743769627800243
7.702363999999999,5.797702887092899,0.074202157910763
7.70476,5.800311288175,0.0741047172020715
7.707143999999999,5.800917588510684,0.0740235994759382
7.709523999999998,5.80059272328659,0.07394655329645
7.711928,5.796822735077101,0.0738706052152307
7.714312,5.794682760561694,0.073750902262634
7.716691999999998,5.792030929367089,0.0736125765032958
7.719087999999999,5.788447932612703,0.0734786164111651
7.721471999999999,5.783282143992484,0.0733370630004151
7.723852000000001,5.776393793879567,0.0731959151853175
7.726247999999998,5.769645213393511,0.0730465387548804
7.728636000000002,5.767599682534589,0.0728245499967163
7.731020000000001,5.753169460144831,0.0726719972429603
7.733415999999998,5.740741338501488,0.0725026538127114
7.735800000000001,5.723517619432392,0.0723608566182181
7.73818,5.702848777377905,0.072218584575983
7.740596,5.679246669017221,0.0720946307731741
7.742979999999999,5.654992934350481,0.0719572132138285
7.745363999999999,5.625012436698209,0.071848766995329
7.747759999999999,5.601550097964386,0.0717132100793621
7.750147999999999,5.584094061469814,0.0715311462729307
7.752544,5.576928067961045,0.071257413335529
7.754940000000001,5.573766275945111,0.0709546435326417
7.757324,5.570884023182897,0.0706355553109439
7.759708,5.576149943033212,0.070251648664034
7.7621,5.584069589936001,0.0698662300048368
7.764488,5.591058071279011,0.0694860180851617
7.766871999999999,5.596463760756186,0.0690966204493582
7.769268,5.604151090233497,0.0686773159108719
7.771652,5.611558880457089,0.0682722580344027
7.774035999999999,5.622319245867455,0.0678290975690746
7.776440000000001,5.634243094263077,0.0674203746365594
7.778824,5.6568290726968415,0.0669558043786295
7.781203999999999,5.684350418183219,0.066468162672736
7.7836,5.71587596516243,0.0659537406288453
7.785988,5.748984304007476,0.0654486787602958
7.788367999999998,5.785817305091636,0.0649342781674087
7.790772,5.820228896548799,0.0644561058917476
7.79316,5.862369351737908,0.0639460427577854
7.795539999999999,5.901995849501404,0.0634348832380056
7.797944000000001,5.938549311331844,0.0629547909798547
7.800332000000001,5.970958802042589,0.0625138435372474
7.802712,6.00029525682028,0.0620988273594346
7.805115999999998,6.034706848277442,0.0616564641731964
7.8075040000000016,6.063763763801411,0.0612677303800301
7.809884,6.092169053019323,0.0608707858574388
7.812280000000001,6.121086198916433,0.0604947830888169
7.814664,6.154798942239293,0.0601056645751737
7.817043999999999,6.187952607054715,0.0597462907984933
7.819448000000001,6.223387911870272,0.0593636797544941
7.821836000000001,6.254259936685555,0.0590319558357794
7.824216,6.284480335194781,0.0586908201069095
7.826619999999998,6.3085546618378965,0.058391275760539
7.829007999999998,6.324480815868483,0.0581408976588642
7.831388,6.33998766101849,0.0579123274541308
7.833791999999999,6.355634275795356,0.0576776550449602
7.836175999999998,6.368207854639167,0.0574618924259788
7.838556,6.381712599042757,0.0572435265712053
7.8409559999999985,6.385067070087402,0.0570813175402628
7.843343999999998,6.388142001878326,0.0569328919177004
7.845724000000001,6.387212732176417,0.0568035015943886
7.848127999999999,6.384141592101231,0.0566902087045361
7.850515999999999,6.382420926466405,0.0565553987362557
7.852896000000001,6.373343484151967,0.0564705947125118
7.855291999999999,6.361472545158195,0.0563893071874588
7.857679999999998,6.348530670977786,0.0563155726583215
7.860060000000001,6.334006004931539,0.0562306547928329
7.862463999999999,6.316128763698518,0.0561758257631316
7.864851999999999,6.3005331624656336,0.0560982676954334
7.867232000000001,6.283866626046109,0.0560278039756415
7.869627999999999,6.27055266481336,0.0559271339306469
7.872015999999999,6.254445206901277,0.0558290398016081
7.874396000000001,6.238617288242915,0.0557171240807343
7.876799999999999,6.226141944771331,0.0555747380012217
7.879187999999999,6.213154744620546,0.0554132925495102
7.8815680000000015,6.200167544469761,0.0552514425083209
7.883963999999999,6.188530818759336,0.0550682283068924
7.886347999999998,6.180106898608826,0.0548624796633464
7.888732000000001,6.17596671920487,0.0546245942651675
7.891127999999998,6.173037244614414,0.0543729070151257
7.893512000000001,6.17425174114365,0.0540971431796323
7.895892,6.178679043232803,0.0537986953658264
7.898295999999998,6.181755870881597,0.0535219766845572
7.900683999999998,6.188185273717167,0.0532152223469468
7.903064,6.199270504351629,0.0529045060029089
7.905467999999999,6.207422468679895,0.0526018115006465
7.907855999999999,6.216365828941079,0.0523051185236838
7.910236000000001,6.22172429659001,0.0520028110825035
7.9126319999999986,6.224940893865663,0.0517166283066758
7.915019999999998,6.226155390394901,0.0514378222972072
7.917400000000001,6.22601941248378,0.0511803246090276
7.919808,6.226535060878716,0.0509346405788948
7.922191999999999,6.22784210520657,0.0506949480405868
7.924575999999998,6.226076113601369,0.0504694124661167
7.926971999999999,6.218164050130057,0.0502719547595151
7.929359999999999,6.208249885912329,0.0500814826372282
7.931740000000001,6.196985247254241,0.0499113628779738
7.934135999999999,6.179434767103182,0.0497772465613936
7.936523999999999,6.163746618071681,0.0496417249594119
7.938904000000001,6.148710095346236,0.0495194374912257
7.941307999999999,6.130460767060876,0.0494177541801945
7.943695999999999,6.109929798775379,0.0493363543649518
7.9460760000000015,6.086465564183688,0.0492619602753268
