Time,Force,Position
8.443107999999999,1.6554316381895364,0.1857342731282983
8.445504,1.712914522749492,0.1854325390566647
8.447887999999999,1.7696079072343984,0.1845687709166844
8.450268000000001,1.8259311005248369,0.1831303852289289
8.452668,1.8708952115007007,0.182489363227108
8.455055999999999,1.9103667727743816,0.1819508319201684
8.457436000000001,1.9491413817716308,0.1811530118587966
8.459831999999999,1.9890813696120044,0.1799306169645169
8.462219999999999,2.0275802310712714,0.1783630596885053
8.4646,2.0572811894698217,0.1770439892098659
8.466995999999998,2.0789756407405746,0.1759790340954294
8.469383999999998,2.094898003055424,0.1750769733828889
8.471779999999999,2.1072354727580187,0.1744068875983591
8.474176,2.118641776900836,0.1738163631569616
8.476564,2.1334932040290457,0.1730554235815688
8.478943999999998,2.143129724850924,0.1726838384963731
8.481344,2.1478308786201894,0.1726508540009401
8.483728,2.1536029675760933,0.1725302680499601
8.486107999999998,2.164078106159132,0.1719839036871963
8.488503999999999,2.1741339358615903,0.1715357741953275
8.490891999999999,2.190428385228776,0.1707523963542326
8.493272000000001,2.2013681586627696,0.1704013120634652
8.498059999999999,2.216961864037785,0.1701828433787239
8.500440000000001,2.226179075979082,0.1699326494426168
8.51002,2.244704151802423,0.169900274945725
8.512404,2.2532697374376625,0.1696791919914328
8.514783999999999,2.2639771934461788,0.169313723372761
8.517188,2.2773855983354125,0.1687177271259148
8.519572,2.2904219161723094,0.1680679522973534
8.521951999999999,2.303877542889786,0.1673643893715953
8.524356000000001,2.318543874420762,0.1665959968583887
8.52674,2.341218608937405,0.1653977133101619
8.529119999999999,2.3676180056931617,0.1640030152084358
8.531524000000001,2.394948568008696,0.1625739166599526
8.533912,2.421487734391313,0.1612255254351071
8.536287999999999,2.444581777788537,0.1599890569947715
8.538692000000001,2.4653016333870075,0.1588474544898017
8.541080000000001,2.489234294545392,0.1575206934670104
8.54346,2.5118164812634185,0.1563079543438779
8.545856,2.5364007687278614,0.1549940222374599
8.54824,2.5616366824983623,0.1537161836220612
8.550624,2.591947732948335,0.1522322414708268
8.553024,2.6223985530251683,0.1507233018733539
8.555412,2.658156827206952,0.1490689002827566
8.557792,2.698710698814486,0.1472334718477667
8.560188,2.7319077937424114,0.1458412883740068
8.562576,2.76310278792392,0.1445435104679477
8.56496,2.788943106172236,0.143523277388008
8.567364000000001,2.817856460353607,0.1423858979937719
8.569748,2.842765613042144,0.1414243004847603
8.572128,2.866324291290322,0.1405828073186324
8.574532000000001,2.881734796925973,0.1401032283906977
8.576920000000001,2.901009734427597,0.1395031748387419
8.5793,2.9194932759963037,0.1389201893990318
8.581696,2.9367661127515103,0.1384180797048372
8.584084,2.9532475535738,0.1379090196684611
8.586464,2.973593426262063,0.1372882389628242
8.588867999999998,2.9908662630172707,0.136795419555119
8.648592,3.177016131845176,0.1365014796161608
8.650972,3.1922849719960977,0.1363891164197187
8.653375999999998,3.2118375528935728,0.1361100127924209
8.655764000000001,3.228876176365433,0.1358763095180476
8.658144,3.249639462076408,0.1355513165946343
8.660547999999999,3.272265078906939,0.135205689649503
8.662935999999998,3.293307903871633,0.1348731489451403
8.665316,3.306901404358102,0.1347291658487181
8.667711999999998,3.325290502270322,0.1344484311716485
8.670100000000001,3.33860446350307,0.1343391923560503
8.67248,3.3519184247358176,0.1342262402526995
8.674876000000001,3.365511925222285,0.1340767130170603
8.677264000000001,3.3831096272015877,0.1337992332928869
8.67964,3.396842897314915,0.1336402328453451
8.682036,3.417281317801795,0.1332094741531388
8.684424,3.438418586422976,0.1327106120773196
8.68682,3.4629084302309323,0.1320739605135704
8.689215999999998,3.492193871464641,0.1313060783711405
8.691600000000001,3.516264406392017,0.1307186260505919
8.69398,3.5394037757596157,0.1301612858466915
8.696383999999998,3.5608205836345164,0.1296601634597857
8.698771999999998,3.5794438948300824,0.1292270887955746
8.701152,3.594994170092593,0.1288943655998844
8.703548000000001,3.611196071661163,0.1285678046551321
8.708316,3.624697024349014,0.1283782613231
8.710719999999998,3.629445399946523,0.128340444488963
8.713107999999998,3.639129142596643,0.1281691229350268
8.715488,3.649371963754205,0.1279455509789159
8.717891999999999,3.6609652593521256,0.1276607241243559
8.720275999999998,3.673909029390405,0.1273120159048117
8.722656,3.693138640921656,0.1267822516706649
8.725051999999998,3.710366151706488,0.1263096811737884
8.727440000000001,3.7249399354388473,0.1258795408531353
8.72982,3.736720222491871,0.1255125928546817
8.732223999999999,3.7438446817460034,0.1252433600023418
8.734611999999998,3.751108910626996,0.1249634847992918
8.736992,3.755859182082374,0.124716209438465
8.739387999999998,3.764521107231968,0.1243029808078054
8.741775999999998,3.771879779769448,0.1238732525996034
8.74416,3.773511689321396,0.1235693454341003
8.746555999999998,3.7791478003661783,0.1231674983450638
8.748940000000001,3.784272054731764,0.1227423107591896
8.751324,3.789536078724209,0.1223032024214774
8.863636,3.535560372948691,0.121967184403378
8.866015999999998,3.5443129500390333,0.1218402752712538
8.868424000000001,3.548921556009682,0.1218297658514722
8.870808,3.5547408667938294,0.1217728264120124
8.873192,3.562702047951253,0.1216498714558733
8.875588,3.567590193175622,0.1216091340275367
8.877972,3.5772739358257426,0.1214621980637412
8.880351999999998,3.584164181796529,0.1213694781531925
8.882748,3.5884007007148395,0.1213184193089331
8.885136,3.5932888459392087,0.1212772708864394
8.887515999999998,3.6005984007905747,0.1211440458000808
8.88992,3.609630517134638,0.1209858375800762
8.892304,3.625088244598532,0.1206342104065648
8.894683999999998,3.6456211087418975,0.1201507489440198
8.897088,3.664431411392568,0.1196953600004843
8.899472,3.6852438147896542,0.1192015579626626
8.901855999999999,3.70712715337338,0.1186728515018571
8.904252,3.7308728230766617,0.118115507438044
8.90664,3.7586226942727774,0.1174656326346642
8.909019999999998,3.78264790322978,0.1168933473476151
8.911424,3.800154953268334,0.1164451686306969
8.913812,3.8108643051347184,0.1161504960859499
8.916191999999999,3.822924131441463,0.1158019061333789
8.918588,3.8361946625617054,0.1154135203994009
8.920976,3.852817768868724,0.1149329458361004
8.923355999999998,3.8741439248028784,0.1143013350143861
8.925752,3.8928163536845575,0.1137113883263258
8.928139999999999,3.916703688872568,0.1129973821012686
8.930523999999998,3.945107082232611,0.1122229852269933
8.932928,3.9750007196598727,0.1113940556487406
8.935312,4.004894357087134,0.1105821597025466
8.937691999999998,4.039071735260951,0.1096774083004262
8.940100000000001,4.070036307874851,0.1088712652358641
8.942484,4.098719240488614,0.1081409132990506
8.944863999999999,4.130335439408572,0.1073694065091955
8.947268000000001,4.158878602395475,0.1066712172366105
8.949656000000001,4.1864905998226,0.1059837495307404
8.952036,4.214102597249724,0.1053076950770173
8.954439999999998,4.239852263557292,0.1046678757973501
8.956827999999998,4.268115887290474,0.1040155748106396
8.959208,4.303689065875022,0.1032805816643074
8.961604000000001,4.340705266698548,0.1025536743247837
8.963988,4.377302158641491,0.101867390285989
8.966368,4.415481842450272,0.1011916750225905
8.968772000000001,4.454964778871168,0.1005609365572999
8.971160000000001,4.4945402630906806,0.1000002230520259
8.97354,4.53583830880289,0.0994334316644585
8.975936,4.574714944888102,0.0989420262313341
8.978324,4.610798084293981,0.0984884867915436
8.980704,4.644459814072861,0.0981034740316401
8.983108000000001,4.673977572732047,0.0977926795594171
8.985496000000001,4.700142756204457,0.0975616272681225
8.987876,4.725516543743948,0.0973320406387468
8.990272000000001,4.748096834604104,0.0971306792959941
8.99266,4.770397586210541,0.0969560275375499
8.995044,4.791767172257201,0.0967904638168784
8.997447999999999,4.819143060543109,0.096541035072102
8.999835999999998,4.84544801364238,0.0963149733693542
9.050004,4.865793886330643,0.0961026225093294
9.052384,4.860673423680796,0.0960683777766827
9.05478,4.854482025844312,0.0960524805906251
9.057168,4.849501332821325,0.0960082327647161
9.059544,4.852808582037728,0.0958382758831263
9.061948,4.855184665694351,0.095677575659366
9.064336,4.869201266777138,0.0953273079199566
9.066716,4.88098344968803,0.0949643580694713
9.069124,4.8949075029722,0.0945640847636077
9.071511999999998,4.911113196256507,0.0941193248841464
9.073892,4.93132309103365,0.0936224334211799
9.076287999999998,4.949530885064374,0.0931549210306961
9.078675999999998,4.965224721669484,0.0926933372483474
9.081056,4.982129263088092,0.0922074084209761
9.083455999999998,4.993307041521169,0.0917788407181539
9.08584,5.001411784021193,0.0913954448593668
9.088224,5.01338095838719,0.0909688173785064
9.09062,5.0256296720069065,0.0905260171967047
9.093008,5.038669781559541,0.0900845973201398
9.095392,5.054643157418371,0.0896095975655892
9.097788,5.065820935851449,0.0891837264103174
9.100176,5.074205217605193,0.0887840045332874
9.10256,5.081798103426018,0.0883804509406775
9.104956,5.084036313313651,0.088062399118439
9.107344,5.078126350588756,0.0878566149846864
9.109728,5.069003582303946,0.0877022478439481
9.112124,5.055177764392001,0.087644518037301
9.114512,5.040792867972614,0.0876245827894529
9.116896,5.028270302672785,0.0875878225927004
9.119291999999998,5.0185412340522895,0.0875268403333382
9.12168,5.008812165431795,0.0874651008820042
9.124064,4.996569139385686,0.087406532018933
9.126459999999998,4.990052876325106,0.0872948367194482
9.128848,4.978321706958195,0.0872553133015521
9.131228,4.971525904643896,0.0871610722460821
9.133627999999998,4.96393870639668,0.0870644781855034
9.136015999999998,4.955280572962823,0.0869840722978473
9.138396,4.9458310435960495,0.0869008568458979
9.140792,4.935310579042636,0.0868337845806918
9.14318,4.924510575235503,0.086784694121673
9.14556,4.917575003294344,0.0866982275087914
9.14796,4.913432928032519,0.0865906534901269
9.150344,4.914086450196445,0.0864397442277248
9.152728,4.920886044226484,0.0862101379631287
9.155124,4.930479134935856,0.0859580047248432
9.157512,4.942214096018507,0.0856705822340458
9.159907999999998,4.951435099675542,0.0853837962937149
9.162304,4.966802175198688,0.0850189414381639
9.164692,4.978304818855861,0.084692761984943
9.167072,4.981659289900507,0.0844694486513912
9.169467999999998,4.981940725012096,0.0842861682170365
9.171855999999998,4.9867382182957165,0.0840775354412915
9.174236,4.985249870086366,0.0839570494891681
9.176635999999998,4.990838759302906,0.0837517510725576
9.17902,4.997219044452363,0.0835507980888484
9.181404,5.009745401467931,0.0832761864249625
9.183799999999998,5.020269657737082,0.0830228039219578
9.186188,5.031585309939151,0.0827739864749074
9.188568,5.046113767701136,0.0824802750347161
9.190964,5.060270138410783,0.0821588098532682
9.193352,5.073635113187513,0.0818363367066269
9.195747999999998,5.086348461658184,0.0815062441993776
9.198148,5.095616687143464,0.0811852941894416
9.200536,5.103302120762906,0.0808610564398856
9.202915999999998,5.113408964009345,0.0804928959375584
9.205312,5.1305930446816745,0.0800576578673389
9.2077,5.151781326846836,0.0795831261943091
9.21008,5.167382615653329,0.0791452505663252
9.212476,5.19034068113943,0.078626374661625
9.214864,5.21585992587939,0.0780476503972224
9.217244,5.24286941468657,0.0774303143605369
9.219652,5.267364946068135,0.0768149616428396
9.222036,5.294701195957277,0.0761282831280231
9.22442,5.318033244353586,0.0754841673708009
9.226816,5.3419243712573365,0.0748149210686304
9.229204,5.36274246222803,0.074187395554725
9.231583999999998,5.388915229131917,0.0734994862679629
9.233984,5.413085895289387,0.0728305789554701
9.236372,5.434183525513802,0.072194864871661
9.238751999999998,5.4550016164844966,0.0715784902518672
9.241152,5.47703041226869,0.0709456396353667
9.24354,5.495846402492967,0.07035086745535
9.245919999999998,5.517967746075778,0.0697688655748822
9.248316,5.54339444301712,0.0692023439525778
9.250704,5.566399730331466,0.0686797450830444
9.253084,5.5833987154065605,0.0682118047172608
9.25548,5.602911657907271,0.0677547731521768
9.257867999999998,5.624938557833594,0.0673036102240678
9.260248,5.641051703319284,0.066944722721939
9.262643999999998,5.664614173283201,0.0665647869015278
9.265031999999998,5.692413162165428,0.0661977191346387
9.267416,5.724728209219687,0.0658275270593412
9.269811999999998,5.758206739259202,0.0654927679698409
9.272199999999998,5.795549701164692,0.0651419638785626
9.274596,5.829120779002823,0.0648538592027587
9.276996,5.863995109453072,0.0645930154143749
9.279384,5.896028721395741,0.0643922211782759
9.281768,5.931647225950663,0.0641894359768783
9.284164,5.969919457558061,0.0639869460437818
9.286548,6.009634711404435,0.0638023657491139
9.288932,6.051724153049562,0.0636365165680745
9.291328,6.0973984873069424,0.0634683571561535
9.293716,6.14013955525813,0.0633165934518913
9.296096,6.177293629850645,0.0631811841365293
9.298492,6.217241201122495,0.0630396531947432
9.35822,6.345318947775585,0.0629843539439563
9.365384,6.293966968218786,0.0629838240123834
9.36778,6.275390878851463,0.0629823677156961
9.370176,6.261750156536751,0.062956065365888
9.372564,6.253044801274652,0.0629051801845606
9.374944,6.248203877878527,0.0628388051049405
9.377344,6.246296220788597,0.0627591900979428
9.379728,6.244620881124143,0.0627112636814402
9.382108,6.2370790088473,0.062689406644788
9.384508,6.234100416570729,0.0626181266421032
9.386896,6.232332529107659,0.0625310043036641
9.389276,6.234988152018003,0.0624020455859559
9.391676,6.236200752689371,0.0622573699520879
9.394064,6.242348720413352,0.0620893429857405
9.396444,6.247193435525215,0.0618978068979773
9.39884,6.256601430637355,0.0616573532328674
9.401228,6.265218029816576,0.0614124083411947
9.403612,6.275976499369073,0.0611519627098897
9.406008,6.288876839294849,0.0608751505284492
9.408396,6.304338358474481,0.0605632309871008
9.41078,6.323152452840888,0.06021702033287
9.413176,6.338381654595043,0.0598706718076216
9.415564,6.354030165229777,0.0595052890198219
9.417944,6.365954013625402,0.0591485384872612
9.420344,6.374292969408771,0.0587923732818299
9.422732,6.382771694819,0.0584325576208501
9.425116,6.390738563550032,0.0580557165837977
9.427512,6.400754754855725,0.0576259608783072
9.4299,6.415054686907971,0.0571623781689933
9.43228,6.428143914146719,0.0567155128442161
9.43468,6.442304076572105,0.0562626420166834
9.437068,6.451668641571738,0.0558246586137535
9.439452,6.458099940265177,0.0553956606339982
9.441859999999998,6.460806576719502,0.0549719375094947
9.444244,6.4653755442933845,0.054545641913295
9.446624,6.46794241112085,0.0541287550829903
9.449027999999998,6.4674362420152605,0.053725165061034
9.451412,6.462134475483919,0.0533323857113126
9.453792,6.45497037783302,0.0529413782342913
9.456191999999998,6.444593474622206,0.0525726547965109
9.458576,6.439943334396922,0.0521955423706852
9.46096,6.439017856410752,0.0518150155119164
9.463356,6.435670968797584,0.05146066442638
9.46574,6.435536886744331,0.0510862992462115
9.46812,6.436985596556915,0.0507230600554605
9.470524,6.43163660819733,0.0503746535739109
9.472912,6.426008080584025,0.0500392439240328
9.475292,6.417678604090002,0.049743084170894
