Time,Force,Position
8.962472,2.4837689148179023,0.1592830872293111
8.96486,2.5045340963867457,0.1584568647540504
8.967255999999999,2.530234645008201,0.1574286386889831
8.969652,2.556726589562575,0.156355840516002
8.97204,2.5858722611694227,0.1551983258374784
8.974419999999999,2.618463055761664,0.1539345964639177
8.976823999999999,2.651705476659964,0.1526781141304025
8.979211999999999,2.689883264610874,0.1512028638129643
8.981592,2.727921282934925,0.1497241312539169
8.983988,2.7607443949526447,0.1485444442156408
8.986376,2.7911460973433653,0.1475356708501937
8.98876,2.8200575556668657,0.1466647281896907
8.991156,2.8506915754830646,0.1457358608204722
8.993544,2.879603033806567,0.1448678724951979
8.995928,2.9093058880629865,0.1440024001256528
8.998324,2.9402194471329053,0.1430505004577897
9.000712,2.9672685743368508,0.1422940459752122
9.003091999999999,2.9952488671005746,0.1415057926871603
9.005491999999998,3.021227059117881,0.1408255572000808
9.00788,3.0453429200156306,0.1402482606956881
9.01026,3.0628008523680723,0.1399060665379284
9.012656,3.0756029569216228,0.1397156879894847
9.015044,3.0856115647958378,0.1396186515972599
9.017424,3.0976222734164693,0.1394465742597311
9.019832,3.110052290917682,0.1392298187671009
9.022216,3.1216909124859766,0.1390270704482708
9.0246,3.135611174054408,0.1387269954065834
9.026996,3.1464583996897844,0.1385433862858853
9.029384,3.16438286275105,0.1381281819064978
9.031764,3.1864512969320087,0.1375688766589514
9.03416,3.2118723062997434,0.1368810963542478
9.036548,3.236781458988281,0.1361717044203062
9.038928,3.2622496901842597,0.1354058505981295
9.041324,3.2875781517533773,0.1346544847516862
9.043712,3.3122549870164373,0.1339070066030566
9.046092,3.339725318958832,0.1331003369724681
9.048496,3.367475190154948,0.1322738673249576
9.050884,3.394433665418145,0.1314575135199016
9.053264,3.4224630758679804,0.1306166412158236
9.055668,3.444765723332287,0.1299282409151586
9.058056,3.4720037378492044,0.1291002909274495
9.060436,3.5023147882991776,0.1281817766174985
9.062836,3.5307635076295942,0.127311267058288
9.06522,3.5614938669601486,0.1263700883016124
9.0676,3.589942586290565,0.1255271446058037
9.069996,3.617460140061203,0.1247094657272448
9.072384,3.6371090604730343,0.1240990489948167
9.074768,3.657177289765446,0.1234450365710863
9.077164,3.6701682816319687,0.1230102568247119
9.079552,3.680645316072877,0.1226150543526387
9.081932,3.6900514153271455,0.1222629051839367
9.084332,3.698246809767917,0.1219571381394252
9.08672,3.708164765701384,0.1216336298251073
9.0891,3.7242287935009615,0.1211542004124415
9.091496,3.7393616557407614,0.1206964517680192
9.093884,3.751840790928087,0.1202849642283425
9.09628,3.761898516488414,0.1199631549223907
9.09868,3.772096011675601,0.1196283226027113
9.101068,3.783224672422568,0.1192836091350206
9.103452,3.799009160968425,0.1188507278792277
9.172752,3.9730633568085594,0.1186904508890108
9.175132,3.977020336473149,0.1186762305572068
9.177536,3.9854008265111536,0.1185379667619153
9.179924,3.9917792158027416,0.1184438735345951
9.182304,4.010449748826551,0.1180645574371608
9.1847,4.031541691477359,0.1175957017683271
9.187088,4.055846439688081,0.1170490864021912
9.189468,4.07614698640597,0.1165899382480815
9.191872,4.095935676444661,0.1161170233047437
9.19426,4.108135272378266,0.1157781243401651
9.19664,4.125689544245063,0.1152954700906663
9.199044,4.1395191538727465,0.1148750651135
9.201432,4.153488533127291,0.1144417270271752
9.203812,4.168668617195333,0.1139676407797859
9.206208,4.177842399024126,0.1136222229734783
9.208596,4.187947346412696,0.1132599292818539
9.210976,4.197121128241489,0.1129175830699325
9.21338,4.201219773390809,0.1126906562335225
9.215768,4.203735626674293,0.1124714250700454
9.218148,4.20424937921136,0.1122936820480356
9.220552,4.204251275069229,0.1120949308014793
9.222936,4.200808047941704,0.1119314741173981
9.225316,4.198435756000819,0.1117417191993484
9.22772,4.194340902567238,0.1115682059092507
9.230108,4.1843795165212665,0.1115039628026906
9.232488,4.177351396781489,0.1113850006517786
9.2349,4.165527679615961,0.1113464533451788
9.237288,4.158267242450707,0.1111812714891353
9.239668,4.150727266031733,0.1110391144037963
9.242064,4.148541965545952,0.1107699085767933
9.244448,4.143283629127114,0.1105643236997514
9.246832,4.138956458268056,0.1103441705165723
9.249228,4.133046495543161,0.1101269651370298
9.251616,4.128998863937822,0.1098829201331005
9.253996,4.130957534571734,0.1095207401300068
9.256396,4.132916205205646,0.1091585601269131
9.25878,4.133012544720002,0.1088238607682712
9.261164,4.137113085727191,0.1084117171435925
9.26356,4.136790116360966,0.1081101562358443
9.265948,4.139400413300937,0.1077552124485896
9.268332,4.141591401360326,0.1074366261724937
9.270728,4.144294246098913,0.1071399979623111
9.273112,4.146997090837501,0.1068455823801304
9.275496,4.1534245978152,0.1064984802533016
9.277892,4.160923039979539,0.1061262217952373
9.28028,4.1664193813974615,0.1057949048812944
9.28266,4.174569449867858,0.1054355465335636
9.285056,4.179878799830677,0.1051868220790528
9.287444,4.179973243487162,0.1050479212144316
9.289824,4.180160234942266,0.1049673079424352
9.29222,4.1852825934499815,0.1048001357146549
9.294608,4.192546822330974,0.1045847959906135
9.296992,4.203256174197359,0.1043427793546204
9.299388,4.211823655690468,0.1041511675016215
9.301775999999998,4.216247166063882,0.1040440171455586
9.304156,4.224814647556991,0.1038562299395432
9.306552,4.231380028303683,0.103702162793596
9.30894,4.23487237311732,0.103608463924635
9.311319999999998,4.246373120916622,0.1033715771302326
9.313716,4.255592228715789,0.1031937334551021
9.316104,4.263740401328316,0.1030386364153266
9.318484,4.27403044431412,0.1028382694027759
9.320888,4.282970012859567,0.1026850765513951
9.323276,4.290698876591512,0.1025680169351076
9.325656,4.300010532189295,0.1024514610275224
9.328056,4.3090426485333575,0.1023573365498471
9.330444,4.317283368944503,0.102264325839403
9.332824,4.325803628609368,0.1021484409795789
9.33522,4.339678564207426,0.1019152099742887
9.337608,4.352250247193368,0.1016622851364768
9.339988,4.361888663873115,0.1014588538140797
9.342384,4.373249642045558,0.1012476140073313
9.344772,4.383679454658223,0.1010496554351981
9.347156,4.395971598390445,0.1008310570710979
9.349552,4.417063541041252,0.1004874056554418
9.35194,4.434151282199226,0.1002142559723496
9.35432,4.460038822275784,0.0998208798041952
9.35672,4.486717758285261,0.0994255340972598
9.359104,4.510603197615404,0.0990704155015901
9.361488,4.536630507318823,0.0986742254055087
9.363884,4.56386852183574,0.0982455751407016
9.366272,4.588964665979381,0.0978621948486697
9.368656,4.615411284563381,0.0974397554876318
9.371052,4.642556751281681,0.096970782343005
9.37344,4.663835685387592,0.0965776172237588
9.37582,4.688606964307138,0.0961093981312509
9.378224,4.7151008047193805,0.0956356330780659
9.380612,4.739732314012066,0.0951783575501965
9.382992,4.764224053677893,0.0947361311897341
9.385388,4.788296484463139,0.0943251217947954
9.387776,4.813300080808162,0.0939072297617194
9.390156,4.834579014914073,0.0935306668088281
9.392552,4.852273056407729,0.0931796891393134
9.39494,4.868384306035551,0.0928301178092771
9.428396,4.7280730126257,0.0927695150502977
9.430784,4.718436491803822,0.0927629146044558
9.433164,4.711081610982082,0.0927102686126617
9.43556,4.705589061279898,0.0926410682922568
9.437948,4.702890008257049,0.0925476447042147
9.440328,4.708850984525926,0.092364829180625
9.442728,4.710528220048248,0.0922503469858083
9.445112,4.723938520795351,0.0919989572814558
9.447512,4.742563727848787,0.0916654077101415
9.449908,4.76319103564864,0.0913029931521755
9.452296,4.7858204441949095,0.0909146593107235
9.454676,4.808589622368038,0.0905159885227464
9.457076,4.834012527593643,0.0901075251685318
9.45946,4.8570140231922485,0.08975958053785
9.461844,4.879456440283415,0.0894518976216177
9.46424,4.905343980359974,0.0891334545500796
9.466628,4.934304556369589,0.0887733150342185
9.469008,4.960192096446146,0.0884631869880435
9.471404,4.9930171043217335,0.0880665908098898
9.473796,5.0242120985032415,0.0877246403930185
9.476176,5.056757567125109,0.0873546547653884
9.478572,5.084367668694365,0.0870435849144403
9.48096,5.111186374330702,0.0867365353079352
9.483344,5.132138547354649,0.0864918452582892
9.48574,5.151228389259039,0.086263970138184
9.488128,5.163380763364401,0.0861168892830413
9.490508,5.180468504522374,0.0859141688125228
9.492904,5.193691813814375,0.0857518013118138
9.495292,5.208777454225931,0.0855788256680157
9.497688,5.22200076351793,0.0854184977078312
9.500084,5.236434777623429,0.085236161087826
9.502472,5.251288100609508,0.0850280798381822
9.504852,5.265350027662669,0.0848213894841902
9.507248,5.278900098036632,0.0845957003182141
9.509636,5.290355519865563,0.0843452173424082
9.51202,5.296363717962683,0.0841243865842713
9.514416,5.29850748419383,0.0839381493057652
9.516804,5.298649149678559,0.0837735439068534
9.519184,5.300792915909705,0.0835897574050206
9.521584,5.307360192514264,0.0833391158044001
9.523972,5.309783497999131,0.083139933031279
9.526352,5.316211004976832,0.0828997120865511
9.528752,5.320356871954395,0.0826975502287961
9.531136,5.326644609305236,0.0824644525572473
9.53352,5.330930245909658,0.0822513717182321
9.535924,5.337497522514219,0.0820007390816424
9.538308,5.3472776046786965,0.0817099106350969
9.540692,5.358268391656672,0.0813978218796964
9.543088,5.369259178634645,0.0810906414515857
9.545476,5.388258368598287,0.0807096773960895
9.547856,5.4080489544948485,0.0803376029287081
9.550252,5.427560001137689,0.0799834574939153
9.552636,5.4401335799815,0.0796892785914164
9.555032,5.453917863638809,0.0793757095768705
9.557428,5.4683537736021774,0.0790725231404547
9.559816,5.4889357554316565,0.0787067961269769
9.562196,5.513661708380829,0.0782971692630267
9.564592,5.538015574277663,0.0778588743496959
9.56698,5.55585128125605,0.0774587188774414
9.56936,5.567820455622047,0.0771060927580628
9.571764,5.585144305921236,0.0766922225959766
9.574148,5.600605825100867,0.0762909492275989
9.576528,5.6183489842806384,0.0758571017950476
9.578924,5.637163078647047,0.0754107405895433
9.581312,5.65877066969279,0.0749493487217643
9.583692,5.674092419245562,0.0745536318225447
9.586092,5.682756240253026,0.0742008465588089
9.588476,5.688067486073714,0.0738939587651267
9.590872,5.688583134468649,0.0736188274069313
9.593268,5.677225948011945,0.0734378840584723
9.595652,5.65893129375621,0.073312105718913
9.598036,5.642498970620034,0.0731771511661129
9.600436,5.633004115282885,0.072986407331052
9.602824,5.618806210318604,0.0728694827756626
9.605204,5.607262032406797,0.0727472082873384
9.6076,5.592784588188793,0.0726451912929289
9.609988,5.57816737434393,0.0725504278875854
9.629096,5.46415345060187,0.0724848932502283
9.631484,5.457589965713047,0.072417490869588
9.63388,5.4527490423169205,0.0723497434472859
9.636276,5.455125125973545,0.0722161974394519
9.638664,5.459363540749726,0.072074705697265
9.641044,5.47361245925799,0.0718555613127515
9.64344,5.494147219259226,0.0715738950409088
9.645828,5.512028252207987,0.0712972634223257
9.648212,5.530840450716526,0.0710211486991847
9.650608,5.553936389971619,0.0706970645304761
9.652996,5.573447436614459,0.0703802435204097
9.655376,5.590537073630301,0.0701015930122543
9.657776,5.604693444339948,0.0698430764855684
9.66016,5.620340059116815,0.0695531129611141
9.662544,5.635055508333903,0.069267768926115
9.66494,5.646977460871657,0.0689927785798106
9.667328,5.668398060462296,0.0686209144167717
9.669708,5.691261682291912,0.06826582736915
9.672108,5.719060671174139,0.0678765828960605
9.674496,5.744717789683092,0.067514951013976
9.676876,5.773168404871378,0.0671481647889053
9.67928,5.793750386700856,0.0668366311423115
9.681668,5.81726563483653,0.0665097598975573
9.684048,5.8347745807329545,0.0662280876853418
9.686444,5.852423296256236,0.0659398102446262
9.688832,5.866859206219604,0.0656865456908096
9.691212,5.877151145063279,0.0654678394765927
9.693608,5.887443083906953,0.0652490680374232
9.695996,5.8918684901382345,0.0650618397034926
9.69838,5.898715305996515,0.0648419694128154
9.700784,5.912499589653826,0.0645842729281858
9.703168,5.929496678871052,0.0642968569384006
9.705548,5.95049796958111,0.0639871005168391
9.707944,5.966703662865417,0.0636989182262188
9.710332,5.982117960216807,0.0634062002467502
9.712712,6.002327854993948,0.0630957664203866
9.715112,6.0193249442111725,0.0628158343197688
9.717496,6.03795204712248,0.0625003684696469
9.719892,6.054856588541088,0.0621841840498544
9.722292,6.071900899586557,0.0618628458902945
9.72468,6.082007742832996,0.0615776852817901
9.72706,6.091183420519658,0.0612935691908567
9.729456,6.098356997459902,0.0610220425176238
9.731844,6.106601509586785,0.0607414496810171
9.734224,6.116708352833225,0.0604584731602458
9.736628,6.124952864960108,0.0601797473022675
9.739016,6.136922039326105,0.0598936443764331
9.741396,6.151544940744576,0.0596099292889397
9.743804,6.167238777349686,0.0593151008351929
9.746188,6.1786488732082425,0.0590580220624981
9.748572,6.181259170148212,0.0588389959250418
9.750968,6.182518992647824,0.0586429441234825
9.753356,6.179774613654601,0.0584682490982908
9.755736,6.182756997646908,0.0582775568917412
9.758136,6.18760171275877,0.0580840195695265
9.76052,6.191794801564577,0.0578804859636984
9.762904,6.1998523222363575,0.0576652902199234
9.7653,6.200692835855389,0.0574933844731785
9.767688,6.204606385407474,0.0573050182093205
9.770072,6.204515733466727,0.0571350903182521
9.772468,6.20950021820545,0.0569376077857906
9.774852,6.215415868503954,0.0567380854055394
9.777235999999998,6.224264785108652,0.0565292439378325
9.779636,6.231763227272991,0.0563417593527263
9.782024,6.237259568690914,0.0561644176877594
9.784404,6.243687075668613,0.0559857874003913
9.7868,6.248252251526757,0.0558102967884807
9.789188,6.250955096265344,0.0556378268071761
9.791568,6.258453538429683,0.0554535488107144
9.793964,6.268745477273357,0.05526648990903
9.796352,6.283693243915923,0.0550733704425594
9.798736,6.29920008906593,0.0548539852705307
9.801132,6.3116338982828815,0.0546495451344872
9.803524,6.320063506006998,0.0544645809724545
9.805904,6.331286610410452,0.0542786193415833
9.8083,6.337155038880709,0.0541306020667661
9.810688,6.339159035484997,0.0539935344854177
9.813068,6.351964931754284,0.0538207273167811
9.81546,6.357414051343963,0.0536934924199106
9.817848,6.37101134354617,0.0535278404490942
9.820244,6.385260262054434,0.0533758535559249
9.822639999999998,6.402442446868893,0.0532159067520877
9.825024,6.417902070190658,0.0530529572968931
9.827404,6.435922872766278,0.0528571675954274
9.8298,6.453012509782121,0.0526621749092709
9.832188,6.473175182731018,0.0524543081560088
9.834583999999998,6.495339956426333,0.0522402675676277
9.83698,6.518855204562007,0.0520083115971704
9.839363999999998,6.538506020831708,0.0517862260493082
9.841744,6.553361239675656,0.0515728449584069
9.844148,6.567425062586686,0.0513545161332324
9.846531999999998,6.583490986244133,0.0511310214574396
9.848912,6.60570298176769,0.0508798449922717
9.851316,6.626052646171692,0.0506292212671088
