Time,Force,Position
8.933720000000001,1.924686767077056,0.1728993042676436
8.9361,1.9854769008534128,0.1721388278391976
8.938496,2.0339767867554186,0.1721124620462281
8.940884,2.082059259634712,0.171676489130778
8.943264000000003,2.1270233706105763,0.1712170526170573
8.94566,2.170731450802568,0.1705707693088882
8.948048,2.212299556479152,0.1697171335356255
8.950432000000003,2.2492137302147133,0.1688380411638258
8.952828,2.280542806449474,0.1679646793621728
8.955216,2.3010718788771016,0.1674573080963332
8.960008000000002,2.3224376732080216,0.167191793412462
8.962396000000002,2.333190455186912,0.1670615709213911
8.964776,2.3453862594047776,0.1669109796519377
8.969560000000001,2.36800808451957,0.1668000174341622
8.97194,2.378201787991019,0.1667594715672088
8.974344000000002,2.394309245903101,0.1662820763418265
8.976732000000002,2.4071113504566517,0.165907640471915
8.979112,2.42098439019684,0.1654711977836824
8.981508000000002,2.440723962549419,0.1647439562379559
8.983896000000001,2.4597646867676968,0.1641511300274592
8.98628,2.4824375254264703,0.1632774706756212
8.988676000000002,2.506880147406184,0.162281421974507
8.991064000000001,2.5318818478933385,0.1612160313205352
8.993448,2.5586533317014326,0.1600130491314659
8.995848000000002,2.5820722403227503,0.1590186682826447
8.998236000000002,2.600276242637736,0.1583021171828801
9.000616,2.614196504206168,0.1578215549065749
9.003016000000002,2.6319811976405734,0.1571717666596562
9.005404000000002,2.650324969582419,0.1564354762243535
9.007788,2.6673654889121496,0.1556980877599163
9.010184000000002,2.6846855474956004,0.1549386534702042
9.012572000000002,2.699212109399716,0.1542822287992589
9.014952,2.71466983686361,0.1536012450194563
9.017352000000002,2.737856428059451,0.1525754835011426
9.019740000000002,2.760251623322373,0.1515756397687492
9.127256000000004,2.670604836482235,0.150965823746168
9.129640000000002,2.68075321398331,0.1508173882010303
9.132036,2.700353016709029,0.1503388836219841
9.134420000000002,2.7202323586884685,0.1498297781142064
9.136804,2.7429051973472425,0.1492180730995614
9.139200000000002,2.7663694319389336,0.1486055013132037
9.141588000000002,2.7896938969037657,0.1480100693119564
9.143964,2.813809757801516,0.1473918067645558
9.146368000000002,2.8428609857518783,0.1465805831562958
9.148756000000002,2.870981048142462,0.1457957097784476
9.151136,2.904455786466238,0.1447514571704295
9.153536000000004,2.938861690349793,0.1436963735629947
9.155924000000002,2.9694031623673744,0.142785574939529
9.158308000000002,2.9970113680787605,0.1420076083860128
9.160712,3.027180753044004,0.1411003476647813
9.1631,3.059072699501944,0.1401823554612855
9.165480000000002,3.090033480400106,0.1393107817458152
9.167884,3.124067297231323,0.1383304114541307
9.170272,3.156378552569844,0.13739871760472
9.172656,3.1900402823487237,0.1364181594247645
9.175052,3.221048285075128,0.1355120920186515
9.17744,3.251264891868615,0.1346532204086582
9.17982,3.2741719438107357,0.1340058877885302
9.182216,3.295728521312497,0.1334335759215339
9.184604,3.3203581347473143,0.1327739793554394
9.186984000000002,3.344336121876074,0.1321169920691325
9.18938,3.37031620975125,0.1314034436972149
9.191768,3.398717707253423,0.1305889720826241
9.194152000000004,3.4241859384494013,0.1298716969236025
9.196548,3.451236961511216,0.1291369807652063
9.198932000000005,3.4761461141997536,0.1284919551457913
9.201312,3.4970510653954574,0.1279633655637254
9.203716,3.523822549203551,0.1272782024950415
9.206104,3.5495230978250065,0.1266254450494247
9.208488000000004,3.56879803532663,0.1261961904259567
9.210884,3.584068771335421,0.1258886032402863
9.213272,3.599339507344212,0.1255845305465242
9.215652000000002,3.613679077793224,0.1253098906768376
9.218048,3.6280186482422367,0.125035250807151
9.220436,3.6391454131313328,0.1248709264801766
9.222820000000002,3.651482882833929,0.1246583751468974
9.225216,3.660747316603469,0.1245383223473829
9.227600000000002,3.670803146305927,0.1244121092092429
9.229984000000002,3.6843513208220218,0.124158602598344
9.232380000000004,3.695245768285641,0.1239571994334263
9.234768000000004,3.7038585757491234,0.1238355480264685
9.241936000000004,3.720570438139021,0.1237939181192071
9.244332,3.7262499792963073,0.1237463200684172
9.246728,3.730067189334038,0.1237354799744657
9.249116,3.740030471237879,0.1235600074125701
9.251496,3.7430562853426905,0.1235544510970223
9.253896,3.749946531313476,0.1234626617324547
9.25628,3.7631226187772326,0.1231931023341469
9.258664,3.7770901021739074,0.1229155834017757
9.26106,3.788775945570445,0.1227144905974715
9.263448,3.796457587474149,0.1226145515078027
9.265832,3.807863891616965,0.1224437103779831
9.268228,3.8194099653866433,0.1222588951032545
9.270616,3.83081626952946,0.1220899738853654
9.273,3.840360242552721,0.1219550556933757
9.275396,3.851766546695538,0.1217852101688122
9.277784,3.860891210838218,0.1216957996985628
9.280164000000005,3.868665400540539,0.1216645967647375
9.282564,3.8756481943099415,0.1216359182999597
9.284952,3.8819793617732863,0.1215989578214131
9.287332000000005,3.891663104423407,0.1214557912133836
9.289728,3.9005554511406095,0.1213176006294668
9.29212,3.9078177841637327,0.1212641105799813
9.296904,3.918478018344005,0.1212401829329125
9.299292,3.926811286553767,0.1211561033605872
9.304068,3.9385424559206794,0.1211063355728136
9.306456,3.9460843281975215,0.1210326005633209
9.308836,3.955256214168445,0.1208773372054883
9.311232,3.967780675326144,0.1206192429450307
9.31362,3.974718143125173,0.1204639240657066
9.316004,3.981515841297342,0.1203210916605794
9.3184,3.9865909779768143,0.1201992364412742
9.320788,3.9966014817088986,0.1199691240872408
9.323168000000004,4.003538949507927,0.1198145558244579
9.325564,4.008614086187399,0.1196932820958373
9.327952,4.01476015805351,0.119543020631849
9.330348,4.02812323697237,0.119218445059349
9.332744000000002,4.039623984771673,0.1189251464103623
9.335132000000002,4.048703322943979,0.118716717678798
9.337512,4.058853596302924,0.1184808750357155
9.339908,4.072635984102365,0.1181268034097171
9.342296,4.086278602274945,0.1177856421105811
9.34468,4.102622169328243,0.1173351929975094
9.347076,4.114821765261848,0.1169890630638591
9.349464,4.1211548285830615,0.1167607221021585
9.351848,4.1260448696653,0.1165252319012987
9.354244,4.126418852575507,0.1163583024687506
9.356632,4.127724001045493,0.1161764346273523
9.359012,4.127166818395921,0.1160259168002101
9.361408,4.127960110186708,0.1158217999751634
9.363796,4.127310379738518,0.1156108376788883
9.366176,4.12787135410383,0.1153591134965943
9.368584000000002,4.12298510473733,0.1151884241460197
9.370972000000002,4.11879770350513,0.1149548532919729
9.373352,4.115681237459571,0.1146926897032113
9.375748000000002,4.11405501548123,0.1143671767265209
9.378136,4.105631095330721,0.1141728571299037
9.38052,4.103073707792602,0.1138659933565356
9.382916000000002,4.098281902082587,0.1135529871006655
9.385304,4.092838470066517,0.1132307216303709
9.387688,4.083111297303891,0.113015051456823
9.390084000000002,4.073803433421848,0.1127626619923532
9.392472,4.065566504726441,0.1124833002990987
9.394852,4.059750985658032,0.1121280991587027
9.397248,4.061292243269232,0.1116034140846361
9.399636,4.06483560162685,0.111037096377403
9.40202,4.066748946290389,0.1105388291829814
9.404416,4.0678708950210085,0.1100448322223769
9.4068,4.068853074124768,0.1095611976860781
9.409184,4.071418045094364,0.10907464763532
9.41158,4.075705577556657,0.1085706572543461
9.413968,4.079713570765229,0.1080919749747219
9.416352,4.083442024720081,0.1076308873962419
9.418748,4.087822104980991,0.1071801098267415
9.421136,4.089408688562565,0.1067688510725598
9.423516,4.0827073299047525,0.1065433245636612
9.459364,3.948358908621647,0.1064971571141483
9.461764000000002,3.949290074181425,0.1064846309067431
9.464152000000002,3.955668463473013,0.1064084680306877
9.466532,3.960556608697382,0.1063914115309
9.468928000000002,3.9696812728400617,0.1063456968001977
9.471320000000002,3.984392930341412,0.1062168413002139
9.4737,4.000827149335458,0.1060718705036205
9.476096000000002,4.019775325755119,0.1059086789789952
9.478484000000002,4.036581631801502,0.1057984874575546
9.480868,4.054598642661384,0.1056516375631176
9.483268000000002,4.073918906133383,0.1055282015362054
9.485656000000002,4.096312205538436,0.1053421869689299
9.488036,4.11870550494349,0.1051570187665404
9.490432000000002,4.141750430654602,0.1049814598813092
9.492820000000002,4.168380248977967,0.1047668743055366
9.495204,4.197663794353806,0.1045282532034433
9.497600000000002,4.222943138236812,0.1043675940667291
9.499988000000002,4.24663969025398,0.104213360056611
9.502372,4.2732695085773456,0.1040125035653102
9.507156000000002,4.310372569625879,0.1039136152141404
9.50954,4.325269322724463,0.1039111451229806
9.511936000000002,4.343658420636683,0.1038236315936304
9.514324000000002,4.367541964108956,0.1036151495440626
9.516704,4.391984586088668,0.1033672806794918
9.519104000000002,4.420850718441797,0.1030263609956403
9.521492000000002,4.449484533369447,0.1026448430384431
9.523876,4.476815095684982,0.1022423166175775
9.526276000000005,4.506427298000655,0.1017895757267013
9.528664000000004,4.538041601062744,0.1013138399697386
9.531044,4.567281716326078,0.100839222649287
9.533444,4.596661601216274,0.1003630798728424
9.535832000000005,4.622596363121075,0.0999046447074057
9.538216000000002,4.648810664279598,0.099425220394412
9.540612,4.670508907266089,0.0989883916783587
9.543000000000005,4.691555523946521,0.0985478814932368
9.545384000000002,4.716885881373509,0.0980296444683031
9.54778,4.737280871747885,0.0975785003878913
9.550172,4.754230739136866,0.0971509227621482
9.552552000000002,4.774393412085764,0.0966574047029504
9.554956,4.793392602049407,0.0961289648055248
9.557344,4.8093187560799935,0.0956520238358352
9.559724000000005,4.817236507124913,0.0953036124194623
9.56212,4.818356559997664,0.0950465924691548
9.564504,4.817334742497137,0.0948306140756559
9.566884000000002,4.812308723503778,0.0946743958908677
9.569280000000004,4.808865496376256,0.094519731318294
9.571668000000004,4.811149032234262,0.0943016915035956
9.574048,4.814503503278908,0.0940679808217544
9.576448000000005,4.810780736897664,0.0939344415339516
9.578832000000002,4.808920301635975,0.0937833078588202
9.581216,4.80598893118765,0.0936512244807331
9.583612000000002,4.808784323724854,0.0934581999033585
9.585996000000002,4.815444148128032,0.093224174251433
9.588396,4.826108174024043,0.0929381375136539
9.590792,4.837191508800634,0.0926280430132954
9.59318,4.843339476524614,0.0923786591140709
9.595564,4.856424912047624,0.0920445969180599
9.59796,4.871093139436469,0.0917140655547666
9.600348,4.887903237198591,0.0913522831817919
9.602728000000004,4.908298227572966,0.0909698450222325
9.605124,4.931626484253536,0.0905539893687193
9.607512,4.95295264018769,0.0901561934531313
9.609892000000002,4.979214163174456,0.0897004098826472
9.612292,5.004684290228304,0.0892424874508597
9.614676,5.031225352468789,0.0887702785249302
9.617060000000002,5.056835249149497,0.0883110594061361
9.619456,5.074436742844537,0.087954382579719
9.621844,5.0857523950466055,0.0876904806489261
9.624224000000002,5.102282953555007,0.0873485235717377
9.626624,5.116951180943852,0.0870227283439276
9.629012,5.132690343519336,0.0866836835169563
9.631392000000002,5.146427405348403,0.0863731361022614
9.633788000000004,5.15443770419194,0.0861176670155553
9.636176000000004,5.158304031915781,0.0859186214407375
9.638556,5.156815683706434,0.0858010237517096
9.640956000000005,5.159983163295975,0.085648156846609
9.643344000000004,5.159006671765823,0.085551339880386
9.64574,5.156167849116113,0.0854685683561206
9.648136,5.153049487212684,0.0854040849404729
9.65052,5.149139729376337,0.0853375314740473
9.652900000000002,5.147092302659547,0.0852579758363902
9.655304,5.151842574114924,0.0851142984537852
9.657692,5.153100500756667,0.0850349000531246
9.660076,5.158083089637521,0.0849299202496716
9.662472,5.162925908891516,0.0848344970811383
9.66486,5.167768728145511,0.0847397370574324
9.667244,5.17661574889234,0.0846016103091596
9.669644000000002,5.188675575199085,0.0844165100797286
9.672032000000002,5.198593531132552,0.0842623128158746
9.674412,5.213167314864911,0.0840780686427354
9.676808,5.224528293037353,0.0839395533767665
9.679196,5.232816235276741,0.0838369777819613
9.681576,5.241755803822187,0.0837447001423922
9.683980000000002,5.254047947554409,0.083598357081799
9.686364,5.271415227966102,0.0833936173452354
9.688744,5.285057846138683,0.0832159105754101
9.691136,5.298980003564983,0.0830196958195847
9.693524,5.315044031364561,0.082793900460635
9.695904000000002,5.325381296178609,0.0826140391409995
9.6983,5.33371646024624,0.0824561639626022
9.700688,5.337395796514979,0.0823300807724764
9.703072000000002,5.340423506477661,0.0821944443527285
9.705468,5.344941460507562,0.0820178486619943
9.707856,5.347876622671626,0.081837828233695
9.710252,5.346947352969717,0.0816894979312118
9.712648000000002,5.346437392148389,0.0815161504620405
9.715036,5.34606720095392,0.081335008116874
9.717412,5.34797864975959,0.081118178737
9.719816000000002,5.352963134498314,0.0808684467141342
9.722204,5.351569229945451,0.0806495440069303
9.724584,5.347801137593834,0.0804200845991019
9.726984000000002,5.347385620428992,0.0801397712930551
9.729372,5.351393613637564,0.0797966592677165
9.731752,5.355401606846135,0.079455718255232
9.734148,5.355545168188733,0.079144683958861
9.736536,5.35648012546425,0.078836289823573
9.738916,5.357694621993487,0.0785104217177137
9.741320000000002,5.359980053709363,0.0781733513815191
9.743704,5.369202953224267,0.0777753991573135
9.746084,5.3785656223660325,0.0773682941288071
9.748484,5.3900701618810745,0.0769337456181774
9.750868,5.397710269530143,0.0765289560166021
9.753252,5.407492247552489,0.0761007478463599
9.755656000000002,5.415132355201558,0.0756996977913329
9.75804,5.428918534716737,0.0752380694683632
9.76042,5.438420973485361,0.0748278483006004
9.762812,5.446992246694207,0.0744240440940885
9.7652,5.453281879902916,0.0740564768360066
9.767596,5.457848951618931,0.073691894902422
9.769992000000002,5.466140685574056,0.0733091154907912
9.772376,5.482952679194047,0.0728812516466664
9.774756,5.499624903187179,0.0724649277637674
9.777160000000002,5.512292925687476,0.0720847295645563
9.779548000000002,5.523610473747415,0.0717340418553743
9.781928,5.538140827367269,0.0713481114750029
9.784324000000002,5.552159324307926,0.0709423854759416
9.786712,5.570833649047473,0.0705216204562592
9.789092,5.587366103413744,0.0701272169850122
9.791488,5.60082552184696,0.069762969760247
9.793876,5.618149372146148,0.069379462805402
9.796256,5.63305181281834,0.0690333663908838
9.798660000000002,5.653681016476062,0.0686614780348393
9.801044,5.671749040879926,0.0683374688553275
9.803428,5.690748230843569,0.0680100793120336
9.805832000000002,5.707326011180214,0.0677236998715918
9.808220000000002,5.727628453755972,0.067422950243311
9.8106,5.746859961145091,0.0671335779103193
9.813000000000002,5.767022634093991,0.0668421948998344
9.815388000000002,5.786905767789167,0.0665674239988921
9.817768,5.806649131857484,0.0663023398491036
9.820172,5.815311057007079,0.0661167121090727
9.82256,5.822762277343175,0.0659499715535494
9.824940000000002,5.8327274551048855,0.0657897802304386
9.827344,5.839759366560401,0.0656453333566818
9.829728,5.846092429881614,0.0655395836077615
9.832108000000002,5.853868515441804,0.0654508179633471
9.834508,5.856429694695662,0.0654074816484489
9.836892000000002,5.859922039509298,0.065361420944307
9.839272,5.865276715442492,0.0653099523403571
9.841676,5.864485319509573,0.0653053398697354
9.844064,5.867977664323209,0.0652597943699619
9.846444000000002,5.865463706897594,0.0652532382781517
9.848840000000004,5.8632292887257,0.0652318943797232
9.851228000000004,5.861134640180666,0.0652030979377119
9.853608,5.858248595702714,0.0651696360673731
9.856004000000002,5.854431385664984,0.0651388908179037
9.858388,5.85233673711995,0.065110127645193
9.860768,5.851452793388415,0.0650642025565989
9.863172000000002,5.854433281522853,0.0650012124517799
9.865560000000002,5.855551438537735,0.0649433244660365
9.86794,5.869892904844615,0.0647956792604793
9.870344,5.884374140778357,0.0646410221758674
9.872728000000002,5.893268383353428,0.0645006500538165
9.875112,5.908448467421473,0.0643098558090687
9.877508000000002,5.920183428504124,0.0641136877958835
9.879896000000002,5.931266763280716,0.0639062114978492
9.882276,5.9449112773111645,0.06365834656377
9.884672000000002,5.956833229848917,0.0634086667165302
9.887060000000002,5.966101455334195,0.0631597962743241
9.88944,5.980444817498947,0.0628774655531529
9.891836,5.993717244477059,0.0626071965392823
9.894224,6.010202477015087,0.0623090027096588
9.896608,6.025896313620197,0.062006117695975
9.899004,6.040519215038668,0.0617128020087862
9.901392,6.054350720524221,0.0614146797105898
9.903788000000002,6.068741304517214,0.0610889077365474
9.906180000000004,6.08262003183101,0.0607451016546798
9.908568000000002,6.092494557651973,0.0604244838450437
9.910952000000002,6.095711154927627,0.060125676246007
9.913348000000004,6.102000788136338,0.0598079712835222
9.915736000000004,6.10042178798624,0.0595294231089099
9.918120000000002,6.102195363022918,0.0592196614020261
9.920516000000005,6.113048276231902,0.058861581027995
9.922900000000002,6.118686283134554,0.0585403501916798
9.925284,6.131261757836234,0.0581889747107367
9.927680000000002,6.144768398097692,0.0578375292523017
9.930068000000002,6.155993398359014,0.0575105412480639
9.932448,6.1701516649265296,0.0571740972725373
9.934852,6.185380866680685,0.0568301432878904
9.937240000000005,6.201960542875199,0.0564692008168366
9.93962,6.217469283883075,0.0561175081821324
9.942024,6.231627550450591,0.0557882848246202
9.944412,6.246577212951026,0.0554647303761981
9.946792000000002,6.264460141757656,0.0551323370329963
9.949192,6.280061430564149,0.0548204360987092
9.95158,6.2971057416096174,0.0545285067689828
9.953960000000002,6.314941448588005,0.0542438682188753
9.95636,6.335570652245727,0.0539562728689497
9.958748,6.357922417396144,0.0536717793658705
9.961128000000002,6.378132312173286,0.0534046026271422
9.963524,6.400064768443124,0.053143017797716
9.965912,6.416642548779768,0.0529206865537814
9.968292000000002,6.424932386877025,0.05274590039595
9.970696,6.438437131280615,0.0525418135429782
9.973084,6.4456560341912335,0.0523759417703062
9.975464000000002,6.452874937101852,0.0522110065476766
9.97786,6.461816401505167,0.0520512975512728
9.980248,6.468476225908344,0.0519131200513261
