Time,Force,Position
9.45462,2.5335650716689893,0.1539901377233934
9.457016,2.556519345439353,0.1528614569206457
9.459404,2.582127346262192,0.1516586336598062
9.461788,2.609737447831447,0.1503351069582322
9.464184,2.631481016788312,0.1492968816655265
9.466572,2.6500117801852614,0.1484485238036771
9.468956,2.669473709141989,0.1475799174641197
9.471352,2.683860501419245,0.1469648422418686
9.47374,2.696245192950084,0.1464436440793988
9.47612,2.7118426900408386,0.1457628316752892
9.47852,2.726229482318094,0.1451502081766305
9.480908,2.73367880679632,0.1448607655148327
9.483292,2.73912603052813,0.1446681194623331
9.490464,2.7536960225447498,0.1445571392683489
9.49286,2.7617497515007914,0.144412472426894
9.495244,2.767289523031218,0.1443266581264806
9.497628,2.7774851223605364,0.1440845082779722
9.500024,2.786609786503216,0.143890738590781
9.502412,2.795594681019036,0.1437249772773262
9.504804,2.8073730722141903,0.1434776182902512
9.507204,2.816218197103149,0.1433398745426845
9.509588,2.825854717925027,0.1431920128797248
9.511972,2.8418696280384927,0.1428594342125268
9.514368,2.8586759340848764,0.1425095482387073
9.516756,2.8721296649444845,0.142320337812743
9.51914,2.887585496550509,0.1420451752538135
9.521536,2.9047638896492303,0.1417243070343153
9.52392,2.917518772374537,0.141621252110846
9.526304,2.936419726965955,0.1412723400863628
9.5287,2.9622581493564013,0.1406660782437333
9.531088,2.9898191332395445,0.140026239353759
9.533468,3.0173801171226877,0.1393878951874812
9.535872,3.040005733953218,0.1389220820240908
9.55976,3.1365937803081243,0.1388351966687662
9.562144,3.1443679700104448,0.1387605873317719
9.56454,3.159918245272956,0.1383656780025189
9.566928,3.177610390908744,0.137892586236256
9.569308,3.1967927806117507,0.137337900949676
9.571704,3.2166740184490594,0.1366938907124543
9.574092,3.229105931808141,0.136255598844073
9.576472,3.2375336436743893,0.135954459060167
9.578868,3.2442387940479414,0.1356868963236058
9.58126,3.251223483675213,0.1353894045371202
9.58364,3.2614209788624007,0.1349667666796429
9.58604,3.27790431554256,0.1343290570495667
9.588424,3.2997423281559106,0.1334905450472483
9.590824,3.319438470395985,0.1327291964804483
9.59322,3.338343216703141,0.1319711399345963
9.595604,3.3589705245029933,0.1311967504535686
9.597988,3.3809483067432047,0.130348785780201
9.600384,3.4022744626773584,0.1294916855685463
9.602772,3.4249510930518707,0.1285717148579745
9.605152,3.447907262680104,0.1276315191106212
9.607548,3.471515058614395,0.1267066317489567
9.609936,3.4876263082422163,0.1260598777205082
9.612316,3.494378680444011,0.125725353054055
9.614712,3.5031331533922225,0.1253435388629721
9.6171,3.50760388559388,0.1251039392531744
9.619484,3.514728344848012,0.1248192995431473
9.62188,3.5274397974608145,0.1244128160208669
9.624268,3.542013581193173,0.1239693823331251
9.626652,3.5596604008585877,0.1234447482147854
9.629048,3.5765158245910835,0.1229287403078191
9.631436,3.5975152194432733,0.1223044998701927
9.633832,3.613951334295189,0.1218523721879224
9.636228,3.6236822987735526,0.1216212052309367
9.638616,3.633692802505637,0.1213584947597033
9.640996,3.648638673290333,0.1209779263867204
9.643392,3.661861982582333,0.1206279877728312
9.703128,3.798441030321595,0.1205834158368783
9.705508,3.804307562933985,0.1204576492339121
9.707904,3.812315965919652,0.1202763408011198
9.710292,3.8275413759580688,0.1199175954812374
9.712672,3.844117260436844,0.1195155513644055
9.715068,3.860181288236422,0.1190968722403916
9.717456,3.881599991969193,0.1185349427562658
9.719836,3.905672422754438,0.1179304475725328
9.72224,3.932166263166681,0.1172355137112352
9.724628,3.953864506153172,0.1166330801240858
9.727012,3.9790550939532983,0.1159139923441615
9.729408,4.005176847313204,0.1151756518220652
9.731796,4.025292298433859,0.1145861595014057
9.734176,4.043685188061818,0.1140263896647068
9.736572,4.059936207316499,0.1135227434948602
9.73896,4.08354400325079,0.112837330399127
9.74134,4.10701202955822,0.112165405712084
9.743736,4.130480055865651,0.1115002696036011
9.746124,4.149664341426528,0.1109474656047426
9.748508,4.168569087733683,0.1104262603686905
9.750904,4.191617805160533,0.1098156532826305
9.76764,4.170440898142586,0.1093892774785655
9.77002,4.16653114030624,0.109328963389721
9.772424,4.167416979895643,0.1091889049260959
9.774812,4.16723188429841,0.1090745789027015
9.777196,4.169607967955033,0.1088762964068647
9.779592,4.172263590865377,0.1086538313076914
9.78198,4.174639674522,0.108456073359496
9.78436,4.179297398178761,0.1081975564303814
9.78676,4.177017654036494,0.1080650735647231
9.789148,4.176879780267503,0.1078846484701274
9.791528,4.173668870565455,0.1077650811923901
9.793932,4.172599831236687,0.1075963227219871
9.796316,4.172461957467696,0.1074160085016405
9.798696,4.1681801125790106,0.107320526376211
9.8011,4.171115274743076,0.10708061668781
9.803488,4.180196508773251,0.1067159240391615
9.805872,4.196075440975594,0.1062343549368904
9.808268,4.214236013178075,0.1056876722475546
9.810656,4.233187981313475,0.1051296938730625
9.813036,4.250929244635375,0.1046085773267973
9.81544,4.260662104971608,0.1042429448818954
9.817824,4.263317727881953,0.1040199843967417
9.820208,4.263831480419019,0.1038471871136186
9.822604,4.264205463329226,0.1036861276373958
9.824992,4.263601058851412,0.1036073837180999
9.827372,4.265510611799211,0.1035146578478635
9.829776,4.265697603254314,0.1034352275244884
9.83216,4.264534120269059,0.1034025702433776
9.834544,4.270168335455972,0.1032620711837515
9.83694,4.271379040269471,0.1032270976516778
9.839328,4.276593946575804,0.1031206062118708
9.841712,4.283671184001692,0.1029911690542143
9.844108,4.28474211918833,0.1029676303778022
9.856044,4.297404454115021,0.102958992333075
9.85844,4.3069484271382805,0.1028904750875135
9.860828,4.320217062400656,0.1027782945976559
9.863208,4.339072691021698,0.1025966021264795
9.865608,4.356577845202383,0.1024538156982179
9.867996,4.377435574569844,0.1022360088368292
9.870376,4.40136633987036,0.101966764950673
9.872772,4.424645478864818,0.10168911739868
9.87516,4.446202056366579,0.1014257101875407
9.877544,4.469341425734178,0.1011618194964615
9.87994,4.492760334355496,0.100876326155213
9.882328,4.512035271857119,0.1006714518949226
9.884712,4.53494232379924,0.1003688162453364
9.887108,4.555055879062025,0.1001009700291873
9.889496,4.5711652328319765,0.09989748778662
9.89188,4.593280888841179,0.0995944831656437
9.894284,4.612742817797908,0.0993129336236806
9.896672,4.632344516381496,0.0990233412187123
9.899052,4.648640861606551,0.0987500311477455
9.901448,4.661212544592494,0.0985195068057612
9.903836,4.676345406832293,0.098217704933107
9.90622,4.687893376459839,0.0979526464948701
9.908616,4.700931590154604,0.0976440651985368
9.911004,4.71559981754345,0.0972814608372224
9.913388,4.735902260119207,0.0968007458444253
9.915784,4.75327143638877,0.0963645433640844
9.918172,4.769849216725415,0.0959357246395862
9.920552,4.786986075569501,0.0954720527287222
9.922944,4.804262704040447,0.0950000913807598
9.925332,4.821167245459057,0.0945002354118827
9.927711999999998,4.840073887624082,0.0939775667530278
9.930112,4.857537507550132,0.0934409747944496
9.9325,4.875932293035959,0.092902909770195
9.934879999999998,4.896468948895064,0.0923311655084897
9.93728,4.9222205110605,0.0916825091301275
9.939668,4.946249511733241,0.0910460096339867
9.942047999999998,4.972001073898677,0.0904000689417788
9.944444,4.99388820419814,0.0897939941114614
9.946832,5.012422759310828,0.0892476766580735
9.949212,5.03482174628949,0.0886605596899081
9.951616,5.052145596588679,0.0881432798102768
9.954004,5.068398511701231,0.0876462856967044
9.956383999999998,5.075572088641476,0.0872689189903787
9.958788,5.0786016944620265,0.0869539386525369
9.961172,5.081211991401997,0.0866702440727605
9.963551999999998,5.085405080207803,0.0863915656730831
9.965956,5.084243493080416,0.0861963832960072
9.968344,5.079589561139393,0.0860698186552583
9.970724,5.073724924384872,0.0859690488780392
9.97312,5.06758074837663,0.0858865456688869
9.975508,5.057432370875556,0.0858517058373378
9.989848,5.002219751168523,0.0857910134771601
9.992228,4.993234856652704,0.0857840792416974
10.001792,4.957015739335702,0.0857777491601079
10.00418,4.952267363738193,0.0857646613016973
10.01134,4.943050151796898,0.0857193084660147
10.013736,4.941095272878725,0.0856848096701814
10.016139999999998,4.939000624333692,0.0856596366888973
10.018524,4.941561803587549,0.0855986187613727
10.020908,4.944774609147464,0.0855492243720919
10.028076,4.949430436946355,0.0855129843859035
10.030475999999998,4.950501372132993,0.0854967103570932
10.03286,4.957019531051442,0.0854480512386792
10.03524,4.964329085902808,0.0854023538014599
10.037639999999998,4.973361202246871,0.0853530468631518
10.040024,4.987328685643546,0.0852546827189299
10.042408,5.006091766465972,0.0851170273003951
10.044804,5.030069753594732,0.0849151844216572
10.047192,5.056049841469908,0.084693728724631
10.049572,5.09124903714425,0.0843614398002727
10.051975999999998,5.123934275392977,0.0840347119422267
10.054363999999998,5.1499615850963965,0.0837616747650717
10.056744,5.178130765173092,0.0834615825854706
10.059148,5.21272555636962,0.0830736880966175
10.061531999999998,5.245737555700312,0.0826852894561035
10.063912,5.283033295777557,0.0822381075309618
10.066316,5.31581297768277,0.0818163120429823
10.068704,5.349011968468564,0.0813716001872951
10.071084,5.38169910257516,0.0809101080410758
10.073479999999998,5.415457171868396,0.0804299621795293
10.075867999999998,5.449215241161631,0.0799498163179829
10.078248,5.482693771201146,0.0794905692220804
10.080652,5.512727178255268,0.0790430097313902
10.083035999999998,5.539315462323998,0.0786022399760248
10.085416,5.56525212008667,0.0781553848189096
10.08782,5.5853222452369495,0.0777634361321836
10.090208,5.602598873707896,0.077392923763554
10.092588,5.6137294303127305,0.0770884725506957
10.094988,5.624208360611507,0.076775566227209
10.097376,5.634035664604227,0.0764575191230994
10.099756,5.643071572664028,0.0761366615524587
10.102156,5.653178415910467,0.0758002054209515
10.104544,5.661562697664211,0.0754674481995379
10.106924,5.664871842738483,0.0751827906117734
10.109328,5.6668305133723935,0.0749263062246306
10.111712,5.667206392140471,0.0746642249753637
10.114092,5.668932745348906,0.0743740870390574
10.116496,5.666934436318227,0.0741005235416146
10.118884,5.666658688780246,0.0738274877376774
10.121263999999998,5.666802250122845,0.0735301552885959
10.123664,5.665363019599607,0.0732245809789496
10.126052,5.663272162770311,0.0729080234224775
10.128431999999998,5.657316874075043,0.072614060820821
10.130836,5.6530841468724695,0.0723188419837683
10.133224,5.645778383736842,0.0720513141846703
10.135604,5.638472620601215,0.0717829264545973
10.138,5.6291647567191685,0.0715304344342959
10.140384,5.620927828023762,0.07126477399189
10.142767999999998,5.612830668955215,0.0709916144011631
10.145172,5.59858743802056,0.0707728374539311
10.147556,5.582714193391824,0.0705966399392299
10.149936,5.567632344696006,0.0704237744390619
10.15234,5.546264654507217,0.0703137120541741
10.154728,5.526759295437985,0.0701950743932523
10.157108,5.509256037115169,0.0700602003398044
10.159504,5.492124865844692,0.0699528254529159
10.161892,5.473223911253275,0.0698971075731526
10.164272,5.455626209273973,0.069866134701555
10.166668,5.437888737667811,0.0698421583988284
10.169056,5.421734057927485,0.0698256634571119
10.171435999999998,5.407162170052996,0.0698174103759603
10.173832,5.393381678111425,0.0698127377588992
10.176215999999998,5.386119345088302,0.0697818790024668
10.178596,5.3769946809456215,0.0697581974076305
10.192939999999998,5.380998882438455,0.0697278933316117
10.195336,5.390542855461716,0.0697278587674582
10.197724,5.404091029977809,0.069698036710513
10.200107999999998,5.429372269718685,0.0695933787946798
10.202504,5.455305135765617,0.0695013583502056
10.204888,5.479235901066132,0.0694248049027296
10.207271999999998,5.5022355008068695,0.0693520866522878
10.209668,5.528587675734384,0.0692373724307617
10.212056,5.56043429622195,0.0690598628377995
10.214436,5.588416484843543,0.0689046564271115
10.216831999999998,5.614256803091859,0.0687721214926106
10.219219999999998,5.642099222086591,0.0686260338002269
10.2216,5.668870705894685,0.0684920064563881
10.224004,5.692848693023444,0.0683699787426015
10.226392,5.722413673510872,0.0682295254829659
10.228775999999998,5.74746259582627,0.0680986077867275
10.231172,5.774141531835747,0.0679292378056976
10.23356,5.798446280046469,0.0677482134353248
10.235943999999998,5.821168236391356,0.0675607081407436
10.23834,5.851666278296433,0.067284880169197
10.240728,5.88286316833581,0.0669745825078614
10.243108,5.909124691322576,0.0666957411381711
10.245504,5.934594818376423,0.066417239727946
10.247891999999998,5.954757491325322,0.0661462825825133
10.250272,5.976689947595159,0.0658321531645715
10.252676,5.998762173491858,0.065509958672364
10.255064,6.022184873828914,0.0651651103149087
10.257443999999998,6.044024782300134,0.0648144630842906
10.259848,6.061860489278522,0.0644923392704245
10.262236,6.0849111025632405,0.0641316132199821
10.26462,6.111454060661596,0.0637301707376899
10.267016,6.138695866894252,0.0632993479550142
10.269404,6.166356982007489,0.0628487894161878
10.271783999999998,6.194157866747586,0.0623925005016744
10.27418,6.216511527755874,0.0619450577151077
10.276568,6.241798455070357,0.0614845803050994
10.278952,6.262150015332226,0.0610513074488841
10.281348,6.279847848541622,0.0606166151321471
10.283736,6.2967542858181,0.0601791618887053
10.286115999999998,6.307654420855328,0.0597767752595771
10.288512,6.31590082884008,0.0593749594246881
10.2909,6.329501912758024,0.0589321730653924
10.293283999999998,6.339238564809996,0.0585040250634237
10.29568,6.347624742421609,0.0580981275231511
10.298068,6.3527981144733054,0.0577188867664038
10.300451999999998,6.360253126525141,0.057317245040729
10.302852,6.367847908203834,0.0569113168550478
10.305236,6.374092215442171,0.0565269915732583
10.307616,6.378474191560948,0.0561447266318408
10.310016,6.3768498654404775,0.0557906164519845
10.312399999999998,6.3730836689467285,0.055453513478451
10.31478,6.365685358012484,0.0551600319235625
10.317184,6.360428917451517,0.0548521252642378
10.319568,6.352518749838074,0.0545393357209485
10.321948,6.348612783717465,0.0542096618283793
10.32434,6.344846587223715,0.0538745765287748
10.326724,6.340009455543329,0.0535445838076081
10.329104,6.338617446848335,0.0532235681162916
10.331516,6.334152402220283,0.0529169145883031
10.333899999999998,6.329547587965375,0.0526151479998056
10.336296,6.322381594456606,0.0523464005481732
10.338696,6.312002795387922,0.0521005116764986
10.341084,6.30120468743866,0.0518730558527782
10.343464,6.293479615422452,0.0516305720929733
10.345864,6.285475004152524,0.0514005819633344
10.348248,6.277982249561793,0.0511906207032179
10.350628,6.266997150157424,0.0510147647209253
10.353032,6.25973671299217,0.0508372383562794
10.355416,6.256992333998948,0.0506640115320951
10.357796,6.257972617244839,0.0504884393182373
10.360188,6.25788196530409,0.050319747229086
10.362576,6.257791313363342,0.0501505550210422
10.364952,6.252857842168599,0.0500356625810149
10.367344,6.25723602657164,0.0499177125413824
10.369732,6.2569111613475465,0.0498467978466653
10.372112,6.257098152802649,0.0497953329368916
