Time,Force,Position
9.317668,1.5826222433340855,0.1844015483432235
9.320064,1.6430875118863484,0.1828971375677054
9.322451999999998,1.6983869918183914,0.1811526311069103
9.324836,1.7461918213018337,0.1799881947008065
9.327236,1.783102203321657,0.1798258404142707
9.329624,1.8225737645953377,0.1794007800783978
9.332007999999998,1.865305353257177,0.1783640225443924
9.334404,1.9083183770306065,0.1766497323453796
9.336792,1.9369465043846492,0.1756679327949499
9.339175999999998,1.9544025408792216,0.1751220164067693
9.341572,1.964084387671473,0.1749765084808255
9.346343999999998,1.9827492331216747,0.1748798642560291
9.34874,2.001415974429745,0.174398787488612
9.351128,2.0219450468573736,0.1737980066145371
9.353511999999998,2.0461062337254976,0.1728096728384002
9.355908,2.070082324996388,0.1715381162466022
9.382196,2.1565163062766106,0.171497757412212
9.384592,2.17448609530825,0.1708385844152043
9.38698,2.196879394713304,0.1698257153808511
9.38936,2.2142447792671285,0.1690329930878226
9.391756,2.229003658596721,0.1682792433706154
9.394144,2.247906509046008,0.1672811777398029
9.396528,2.260523518002324,0.1667189878175212
9.398924,2.274583549197616,0.1661502776494973
9.401312,2.287944732258606,0.1657035184126153
9.403692,2.301305915319597,0.1652513935809701
9.406088,2.3172282776344453,0.1645740486405449
9.408476,2.333849488083595,0.1637626565022925
9.410856,2.3430213740545183,0.163331255129981
9.413252,2.35312442558522,0.1628629076504981
9.41564,2.365881204168396,0.1622898887377527
9.418024,2.382362644990685,0.1615301595410189
9.42042,2.404431079171645,0.1604631008245955
9.422808,2.428781153352741,0.1592685106134354
9.425188,2.4547612412279167,0.1578780104286262
9.427584,2.475945731677341,0.1567640921305353
9.429972,2.4955002084326856,0.1558646112678436
9.432351999999998,2.508349534814479,0.1554282472197379
9.434748,2.519708617129052,0.1551317249764926
9.446687999999998,2.5449369474680763,0.1551075990971477
9.449084,2.5496853230655847,0.1550039253100727
9.451472,2.5562960297826507,0.1548230919482599
9.453855999999998,2.563558362805774,0.1546501731002888
9.456252,2.571891631015536,0.1544198113537392
9.45864,2.582366769598575,0.1540595035958297
9.477756,2.612995101841165,0.1539666764939286
9.480148,2.617231620759476,0.1538465144073784
9.482528,2.6253325715437605,0.1535681105143309
9.484924,2.634224918260963,0.1532776704271982
9.487316,2.648332171284498,0.1527174944627284
9.489696,2.667514560987505,0.1519207417800467
9.492092,2.6868367203173733,0.151112144665451
9.49448,2.7060191100203803,0.1503428403232942
9.573372,2.7936222618594675,0.1500387268653157
9.575752,2.797766232979161,0.1498572112098691
9.578152,2.8043316137258523,0.1495354495384778
9.580536,2.810757224845684,0.1492298177150974
9.58292,2.8171828359655144,0.148927577944283
9.58532,2.8248191518988444,0.1485539145244713
9.587708,2.8427455108179798,0.1477479265423873
9.590088000000002,2.854013941191805,0.1471760730811426
9.592484,2.86062654376674,0.1467572031471643
9.594872,2.873385218207785,0.1460659570873368
9.597256000000002,2.8907997204477223,0.1452194539586906
9.599652,2.9112872586207144,0.1442550875301984
9.60204,2.929260839368092,0.1433646115914331
9.604423999999998,2.942858131570299,0.1425957166664705
9.60682,2.954453323026089,0.1419062957369799
9.609208,2.9687022415343534,0.1411402680277247
9.611591999999998,2.9845339519084537,0.1403533760034359
9.613988,2.9988754182153348,0.1396568699043947
9.616376,3.0116340926563803,0.1389915231375479
9.618759999999998,3.01559296817884,0.1386530251372085
9.621156,3.0240679018733303,0.1381906905079896
9.623544,3.0301214259408247,0.1378680818801018
9.625927999999998,3.0382695985533523,0.1375551132936981
9.628332,3.0494908070989357,0.1371263521439944
9.63072,3.062993655644655,0.1366031905654708
9.6331,3.078219065683072,0.1360503873049158
9.635504,3.084504907176043,0.1358136659073828
9.637892,3.097169137960602,0.1354120173950912
9.640272,3.117422462850248,0.1347946681426859
9.642668,3.1407488236729493,0.1340999848542291
9.645056,3.162352623002954,0.1334530728594052
9.647436,3.1830252567731807,0.1328484825561887
9.649832,3.208213948715438,0.1321670843512431
9.65222,3.2365682243893685,0.1314585260848935
9.6546,3.268647162302412,0.1306687439140982
9.657,3.301936805028954,0.1298389677002692
9.659388,3.337088778875053,0.1289834873448211
9.661768,3.376244954213986,0.1280024746080548
9.664172,3.418054856605393,0.126989218069418
9.66656,3.467593622728748,0.1257578897395038
9.66894,3.510986316985991,0.1247270567900971
9.671336,3.553727384937177,0.1236930136560462
9.673724,3.5920921643431925,0.1227373659175768
9.676104,3.627895764495349,0.1219067095055332
9.678504,3.657133983900814,0.1213049714432977
9.680892,3.683438937000085,0.1207823841869106
9.719112,3.7844996114145166,0.1205814966573167
9.721516,3.790039382944943,0.1205575894584159
9.723904,3.796278002609671,0.1204692022451565
9.726284,3.8068003630209537,0.1202605319362075
9.72868,3.8182538889920137,0.1200332611107887
9.731068,3.828264392724098,0.1198000588510937
9.733452,3.843350033135655,0.1194455699739869
9.735844,3.859506608733849,0.1190557199336696
9.738232,3.8727299180258488,0.1187281903038995
9.740612,3.887443471385068,0.1183336805089591
9.743016,3.902157024744288,0.1179359590068328
9.745408,3.917941513290145,0.1175018724968506
9.747788,3.933074375529944,0.117061742193222
9.750188,3.945413741090409,0.1166731506771077
9.752576,3.9538886747849,0.1163673250965248
9.75496,3.959709881426917,0.1161034523174223
9.757356,3.964599922509155,0.1158577263272314
9.759744,3.97149206433781,0.1155685687780468
9.762128,3.980665846166602,0.1152138953956596
9.764524000000002,3.989188001689336,0.1148579784911191
9.766915999999998,3.994404803853538,0.1145263871398836
9.769296,3.9986904404579615,0.1142133386157458
9.771696,4.00469863855508,0.1138853705639531
9.77408,4.009263814413225,0.1135509084023335
9.77646,4.015319234338588,0.1131542508674938
9.778859999999998,4.022585359077449,0.1127186632695429
9.781248,4.0231935552710025,0.1123968589330942
9.783632,4.031018758517305,0.1119209028361958
9.786027999999998,4.040194436203967,0.1113905935328591
9.788415999999998,4.04801963945027,0.1109135088780864
9.7908,4.057846943442989,0.1103966539185765
9.793195999999998,4.065811916316152,0.109902287933496
9.795583999999998,4.074428515495373,0.1094203101706584
9.797964,4.087840712100345,0.1088587511505791
9.800363999999998,4.101392678332178,0.1082785080368872
9.802751999999998,4.112802774190734,0.1077490973785652
9.805136,4.125283805235927,0.1071964995407109
9.807531999999998,4.133900404415148,0.106713995437629
9.809924,4.138652571728396,0.1063033722442967
9.812304,4.135908192735172,0.1060718247006806
9.814704,4.136888475981063,0.1057854224126487
9.817092,4.133073161801202,0.1055786243842703
9.819475999999998,4.128186912434702,0.1053985731888255
9.821872,4.124883454934039,0.1052153265365195
9.82426,4.121440227806515,0.1050445010896423
9.826643999999998,4.118508857358188,0.1048965086061428
9.831428,4.107943066834402,0.104733657076369
9.833808,4.100308646758943,0.1047199028957008
9.836204,4.09388493149698,0.1046689814299281
9.838591999999998,4.086669820302101,0.1046183106001709
9.840972,4.086252407279389,0.104455966239016
9.843367999999998,4.085183367950619,0.1042830401728136
9.845756000000002,4.080901523061934,0.1041826822061976
9.848136,4.08220667153192,0.1040100818737804
9.85054,4.0864450863081,0.1037893595800426
9.852928,4.088541630711003,0.103616152067089
9.855308,4.094083298099299,0.1034179635474498
9.857712,4.097063786233738,0.1033000467375139
9.860096,4.108052677353842,0.1030345512346739
9.862476,4.113966431794477,0.1028662774059368
9.86488,4.126538114780418,0.1025982972506791
9.867268,4.137387236273664,0.1023439508299988
9.869648000000002,4.148887984072967,0.102103389061708
9.872044,4.159038257431912,0.1019113514296716
9.874432,4.171050861910413,0.1016981634457315
9.876812,4.188650459747584,0.101417256785999
9.879216,4.212488677249483,0.1010732460691279
9.881604,4.233393628445186,0.1007786243227106
9.883983999999998,4.252808335573671,0.1005428039686214
9.886384,4.2708725682617965,0.1003527133208159
9.888772,4.281859563524033,0.1002914564583242
9.891151999999998,4.292706789159409,0.1002425230354566
9.893556,4.304764719608283,0.1001596913302422
9.895944,4.313097987818045,0.1001249095849629
9.898324,4.322222651960725,0.1000911965500062
9.900724,4.334280582409601,0.1000136667149748
9.903112,4.34503526024636,0.0999155163395087
9.905492,4.363798341068787,0.0996863125382074
9.907896,4.379628155585019,0.0995037371647376
9.910284,4.400393337153863,0.0992443482137418
9.912664,4.417294086856732,0.0990414126606874
9.91506,4.436196937306018,0.0988077936352513
9.917444,4.452725599956551,0.0985748491057422
9.919828,4.47260683779386,0.0982713542662426
9.922228,4.490253657459275,0.0979613165580546
9.924616,4.503524188579517,0.0976858820947255
9.926996,4.5128377400351685,0.0974084506663199
9.929392,4.522291061117682,0.0971192816533009
9.931784,4.531651834401577,0.0967767363574973
9.934164,4.542083542872112,0.0964124932980933
9.936568,4.557869927275839,0.0959449938812177
9.938952,4.572585376492927,0.0954972761771967
9.941336,4.581294523470763,0.095137040093159
9.943732,4.587861800075324,0.094816805161581
9.94612,4.59191511925427,0.0945068804926957
9.9485,4.5931749417538805,0.0942281288725301
9.950896,4.5949466209326895,0.0939722480240907
9.953284,4.5892689756332725,0.0937958015780834
9.955664,4.589085775893909,0.0935107781879582
9.95806,4.589973511341183,0.0932094632019575
9.960448,4.593003117161733,0.0928696806679872
9.962832,4.5946822485419245,0.0925704680644903
9.965228,4.5991548766014505,0.0922456071857862
9.967616,4.597621202421728,0.0920048698995906
9.969995999999998,4.593526348988146,0.0918318387400677
9.972396,4.589291725927704,0.0916688369218103
9.974784,4.590644096225932,0.0914546151689152
9.977163999999998,4.598794164696328,0.0911648228981824
9.979564,4.607176550592203,0.090916450782071
9.981952,4.618631972421133,0.0906262441076484
9.984331999999998,4.628736919809704,0.0903766300036289
9.986728,4.640843967944691,0.090101537260272
9.989112,4.6632410590654825,0.089679443259259
9.991496,4.6919239916792455,0.0891654437225203
9.993892,4.720327385039288,0.0886695016105332
9.99628,4.752455440638443,0.0881464647595321
9.99866,4.781789999558265,0.0876455314898314
10.00106,4.812986889597643,0.0871243056867543
10.003448,4.833474427770636,0.0867813206874319
10.005828,4.852099634824071,0.0864596065550408
10.008223999999998,4.869374367437148,0.0861757340246968
10.010611999999998,4.885997473744166,0.085879317471743
10.013008,4.899407774491269,0.0856355917792508
10.015404,4.917473903037264,0.0853534114353475
10.017792,4.939404463449233,0.0850307444894091
10.020172,4.963988750913677,0.0846985844451684
10.022568,4.98107649207165,0.0844862423129503
10.024952,4.989084895057316,0.0843897690321167
10.027335999999998,4.997233067669844,0.0842836177722227
10.029732,5.00044587322976,0.0842334407285445
10.032115999999998,5.005800549162952,0.0841510036712074
10.044083999999998,5.01776593181321,0.0840698601118121
10.046468,5.020279889238823,0.0840686183326762
10.048848,5.027729213717051,0.0840186703221776
10.051251999999998,5.042255775621166,0.083887013709662
10.05364,5.055571632711783,0.0837805629757851
10.05602,5.070237964242758,0.0836416971563129
10.058416,5.085975230960373,0.0834880884574328
10.060804,5.10078133211821,0.0833387952220107
10.063184,5.113725102156489,0.0832030712028752
10.06558,5.122013044395877,0.0830986668258922
10.067968,5.12192049659726,0.0830510347844844
10.070348,5.127462163985556,0.082907857361945
10.072744,5.138358507307044,0.0826869335244677
10.075132,5.150465555442032,0.0824426065598075
10.077516,5.166716574696714,0.0821466213848866
10.07992,5.178171996525643,0.081892911577855
10.082304,5.1825501809286845,0.0817203431047205
10.084688,5.1872079045854464,0.0815299661811829
10.087084,5.195078433802123,0.0812940571133575
10.089472,5.19601149521977,0.0811284341774252
10.091852,5.200297131824192,0.0809098527931981
10.094256,5.200858106189502,0.08071551252872
10.096644,5.1954127783155615,0.0805838145872454
10.099024,5.192528629695479,0.0803981736872996
10.101428,5.185640279582562,0.0802520016249676
10.103815999999998,5.180754030216063,0.0800862799726702
10.106196,5.176659176782482,0.0799237586582425
10.108591999999998,5.180992035215148,0.0796591151518064
10.11098,5.1866753680881725,0.0793645285216107
10.11336,5.198225233573589,0.0790213468352811
10.115759999999998,5.219506063537368,0.0785985886199563
10.118148,5.238645023127871,0.0782070150324014
10.120528,5.254710946785318,0.0778502959735089
10.122927999999998,5.270637100815906,0.0775045613732238
10.125316000000002,5.284002075592635,0.0772124815865962
10.127696,5.30030031667556,0.076897336186491
10.130095999999998,5.317809262571982,0.0765582195342981
10.13248,5.334247273281767,0.0762321746800694
10.134864,5.348543413618275,0.0759336476678123
10.13726,5.368845856194032,0.0755802470813718
10.139651999999998,5.383793622836598,0.0752941592402829
10.142032,5.40060372059872,0.0749975084982725
10.144428,5.418484753547481,0.0746856855229524
10.146816,5.4291487794434925,0.0744528209992445
10.149196,5.447029812392254,0.0741432065991341
10.151596,5.459835708661543,0.0738847956678513
10.153984,5.471850208997912,0.0736241205976363
10.156364,5.473714435975338,0.0734621882306218
10.158764,5.473297022952626,0.0733345186589286
10.161148,5.46994634362372,0.0732292103053675
10.163532,5.461800066869061,0.0731541086985916
10.165936,5.452722624554624,0.0730830551407403
10.16832,5.444576347799967,0.0730074092649046
10.170704,5.433776343992834,0.0729359996470344
10.173108,5.424466584252922,0.0728276120907958
10.175491999999998,5.414225658953229,0.0727230703481535
10.177872,5.404915899213314,0.072614008335048
10.180276,5.398818945033315,0.0724680034464579
10.182664,5.393653156413095,0.0723176737561059
10.185047999999998,5.384762705553762,0.0721837547206522
10.187444,5.382949492120318,0.0719895574214197
10.189832,5.3842093146199295,0.0717686749980329
10.192212,5.388262633798875,0.0715367525825246
10.194608,5.397251320030433,0.0712693941439383
10.196991999999998,5.403306739955796,0.0710237144424975
10.199376,5.411364260627575,0.0707618074511672
10.201771999999998,5.419933637978553,0.0705207031399442
10.204156,5.431156742382005,0.07027368436472
10.206536,5.4425196164123175,0.0700178420554781
10.208932,5.452811555255991,0.069773597501225
10.21132,5.4656174515252784,0.0695350263267109
10.2137,5.480425448540985,0.069281699612329
10.2161,5.49602484148961,0.0690334873090804
10.218488,5.515069357423625,0.0687871292891225
10.220868,5.533322477424723,0.0685386382797558
10.223264,5.552227223731879,0.0683036802385532
10.225652,5.571271739665895,0.0680617763244013
10.228048,5.587243219666855,0.0678478921549999
10.230444,5.605636109294814,0.0675978495975165
10.232831999999998,5.624960164482551,0.0673452419450174
10.235212,5.639209082990817,0.0671349024808742
10.237607999999998,5.6493140303793865,0.0669621640601913
10.239996,5.6575566466484,0.0667967149761604
10.242376,5.663797162170997,0.0666461625523384
10.24478,5.671900008813151,0.0664906873512006
10.247168,5.682004956201722,0.0663227795181919
10.249548,5.691737816537954,0.0661280850839772
10.251943999999998,5.70789628799402,0.0658735215460516
10.254331999999998,5.7260568601965,0.0656066919420044
10.256712,5.744636741279562,0.0653171270578202
10.259108,5.76070266493701,0.0650219116491822
10.261496,5.77397509191512,0.0647353191213741
10.263876,5.786735662214036,0.0644301579219786
10.266272,5.800055311020391,0.0640984503423752
10.268656,5.81016215426683,0.0637956637506621
10.271036,5.818686205647435,0.0634834222835928
10.273452,5.828281192214676,0.0631627969945103
10.275835999999998,5.840949214714974,0.0628216098493349
10.278216,5.849333496468718,0.0625201815339844
10.28062,5.85864894378224,0.0622177059049257
10.283008,5.86917509590926,0.0618981461642691
10.285388,5.88077218322292,0.0615686366151386
10.287788,5.894511140909857,0.061222136439492
10.290176,5.907598472290734,0.0608635763385588
10.292556,5.916821371805638,0.0605215248649416
10.294952,5.92110890426793,0.0602043374004568
10.297339999999998,5.923114796730086,0.0599125624603988
10.299724,5.917763912512631,0.059680045223123
10.30212,5.914415129041593,0.0594378805843708
10.304507999999998,5.915722173369447,0.0591878670321006
10.306888,5.918751779189997,0.0589416528754017
10.309288,5.925226507995942,0.058702846934909
10.311672000000002,5.932352863107943,0.0584774671499619
10.314056,5.939199678966225,0.0582684620062735
10.31646,5.952983962623535,0.0580280032435912
10.318848,5.968630577400402,0.0577853096217972
10.321231999999998,5.984928818483326,0.0575572370776196
10.323628,6.000947520312531,0.0573454799482354
10.326016,6.022832754754125,0.0571127101974638
10.328396,6.04457821956886,0.0568884914449437
10.330796,6.064321583637176,0.0566739268112109
10.333184,6.084204717332354,0.0564533133039445
10.335564000000002,6.101666441400535,0.056263854173754
10.33796,6.120710957334551,0.0560865079139714
10.340348,6.144551070694319,0.0558974243801601
10.342728,6.175328651853115,0.0556810224611259
10.345132,6.211321139318244,0.0554337664494228
10.34752,6.249455497156651,0.055169729865027
10.349899999999998,6.285308214994919,0.0549314227218276
10.352296,6.3159460265268565,0.0547273953779226
10.354684,6.344581737312376,0.0545325380608519
10.357064,6.370563721045421,0.0543347918682868
10.35946,6.393472668845411,0.0541531839797078
10.361847999999998,6.411166710339068,0.0540031912627249
10.364232,6.424996319966752,0.053865782510072
10.366628,6.436544289594298,0.0537503339929325
10.369015999999998,6.443156892169233,0.0536527169491097
10.371396,6.446044832505055,0.0535589890608005
10.373791999999998,6.446139276161541,0.0534687879309431
10.376180000000002,6.4422295183251945,0.0533949995946006
10.378564,6.442044422727962,0.0533177374709233
10.380959999999998,6.441719557503867,0.0532470933142531
10.383347999999998,6.443164475600711,0.0531365070155034
10.385744,6.440744961831584,0.0530353210904616
10.38814,6.434740555450201,0.0529307797181309
10.390528,6.42286961645643,0.0528434689167333
10.392912,6.407646102275882,0.0527838683684338
10.395319999999998,6.394564458468611,0.0527097920281981
10.397704,6.379108626862586,0.0526176689876042
10.400088,6.367284909697058,0.0524850576537217
10.402484,6.357882602158528,0.0523255012125237
10.404872,6.348620064246857,0.0521589078709222
10.407252,6.341918705589044,0.0519586831157867
10.409648,6.336567821371589,0.051737170590541
10.412036,6.3300062323406365,0.0515287181685319
10.414416,6.322932786630486,0.05130026295781
10.416812,6.318140980920473,0.0510499879786805
