Time,Force,Position
11.860831999999998,3.0166638550083564,0.1642886237819205
11.863219999999998,3.138155366478193,0.163051873341036
11.8656,3.249081087424241,0.1618713598706207
11.868,3.3419916933682785,0.1610604384626117
11.870387999999998,3.430994437333837,0.1599132896649876
11.872768,3.511386269693782,0.1588536913748286
11.875163999999998,3.581537176754035,0.1579661114837504
11.877551999999998,3.6541113892991546,0.1567207198261252
11.879948,3.721752130649532,0.1555109372584516
11.977916,3.913715622687976,0.1543842431249829
11.980296,3.9265649490697694,0.1541463763657888
11.982696,3.943138937690676,0.1538253812831674
11.985084,3.9605043222445007,0.1534941020251461
11.987464,3.98080297310452,0.1530828390228762
11.989864,3.9990995232181215,0.1527264795495484
11.992248,4.018467008518364,0.152335212529406
11.994632,4.042118234565159,0.1518046654730846
11.997028,4.069401575052451,0.1511236096035031
11.999416,4.098035389980101,0.1503777047242644
12.0018,4.129742240840808,0.1495399459088239
12.004196,4.165732832448068,0.1485570512807929
12.006584,4.197858992189355,0.1476853686755582
12.008968,4.236550532677334,0.1466001888492425
12.011364,4.271237871672477,0.1456313046296024
12.013752,4.306064980294482,0.1446586790753828
12.016136,4.336376030744455,0.1437883674333378
12.018532,4.366547311567568,0.1429322699907034
12.02092,4.3942046349650665,0.1421212475072896
12.023304,4.41948777056381,0.1413463918559488
12.0257,4.439975308736802,0.1406939244339075
12.028088,4.448170703177574,0.1403973388097826
12.030472,4.451430730565732,0.1402315838082796
12.032868,4.457763793886946,0.1399826127303162
12.03526,4.460511964595908,0.1398017381079722
12.03764,4.467032019372224,0.1394753600996501
12.040036,4.47569394452182,0.1390899702561593
12.042424,4.48021189855172,0.1388210970766658
12.044804,4.485241709260818,0.1385721010377894
12.0472,4.494275721462751,0.138229480180481
12.049588,4.499585071425569,0.1379614072872353
12.051972,4.501821385455334,0.137773036461008
12.054368,4.506339339485234,0.1375129130506103
12.056756,4.501638185715968,0.1374877468907635
12.059136,4.503874499745732,0.1373014963505526
12.061532,4.504108713029077,0.1371628375316253
12.06392,4.50620525743198,0.136987670441026
12.066304,4.508581341088605,0.136789389999287
12.0687,4.511609051051286,0.1365962431033421
12.071088,4.515148617693165,0.1364208077493131
12.073484,4.523204242507076,0.1361681862601286
12.128436,4.474704356605071,0.1357913833639469
12.13082,4.481222515523519,0.1356700668442376
12.133219999999998,4.494538372614136,0.1353972649751041
12.135607999999998,4.513860531944003,0.1349814914329224
12.137988,4.529038720154176,0.1346754208160467
12.140387999999998,4.54230735541655,0.1344671285474187
12.142772,4.562513458477952,0.1340968411894157
12.145152,4.581508856725855,0.1337665167347589
12.147552,4.602925664600757,0.1333611827854908
12.14994,4.619826414303628,0.1330334177667476
12.152324,4.634725063260081,0.1327614339811496
12.154719999999998,4.652417208895869,0.1324333054979944
12.157108,4.670481441583995,0.132138664203381
12.159492,4.6866833431525645,0.1318812781493444
12.161887999999998,4.701442222482157,0.131621109804378
12.164272,4.712895748453216,0.1313993014346524
12.166656,4.725559979237775,0.1311420231429177
12.169055999999998,4.734731865208699,0.1309904431582913
12.171443999999996,4.7460456215528986,0.1307840918683885
12.173828,4.760851722710735,0.1304748602422695
12.176223999999998,4.777148067935791,0.1301073386962051
12.178611999999998,4.790139059802313,0.1297766879100789
12.180996,4.808484727602028,0.1293244412201165
12.183395999999998,4.82189502834913,0.1289712406688361
12.185783999999998,4.838518134656149,0.1285420772494613
12.188168,4.860123829844023,0.1279602815198912
12.190563999999998,4.878004862792785,0.1274428682409821
12.192956,4.896956830928184,0.1268978409194668
12.195339999999998,4.911764827943889,0.1264483262939037
12.197731999999998,4.931508192012206,0.1259066722851381
12.200115999999998,4.947107584960829,0.125455609283782
12.202496,4.965919783469369,0.1249343412495131
12.204888,4.982078254925433,0.1244469620130232
12.207276,4.997957187127778,0.1239803370783333
12.209668,5.019423112688791,0.1234315782076444
12.212072,5.038327858995947,0.1229607318324552
12.214455999999998,5.050295137504075,0.1226187087278708
12.216836,5.061750559333004,0.122256500216302
12.21924,5.0741371467217125,0.1218835937717128
12.221623999999998,5.084102324483423,0.1215834615775778
12.224004,5.093787962991413,0.1213067221092837
12.226408,5.105196162992099,0.1210154229753026
12.228796,5.109527125566896,0.1208642892620533
12.231175999999998,5.11613972814183,0.1206550570674842
12.23358,5.119539525156848,0.1205172747689102
12.235964,5.122240474037566,0.1204316137327979
12.238343999999998,5.125732818851203,0.1203426234136337
12.240748,5.131506803664976,0.1201988716190849
12.243132,5.138351723665388,0.1200319878548552
12.245511999999998,5.139981737359467,0.1199697231719309
12.247916,5.143753621426824,0.1198612783426782
12.250304,5.145523404747764,0.1197896529675399
12.252679999999998,5.149295288815121,0.1196827670480091
12.255084,5.154277877695977,0.1195438869310275
12.257472,5.158608840270773,0.1194011526892395
12.259852,5.164010738032209,0.1192347856069134
12.262256,5.180074765831787,0.1189028372472299
12.264644,5.199723686243617,0.1185310438328678
12.267024,5.217370505909031,0.118196334573015
12.26942,5.239161296694139,0.1177886213627899
12.271808,5.262814418598803,0.1173627245020334
12.274188,5.286188001249749,0.116961682930592
12.276592,5.310352979833612,0.1165564704587962
12.27898,5.335169584723532,0.1161605244130975
12.28136,5.361336664053812,0.1157238898573333
12.28376,5.380845814838782,0.1153777209585327
12.286148,5.403288231929948,0.1149906106008638
12.288528,5.422238304207477,0.1146866574850626
12.290931999999998,5.441840002791065,0.1143906516062056
12.293319999999998,5.465725442121207,0.114011034550951
12.2957,5.493335543690463,0.1135913266075041
12.298096,5.518803774886442,0.1132129413918399
12.30048,5.54427200608242,0.1128379507178251
12.30286,5.56880907171862,0.11247639065167
12.305263999999998,5.589062396608266,0.1121988443607666
12.307652,5.612808066311547,0.1118450260312375
12.310032,5.626822771536465,0.1116298836023377
12.312435999999998,5.640046080828465,0.1114187116465333
12.314823999999998,5.655551030120601,0.1111615506569174
12.317204,5.668262482733404,0.1109403443753021
12.319608,5.67818043866687,0.1107521514810112
12.321991999999998,5.6863758331076415,0.1105767333337
12.324372,5.6949905364289926,0.1103753900294921
12.326776,5.703745009377204,0.1101665262507868
12.329159999999998,5.714222043818112,0.1099479219183614
12.33154,5.731636546058049,0.1096332902038152
12.333948,5.746257551618651,0.1093513066636537
12.336332,5.764231132366029,0.1090063193053395
12.338712,5.782763791620847,0.1086296496524053
12.341116,5.79836318456947,0.1082924317394359
12.343504,5.808235814532563,0.1080229232287597
12.345883999999998,5.822671724495931,0.107667248243412
12.348292,5.8333829722201855,0.1073484242695979
12.35068,5.845304924757939,0.1070050384499848
12.35306,5.856575250989635,0.106652002373672
12.35546,5.866495102780972,0.106336838309486
12.357844,5.884563127184836,0.1059064385139724
12.360224,5.901188129349723,0.1054711720347198
12.362635999999998,5.913808930021778,0.105090414285443
12.365019999999998,5.923356694760776,0.1047533870558393
12.3674,5.930902358753359,0.1044418487800135
12.369796,5.939798497186301,0.1040978203491019
12.372184,5.950556966738799,0.1037381358704333
12.374564,5.961455205918155,0.1033723740411032
12.376972,5.968768552485261,0.1030341935873209
12.379359999999998,5.973428171999891,0.1027164884520123
12.381743999999998,5.978367330768242,0.1023830492624811
12.38414,5.984517194350091,0.102028974096717
12.386527999999998,5.989316583491581,0.1017083535149376
12.388911999999998,5.997189008566128,0.1013483107357045
12.391312,6.005480742521255,0.1009620477114139
12.393695999999998,6.0054845342369925,0.1006893165467579
12.396079999999998,6.009352757818705,0.1003749284033681
12.398476,6.010939341400279,0.1001014730760387
12.400864,6.015459191288049,0.0997952459203189
12.403247999999998,6.019047875616041,0.0994979407838007
12.405663999999998,6.0163507184510605,0.0992901299666359
12.408048,6.016167518711695,0.0990748757175682
12.410428,6.018777815651665,0.0988356602907441
12.412844,6.024461148524691,0.098556537919085
12.415232,6.034288452517409,0.0982224323966813
12.417611999999998,6.038481541323216,0.097982297741675
12.420008,6.038810198263049,0.0977820119149275
12.422396,6.038347459269964,0.0975821164032262
12.424775999999998,6.041469612889132,0.0973593259935544
12.427191999999998,6.043101522441081,0.097175900073004
12.429576,6.044453892739309,0.0970086132313561
12.431956,6.040451587104345,0.0969194154068235
12.434355999999998,6.0356578855364615,0.0968297933685906
12.436744,6.026999752102604,0.0967780759428276
12.439124,6.019784640907725,0.0967347739141706
12.44152,6.020717702325373,0.0965910595138737
12.443908,6.023513094862578,0.0964336266632309
12.446288,6.027379422586419,0.096260681104883
12.448684,6.031245750310263,0.0960887206026187
12.451072,6.037114178780522,0.0958953596666326
12.453447999999998,6.049547987997473,0.0956061689413361
12.455863999999998,6.061702257960703,0.095335149320313
12.458251999999998,6.073856527923934,0.0950656478909834
12.460632,6.084008697140748,0.0948182815505764
12.463048,6.090808291170786,0.09462291033469
12.465432,6.102031395574239,0.0943595967068324
12.467812,6.116187766283886,0.0940677915591512
12.470208,6.130855993672731,0.093793439963698
12.472596,6.144732825128659,0.0935207143957153
12.474975999999998,6.1599601310249446,0.0932179477447052
12.477376,6.173185336174814,0.0929355129430657
12.47976,6.190694282071236,0.0925956815751369
12.482143999999998,6.20834299759452,0.0922476496919448
12.48454,6.229576605730057,0.0918810262936628
12.486928,6.254023019425508,0.0914748409218609
12.489324,6.278050124240378,0.0910983385026209
12.49172,6.3000751283088325,0.0907464177268607
12.494108,6.323310837190787,0.0903753893437692
12.496488,6.345335841259242,0.0900269677283925
12.498888,6.363496413461722,0.0897119173165996
12.501272,6.374300208984595,0.0894863244504929
12.503652,6.381519111895213,0.089277988692064
12.506056,6.391019654805968,0.0890379399567571
12.508444,6.402522298463142,0.0887791930504771
12.510828,6.41723774768023,0.0884815262341977
12.513224,6.435957398390151,0.0881498954454791
12.515612,6.45653938021963,0.0878105651753708
12.517992,6.4753988005564125,0.087475738623871
12.520395999999998,6.492256120146778,0.0871601670582731
12.522783999999998,6.51111554048356,0.0868288419677586
12.52516,6.535841493432733,0.0864521379845034
12.527568,6.55749441044885,0.0861080189048242
12.529951999999998,6.58301175933094,0.0857382780729906
12.532332,6.605595841906836,0.0853926347776859
12.534736,6.624175722989897,0.0850845220150206
12.537119999999998,6.637168610714289,0.0848082601244437
12.5395,6.6482991673191245,0.0845427732707221
12.541904,6.659010415043379,0.084299471460145
12.544287999999998,6.671072137207992,0.0840312985761635
12.546668,6.685927356051941,0.0837477807754168
12.549072,6.703576071575226,0.0834473398741042
12.55146,6.725089218964483,0.0831202961654817
12.55384,6.740316524860768,0.0828591532710764
12.556244,6.753401960383776,0.0826223379266845
12.558632,6.761691798481033,0.0824176245992165
12.561011999999998,6.765558126204876,0.0822686608311575
12.563408,6.764628856502968,0.082151329575106
12.565796,6.764770521987697,0.0820221949312959
12.568175999999998,6.766914288218844,0.0818766739346333
12.570572,6.766776414449852,0.081761677657922
12.572959999999998,6.76198271288197,0.0816706379079568
12.57534,6.760262047247143,0.0815522206002985
12.577735999999998,6.7553285760524,0.0814680497737581
12.580123999999998,6.752536975230934,0.0813613530522684
12.582504,6.7514679359021645,0.0812522914709773
12.584899999999998,6.753192393252731,0.081129192677508
12.587288,6.755848016163074,0.0810014606664812
12.589672,6.757852012767359,0.0808651174794081
12.592067999999998,6.758505534931287,0.0807536453657395
12.594456,6.758367661162296,0.0806401662680216
12.596836,6.761302823326361,0.0805008322943281
12.599232,6.760233783997592,0.0803922438993017
12.60162,6.763308715788517,0.0802460164089108
12.604,6.768106209072137,0.0800976411113341
12.606403999999998,6.778490695714427,0.0799233082577952
12.608788,6.7892944912373,0.079729180538789
12.611168,6.804893884185923,0.079507654149478
12.613564,6.821284673067464,0.0792894550842347
12.615952,6.83432288676223,0.079110172669861
12.618348,6.849363201203413,0.0789166149110424
12.620748,6.866126077137292,0.0787217636771616
12.623136,6.880607313071034,0.0785562566744743
12.625519999999998,6.895228318631636,0.0783843623942695
12.627916,6.910780489752016,0.0782100319242579
12.630304,6.927683135312755,0.0780137412062651
12.632683999999998,6.948729751993188,0.0777848006293489
12.63508,6.9707075342334,0.077552846497135
12.637467999999998,6.9936164820333895,0.0773184416825441
12.639848,7.017736134646879,0.0770683617839716
12.642243999999998,7.042786952820145,0.0768160181859941
12.644631999999998,7.063973339127438,0.0765867559097306
12.647012,7.090374631741064,0.0763150343417373
12.649407999999998,7.114913593235133,0.0760518047296553
12.651796,7.14243304286364,0.0757347502965525
12.65418,7.167438535066533,0.0754186394171213
12.656575999999998,7.191512861709648,0.075106602088765
12.658964,7.211862526113649,0.0748104131974051
12.661344,7.231700333838452,0.0745007059153021
12.663747999999998,7.25610142156353,0.074140938106137
12.666135999999998,7.276126220743438,0.0737860717967999
12.668516,7.295219854363567,0.0734355468776948
12.670915999999998,7.314732796864276,0.0730672561733745
12.673299999999998,7.336667148991983,0.0726705669234942
12.675684,7.357810105186772,0.0722740571061358
12.678079999999998,7.37909283100842,0.071875633806043
12.680467999999998,7.392367153844401,0.0715265331093504
12.682848,7.403267288881628,0.0711687153025284
12.685251999999998,7.4133760279859375,0.0708091168816078
12.687639999999998,7.420831040037772,0.0704524827586491
12.69002,7.429496756903105,0.0700833088703827
12.692424,7.439373178581937,0.0696994788432197
12.694812,7.445245398767934,0.069340414058915
12.697188,7.450046683767294,0.0689889486494463
12.699596,7.448282588019962,0.0686957382474108
12.70198,7.444656161153073,0.0684073203786671
12.704359999999998,7.441169503913045,0.0681123962837607
12.706756,7.438614012232796,0.0678146404320156
12.709139999999998,7.435639211671965,0.0675348219475321
12.71152,7.430662310364719,0.0672667272610533
12.713919999999998,7.428339136109946,0.0669962617386436
12.716307999999998,7.425364335549116,0.0667162241469635
12.718684,7.423320700548063,0.0664343279534922
12.72108,7.415922389613818,0.0661933505010376
12.723464,7.405451042746517,0.0659707281817808
12.725844,7.389764789572885,0.0657826189867001
12.72826,7.376872033078587,0.0655866179677301
12.730643999999998,7.364351363636626,0.0654111339150591
12.733024,7.348617888634751,0.0652596167958498
12.735428,7.337540241431766,0.0650964376181126
12.737816,7.324180954228645,0.0649553897950395
12.740196,7.3116130629584415,0.0648178103209504
12.7426,7.299976337248016,0.0646776737224278
12.744988,7.293414748217064,0.064509385965822
12.747367999999998,7.288855259932528,0.0643302257180451
12.749772,7.286809729073606,0.0641564050643217
12.752156,7.284344889334105,0.0639998847547339
12.754535999999998,7.28295098478124,0.0638357203066422
12.756932,7.284630116161432,0.0636546627173021
12.759315999999998,7.284958773101264,0.0634929942388284
12.761696,7.288220696347292,0.0633206067419318
12.7641,7.292274015526238,0.0631522277702276
12.766488,7.293114529145269,0.0630067728895549
12.768867999999998,7.298890409816911,0.0628404082503752
12.771272,7.30759955679475,0.0626627825744522
12.77366,7.318590343772724,0.0624633339956833
12.776035999999998,7.333864871497254,0.0622345651066512
12.77844,7.353143600714616,0.0619881380923754
12.780828,7.379359797731007,0.0617131220670312
12.783207999999998,7.402502958814343,0.0614569492871359
12.785612,7.424854723964762,0.0611970074703578
12.788,7.444412992435845,0.060942528331966
12.79038,7.4618293905336515,0.0607025289674428
12.792783999999996,7.475101817511764,0.0604876725052597
12.795168,7.490516114863155,0.0602588143348766
12.797552,7.505139016281625,0.060026579003129
12.799944,7.522974723260012,0.0597734993162941
12.802332,7.538528790238262,0.0595410258023422
12.804712,7.552220526096955,0.0593136418589257
12.807108,7.570196002702202,0.0590593624218978
12.809496,7.583236112254836,0.058824181837434
12.811875999999998,7.595205286620834,0.0585960610459333
12.81428,7.610387266546746,0.0583472226934837
12.816664,7.620913418673765,0.0581051723377359
12.819048,7.62971700930809,0.0578606529452538
12.821444,7.640103391808248,0.0576252997268117
12.823828,7.647696277629075,0.0573953077694977
12.826207999999998,7.6538461412109235,0.0571528295031559
12.828612,7.653477845874325,0.0569185726573689
12.831,7.653389089791445,0.0566735089362174
12.833379999999998,7.653300333708566,0.0564280257919073
