Time,Force,Position
11.640004,2.7878738326326933,0.1755944772718426
11.642392,2.924122327574253,0.1728746336205945
11.644772,3.051200832402759,0.1707036040729058
11.647175999999998,3.169528655998792,0.168771689393383
11.64956,3.274357422764843,0.1670675960310092
11.65194,3.36633875900697,0.1656761462378087
11.654348,3.446264060658092,0.164601876216482
11.656731999999998,3.5194407818231563,0.1635752405973776
11.659116,3.5853098439947244,0.1625573336307411
11.661511999999998,3.64107775049346,0.1616950806332045
11.663896,3.69051638538672,0.1607416100389564
11.666276,3.72482594975592,0.1600590955845027
11.668679999999998,3.7496859847583446,0.1594850316116446
11.671067999999998,3.760952519274301,0.1591900170877504
11.673448,3.7668190518866913,0.1589838168933574
11.675847999999998,3.768960922259968,0.1588967168678039
11.678235999999998,3.773896289312581,0.1587286395530632
11.680616,3.781997240096866,0.1585161245484059
11.694948,3.802014455845296,0.1582662099797172
11.697344,3.809928415174477,0.1581457988452916
11.704508,3.830457487602105,0.1579100215048035
11.7069,3.8354381806250912,0.1578849974096064
11.70928,3.841350039207855,0.1578330913189722
11.711676,3.846842588910039,0.1578258298527143
11.71406,3.859644693463589,0.157627566641107
11.716444,3.876031690629393,0.1573407953060684
11.718848,3.898285220407586,0.1568736850713427
11.721232,3.917745253506443,0.1564799810559784
11.723616,3.934970868433408,0.1561070715307425
11.726008,3.947261116307761,0.1558950450071146
11.73078,3.958805294219568,0.1558323632621482
11.73318,3.9637859872425545,0.1558115489051217
11.735568,3.9761234569451496,0.1555226465925647
11.737948,3.986226508475851,0.1552515433675797
11.740352,3.995957472954216,0.1549520256420696
11.74274,4.002755171126384,0.1547463262102495
11.74512,4.009832408552272,0.1545162879691944
11.747516,4.013836610045106,0.1543897727486363
11.749904,4.020774077844135,0.1541727991881988
11.752284,4.034556465643576,0.1536798295738863
11.754684,4.044893730457624,0.1532663081046581
11.757068,4.052717037846057,0.1528962776824033
11.759452,4.063892920421266,0.1524068505721541
11.761848,4.070273205570723,0.1520573147396529
11.764236,4.073859994040845,0.151778770459509
11.766616,4.072231876204635,0.1516703982205905
11.769012,4.071534923928203,0.1515381278016443
11.7714,4.070837971651771,0.1514053779795513
11.773784,4.072702198629197,0.1511576987752698
11.776176,4.070422454486929,0.1510445162441701
11.778568,4.073869473330191,0.1507735310953217
11.780948,4.077456261800314,0.1504894830415883
11.871756,4.081553011091765,0.1504796579350045
11.874136,4.094168124190213,0.1504133281894033
11.876535999999998,4.113860474714548,0.1501520905354046
11.878924,4.135834465239021,0.1498136738715972
11.881304,4.165305002069963,0.1492418799165391
11.8837,4.206136517073349,0.1483562479346174
11.886088,4.252694795062265,0.1473519916065719
11.888472,4.298741216371983,0.1463452751719646
11.890868,4.344647868054841,0.1453408874118501
11.893256,4.398982231603948,0.1441069877534267
11.89564,4.451733803287217,0.1428952000960273
11.898044,4.503973518291289,0.1416734145677322
11.900432,4.552768110309969,0.1405253862813115
11.902812,4.599048744903033,0.1394131100455466
11.905212,4.645888458003538,0.1382613475660316
11.9076,4.691424918491929,0.1371174649962413
11.909983999999998,4.735658126368204,0.1359866165247595
11.91238,4.774164571258948,0.1349965594928285
11.914768,4.81388172096319,0.1339760308744523
11.917148,4.858534237720044,0.1328495735110915
11.919543999999998,4.904397459290398,0.1317080052378263
11.921931999999998,4.942951126009385,0.1307044420059168
11.924316,4.975917799369701,0.1298186178703254
11.926711999999998,5.004368414557987,0.1290047202101945
11.929099999999998,5.029606224186359,0.1282867824795865
11.93148,5.044042134149727,0.127797057414385
11.933875999999998,5.053961985941063,0.1273808725844219
11.936264,5.065604399225095,0.1269505776340952
11.938648,5.080459618069045,0.1264462555039125
11.941043999999998,5.088517138740824,0.126072510418233
11.943432,5.096854198666324,0.1256789012622903
11.945812,5.105842884897881,0.1252928861811121
12.00556,4.866905597705679,0.1249897442660428
12.010331999999998,4.852847462368257,0.1249867307215171
12.012728,4.8505204963977455,0.1249396974098087
12.015116,4.852709588599266,0.1248335857627591
12.017496,4.860765213413177,0.1246265886381297
12.019892,4.873756205279699,0.1243301633114724
12.02228,4.885396722705862,0.1240784544288264
12.024664,4.89927165830392,0.1238255323713384
12.02706,4.915800320954453,0.1235429824484377
12.029448,4.939778308083211,0.1231509032020329
12.031832,4.968412123010861,0.1226837663145732
12.034228,4.995975002751873,0.1222431263714802
12.036616,5.021396012119608,0.1218423548011225
12.038999999999998,5.04839981335318,0.1214370152547286
12.041396,5.079128276825866,0.1209836935838284
12.043784,5.109856740298549,0.120533715441259
12.046164,5.141656138957872,0.1200657473014847
12.048564,5.168380400937724,0.1197044904574544
12.050952,5.202693757022661,0.1192399642180756
12.053332,5.233235229040243,0.1188766959205041
12.055727999999998,5.259912269191851,0.1185810109020187
12.058115999999998,5.289010718970457,0.1182243774104842
12.0605,5.316386607256366,0.1178890870573221
12.062896,5.342319473303299,0.1175528359674501
12.065288,5.364387907484256,0.1172831046280968
12.067668,5.386456341665216,0.1170181115585195
12.070076,5.410154789540255,0.1166959029814806
12.072464,5.435483251109372,0.1163191904270116
12.074848,5.461091251932211,0.1159298045030703
12.077244,5.484185295329435,0.1155629393344693
12.079632,5.511982388353792,0.1150981071285886
12.082016,5.54220089100515,0.1145806946271089
12.084416,5.580055709589836,0.1139187926007832
12.0868,5.614744944442849,0.1132659352292982
12.089184,5.645057890750691,0.1126564180643864
12.09158,5.675650376312254,0.112033669556445
12.093968,5.703589134821343,0.1114367860849263
12.096352,5.729945101464595,0.1108413245571572
12.098748,5.745778707696564,0.1103813824420614
12.101136,5.770738873929082,0.10973899485139
12.10352,5.795838809788462,0.1090884628072878
12.105916,5.817725940087924,0.1084971712215582
12.108308,5.838821674454471,0.1079099872226098
12.110692,5.8607088047539335,0.1073241859357505
12.1131,5.8818045391204805,0.106742349239916
12.115488,5.901969107927247,0.1061749448875568
12.117864,5.924927173413349,0.105587950372997
12.120259999999998,5.943741267779759,0.1050650256669273
12.122644,5.9616241965863885,0.1045562395203326
12.125024,5.978436190206379,0.1040670683084217
12.127416,5.988682803079679,0.1036947057730158
12.129804,5.997439171885761,0.1033667683707677
12.132184,6.002982735131927,0.103093032997157
12.134576,6.009969320617068,0.1028258060091945
12.136964,6.018538697968045,0.1025583225988292
12.139356,6.02789947125194,0.1022925775102192
12.14176,6.039774201961451,0.1020187390056312
12.144148,6.054162890096573,0.1017357696949424
12.146528,6.0724160100976725,0.1014088383642733
12.148927999999998,6.082101648605662,0.1012152793553877
12.151316,6.095791488606485,0.1009758741916553
12.153696,6.112414594913504,0.1007051346083178
12.1561,6.131831197899858,0.100413510641608
12.158484,6.150456404953295,0.1001235878117046
12.160864,6.166939741633453,0.0998643987614305
12.163256,6.185564948686888,0.0995776153862521
12.165644,6.196973148687575,0.0993845284117633
12.16802,6.211314614994458,0.0991602860678204
12.215824,6.110342696662904,0.0990741383150614
12.218208,6.10866735699845,0.0990350791435281
12.220603999999998,6.111927384386608,0.0989440433053694
12.222988,6.115187411774767,0.0988531275915313
12.225368,6.124453741402176,0.0986955362244952
12.227764,6.138934977335918,0.0984717902932398
12.230152,6.151414112523243,0.0982725454157436
12.232532,6.176976787375708,0.0979284464367483
12.234928,6.201328757414673,0.0976065617429282
12.237316,6.231547260066029,0.0972257276561186
12.239712,6.265118337904161,0.0967940164965072
12.242116,6.2946852142494585,0.0964088014569445
12.244504,6.325323025781396,0.0960149011001325
12.246884,6.35824247731347,0.0955831884509738
12.249288,6.390650072166347,0.0951384536583723
12.251676,6.423057667019223,0.0946896816014531
12.254056,6.452531995565905,0.094270848681792
12.25646,6.476279561127057,0.0939039646850485
12.258848,6.503100162621262,0.0934988828700014
12.261228,6.526707958555553,0.0931427590428376
12.263624,6.551666228930204,0.0927619309274649
12.266012,6.578114743372072,0.0923516596813671
12.268392,6.600698825947966,0.0919771636138787
12.270796,6.624353843710501,0.0915908274912711
12.273184,6.642282098487504,0.0912506617242175
12.275564,6.660210353264508,0.090915991436523
12.277968,6.678138608041512,0.0905831198561848
12.280356,6.689269164646347,0.0903113692897402
12.282736,6.704543692370875,0.0899969125496562
12.285132,6.720889155282043,0.0896737854937926
12.287516,6.734580891140736,0.0893623976990111
12.289896,6.74855216625315,0.0890365612571948
12.2923,6.755865512820256,0.0887569352541827
12.294688,6.764249794573999,0.0884660167478787
12.297068,6.768490105208048,0.0882165827476257
12.299464,6.775943221402013,0.0879297343244984
12.301852,6.784607042409477,0.0876233552284104
12.304232,6.794993424909637,0.0873119258315993
12.306628,6.807521677783074,0.0869774424369296
12.309016,6.817256433977176,0.0866592571123113
12.311395999999998,6.826571881290698,0.086364458802599
12.313792,6.833326149350362,0.0861167409146276
12.31618,6.844084618902859,0.085836010188081
12.318559999999998,6.851909822149162,0.0855775810237836
12.320956,6.864530622821217,0.0852865802015949
12.323344,6.872076286813798,0.0850423947536873
12.32572,6.8780391589405445,0.0847953995289548
12.328128,6.88493319662707,0.0845442018185974
12.330512,6.88782303282076,0.0843273726180591
12.332892,6.88456679714834,0.0841668616671758
12.335296,6.884895454088172,0.0839939957393013
12.337684,6.885875737334062,0.0838294000939851
12.340063999999998,6.890580682819065,0.0836444819768922
12.342468,6.893143757930792,0.0834828778526618
12.344856,6.902504531214689,0.0832740271283645
12.347236,6.910375060431365,0.08309718114576
12.349632,6.917034884834543,0.0829383591618418
12.35202,6.925045183678081,0.0827554360333474
12.354399999999998,6.931053381775199,0.0825896251078949
12.356804,6.939994846178514,0.0824032541646039
12.359192,6.941998842782801,0.0822686349094201
12.361576,6.941628651588331,0.082128093488027
12.363972,6.934181222967974,0.0820466766801409
12.366356,6.9276649599073945,0.0819602802181913
12.36874,6.919146596100399,0.0818897984500556
12.371136,6.910628232293404,0.0818191650602504
12.373524,6.903832429979104,0.0817455833010503
12.375899999999998,6.893963591731749,0.0816990648645124
12.378304,6.883163587924616,0.0816570287936021
12.380692,6.876647324864037,0.0815693959652063
12.383072,6.869199896243679,0.0814865044783445
12.385476,6.864965273183239,0.081370371090765
12.387864,6.862732750869212,0.0812390094996529
12.390244,6.8654355956078,0.0810732981899953
12.39264,6.866276109226831,0.080917313655552
12.395032,6.8686068669130815,0.0807314678459849
12.397412,6.873359034226327,0.0805115753397393
12.399808,6.8759693311662975,0.0803132836962466
12.4022,6.880441959225825,0.0801075849836463
12.40458,6.883843652098714,0.0799129097606247
12.406984,6.893531186464573,0.0796603165618068
12.409372,6.905732678256046,0.0794085290794771
12.411752,6.923149076353853,0.0791094282304999
12.414148,6.943638510384714,0.0787866039653468
12.416536,6.965338649229074,0.0784484400997791
12.41892,6.99025159363335,0.0780791496335358
12.421312,7.01209150210457,0.077734728800178
12.423704,7.037004446508846,0.0773653835294199
12.426084,7.065642053152236,0.0769807139803646
12.42848,7.091346393489429,0.0766153605818011
12.430868,7.111463740467954,0.0762735101162981
12.433248,7.126925259647587,0.0759529664187667
12.435648,7.139733051774744,0.0756389053681739
12.438032,7.148676412035928,0.0753487703469825
12.440411999999998,7.155617671550695,0.0750727038577543
12.442812,7.162698700692323,0.0747919459194659
12.445196,7.171502291326647,0.0745129056648573
12.447575999999998,7.181376817147608,0.0742241413464679
12.44998,7.188318076662376,0.0739527391307397
12.452368,7.1924658394978085,0.0736906941633533
12.454748,7.195682436773463,0.0734329033803413
12.457148,7.193963666996504,0.0732035219641966
12.459536,7.19024279647313,0.0729872217555797
12.461916,7.185450990763118,0.0727812422039206
12.46432,7.181590350612882,0.072572795094798
12.466708,7.178521106395566,0.0723681383393362
12.469088,7.18159793404436,0.0721211386888546
12.471484,7.183883365760236,0.0718717882803249
12.473872,7.183794609677357,0.0716138686782096
12.476252,7.189432616580009,0.0713332421438218
12.478656,7.199446912027831,0.0710490809405279
12.48104,7.213977265647686,0.070757563530915
12.48342,7.2271571448271805,0.0704863442218363
12.485824,7.234330721767425,0.0702487359180138
12.488212,7.243646169080947,0.0699935894942685
12.490592,7.252542307513887,0.0697579969052163
12.492995999999998,7.258505179640633,0.0695383409623398
12.49538,7.265119678073436,0.0693284503432748
12.49776,7.27266534206602,0.069115719981754
12.50016,7.283935668297714,0.0688916503965011
12.502548,7.294786685648831,0.0686860576704501
12.504928,7.312714940425834,0.0684373606589588
12.507324,7.334367857441951,0.0681795428850517
12.509712,7.355881004831209,0.0679292001055432
12.512092,7.374041577033688,0.0677113900292013
12.514492,7.388197947743335,0.0675162188884361
12.516876,7.394206145840456,0.0673716973964828
12.519256,7.398863869497216,0.0672475909640853
12.521652,7.403753910579454,0.0671507512109295
12.52404,7.403708584609079,0.0670787082954221
12.526419999999998,7.402871862705787,0.0670033058442153
12.528816,7.399101874496299,0.0669412944241738
12.531199999999998,7.400546792593145,0.0668439881418385
12.53358,7.411722675168354,0.0667050825726336
12.535996,7.42476088886312,0.0665630802469248
12.538384,7.435005605878552,0.0664280105070211
12.54076,7.445901949200041,0.0663027269145404
12.543167999999998,7.462152968454722,0.0661394754308134
12.545552,7.477752361403344,0.0659672478673339
12.547936,7.491629192859273,0.0657940297314123
12.550339999999998,7.511931635435032,0.0655764485530551
12.552724,7.531722221331592,0.0653472337082025
12.555104,7.550721411295235,0.0651169229334022
12.557508,7.574144111632292,0.0648546249091863
12.559895999999998,7.5981258904767905,0.0645697932854786
12.562276,7.626391410067841,0.0642563075956635
12.56468,7.662013706338502,0.0638973310059203
12.567063999999998,7.70084880816908,0.0635177653945634
12.569444,7.742245089253514,0.0631091085543789
12.571839999999998,7.7857832407112255,0.062687343895149
12.574227999999998,7.831882571422795,0.0622385343983335
12.576612,7.877470045455166,0.0617763132005202
12.579007999999998,7.918913548367843,0.061340363619303
12.581395999999998,7.955980762735348,0.0609054381882258
12.583776,7.989043775610021,0.0604899866514549
12.586172,8.025319594044609,0.0600547310163759
12.588563999999998,8.059221224680442,0.0596081385490103
12.590944,8.083531660464775,0.0591902143346446
12.593343999999998,8.11049582330158,0.0587752087499365
12.595728,8.142674892444717,0.0583358690407182
12.598112,8.167776724161964,0.0579315788095948
12.600508,8.18738411031916,0.0575658779449436
12.602896,8.202335668677463,0.0572067491054403
12.605276,8.206345557743905,0.0568869241201145
12.607672,8.211426381996986,0.0565609750659045
12.61006,8.213713709570731,0.0562391986459045
12.61244,8.210646361211284,0.0559491154468863
12.61484,8.20585645135914,0.0556565977489097
12.617228,8.198412814454521,0.0553620660607848
12.619608,8.190038011990124,0.0550687230251792
12.622004,8.179102030271869,0.0548031871467231
12.624392,8.166675804486395,0.0545579683973699
12.626772,8.156391449074198,0.0543008629384633
12.629176,8.147689885527837,0.0540524267530269
12.63156,8.13726576048878,0.0537991253142745
12.63394,8.124559995449586,0.0535624214171427
12.63634,8.110643525596892,0.0533351948395449
12.638728,8.098170077983175,0.0531205417945629
12.641104,8.081040802570566,0.0529085951786897
12.643508,8.058556851224765,0.0527254317624466
12.645896,8.030857993572631,0.0525645653935078
12.648276,8.010096603719527,0.0523839335857719
12.65068,7.992780336851815,0.0522106856858938
12.653064,7.979840358529274,0.0520437718270832
12.655444,7.965270366512653,0.0519031624344914
12.657848,7.949070360801953,0.0517885845693692
12.660236,7.937154095837807,0.0516507389518184
12.662616,7.924958291619941,0.0515230052732762
12.665019999999998,7.911784100014052,0.0514313903596922
12.667404,7.898190599527584,0.0513552242568918
12.669784,7.880732667175143,0.0512856067864001
12.672187999999998,7.866487540382617,0.0511986425307331
12.674575999999998,7.850240312843675,0.0511172743188335
12.676956,7.833993085304733,0.0510357111550808
12.67936,7.818677023325568,0.0509529972367267
12.681748,7.807225393212377,0.0508637409619912
12.684128,7.79977796459202,0.0507624396213944
12.686532,7.793401471158302,0.0506552288352032
12.688916,7.789818474403917,0.0505467625260011
