Time,Force,Position
11.731671999999998,3.367355829022167,0.1604718393717537
11.734052,3.4474209003001484,0.1597557409591779
11.736451999999998,3.5180364422113564,0.1591537999573468
11.738836,3.5862796921816784,0.158302514055077
11.74122,3.644793873531506,0.1576163476170113
11.743624,3.702565776634529,0.1566367721877585
11.746012,3.746651631452465,0.1558663579473132
11.748392,3.7810556394781503,0.1551141489697618
11.750787999999998,3.8029370822040063,0.1545719856628275
11.753175999999998,3.8124810552272663,0.1543522934241791
11.793784,3.932805291996108,0.1541512524008351
11.796172,3.9405322598701855,0.1541364786033548
11.798567999999998,3.9497494718114825,0.154041046045281
11.800972,3.960596697446859,0.1538495378632752
11.80336,3.9679988000968422,0.1537300659893058
11.805739999999998,3.9753083549482087,0.1535553262396972
11.808136,3.98010395237396,0.1534257146207608
11.810528,3.9856909457326304,0.1532859809616735
11.812907999999998,3.994862831703553,0.1530648770311274
11.815308,4.009389393607669,0.1526604308304374
11.817696,4.024055725138645,0.1522453528996298
11.820075999999998,4.041283235923479,0.1517182569717295
11.822476,4.0606526170815895,0.1511210063904313
11.824864,4.078951063053061,0.1505663124151155
11.827244,4.10781909126406,0.1496636249379238
11.829644,4.135895723542138,0.148768190335305
11.832032,4.163972355820217,0.1478822767539481
11.834412,4.191537131419098,0.1469977660567065
11.836812,4.218310511085062,0.1461245810371702
11.8392,4.24229039407169,0.1453043760824871
11.84158,4.259425357057906,0.1447425807870987
11.843984,4.274697988924567,0.1442365658259192
11.846372,4.291413643030202,0.1437281789410903
11.848752,4.309991628255395,0.1431826595541069
11.851148,4.3273589086670885,0.1426805444296663
11.853536,4.33965105239931,0.1423224817966985
11.855916,4.353525987997368,0.1419504405530292
11.858312,4.37047395952848,0.141496110462101
11.8607,4.389703571059731,0.1409724893974247
11.863079999999998,4.404928981098148,0.1405609299421147
11.865484,4.419642534457367,0.140135493054529
11.867868,4.431422821510391,0.1397837161001919
11.870247999999998,4.4393386766974405,0.1395228050142822
11.872652,4.447394301511351,0.1392511689470278
11.87504,4.451957581511627,0.1391039139726533
11.941923999999998,4.39554184042257,0.1390059930229109
11.944316,4.392935335198339,0.1389843063950573
11.946704,4.393401865907163,0.1388838511755842
11.949084,4.401876799601654,0.1385908332713614
11.951488,4.411282898855923,0.1382785507635627
11.953876,4.420688998110192,0.1379683198098313
11.956255999999998,4.431305802177961,0.1376182408474406
11.958656,4.443133311059228,0.137228728903702
11.961044,4.459896186993107,0.1367243819915896
11.963423999999998,4.48010418591238,0.1361713469243882
11.96582,4.500451954458511,0.1356150459113229
11.968208,4.517726687071588,0.1351335639193922
11.970588,4.532487462259049,0.1346816205297337
11.972984,4.547388007073372,0.1342123384466161
11.975371999999998,4.5593552855815,0.1338009408357895
11.977764,4.573045125582323,0.1333718299889103
11.980168,4.589016605583284,0.1328682340914185
11.982556,4.597119452225438,0.1325442828413505
11.984936,4.6028481110688375,0.1322394062933107
11.987339999999998,4.609368165845154,0.1319316872289764
11.989724,4.616539846927529,0.1316328684191196
11.992108,4.623012679875605,0.1313942491598987
11.994504,4.63414134062257,0.1310749326105218
11.996892,4.63768090726445,0.1309048237103263
11.999272,4.644573049093105,0.130642084110794
12.001668,4.648951233496144,0.130406060004548
12.004056,4.652118713085686,0.1302098839069614
12.006436,4.655286192675228,0.1300152457172931
12.00884,4.657662276331852,0.1298273039229547
12.011224,4.660457668869055,0.1296084269312676
12.013604,4.660739103980645,0.12941511227325
12.016011999999998,4.664093575025291,0.1291530728390553
12.018399999999998,4.66982223386869,0.1288767559769462
12.02078,4.683139986817175,0.1284711547636728
12.023175999999998,4.705816617191688,0.1278558448025501
12.02556,4.72383741976731,0.1273192694729689
12.027944,4.74143891346235,0.1268155110496918
12.03034,4.768771371635753,0.1261293898542766
12.032728,4.800200579100609,0.125414886627966
12.035108,4.830698621005685,0.1247240058235508
12.037504,4.858682705485148,0.1240599449740002
12.039892,4.887365638098911,0.1233480554162223
12.042272,4.9061778366074495,0.1228234162720932
12.044676,4.928435158101382,0.1222585098235316
12.047064,4.948271069968317,0.1217734314611794
12.049444,4.971691874447504,0.121243710675904
12.05184,4.9953922181804105,0.1206943971873937
12.054228,5.0188130226595975,0.1201705776600376
12.056608,5.043025223071703,0.1196500730900114
12.059012,5.065235322737392,0.1191721931067416
12.0614,5.0878175094554186,0.1187213585564734
12.06378,5.111470631360084,0.1182530599693605
12.066176,5.135682831772188,0.1177485351831833
12.068564,5.15109523326571,0.1173967745613941
12.070948,5.161013189199176,0.1171743629061453
12.073344,5.1727934762522,0.1169257165960182
12.075732,5.184713532932085,0.1166668627510011
12.078112,5.192629388119134,0.1164823643457201
12.080508,5.197100120320792,0.1163287392379562
12.082896,5.199289212522313,0.1162288495746673
12.085276,5.205994362895864,0.1160787790189419
12.08768,5.20906739882892,0.1160228846308127
12.090068,5.22187139924034,0.1158157274367732
12.092452,5.235886104465257,0.1155792156099858
12.094848,5.2508319752499535,0.1153329407975169
12.097236,5.262565040474736,0.1151516029023458
12.099616,5.273878796818934,0.1149991486799132
12.102019999999998,5.283190452416718,0.1148798703691441
12.104407999999998,5.289568841708305,0.1148063388655351
12.106788,5.293805360626616,0.1147752695951148
12.109191999999998,5.3011149154779815,0.1146901840088082
12.111575999999998,5.308144931075627,0.114625455856614
12.113956,5.314476098538972,0.114608218870055
12.116352,5.327604964174485,0.1144920540327315
12.11874,5.339942433877081,0.1143773226869783
12.12112,5.354933630632151,0.1142392844282378
12.123516,5.371787158506778,0.1140796652942466
12.125904,5.387569751194767,0.1139409329610613
12.128284,5.406937236495009,0.1137679305513662
12.130684,5.427655196235609,0.1135548007509762
12.133072,5.4446484937370965,0.1133900580045218
12.135452,5.466996467171776,0.1131243904079657
12.137852,5.487621879113759,0.1128796198387979
12.140236,5.509457995869242,0.1126121223458306
12.14262,5.524496414452555,0.1124335274246091
12.145016,5.544889508969061,0.1121599754073832
12.147404,5.568355639418622,0.1118399632167797
12.149796,5.59396364024146,0.1114813766967374
12.152191999999998,5.6223651377436346,0.111092603446268
12.15458,5.652768735992225,0.1106710136524305
12.15696,5.680099298307758,0.1103020963373908
12.159356,5.706638464690376,0.1099385178370162
12.161744,5.729592738460739,0.1096040021019706
12.164124,5.747891184432212,0.1093244208854675
12.16652,5.767120795963462,0.109033791388201
12.168908,5.78169457969582,0.1087950742952149
12.171292,5.793614636375706,0.1085790439865181
12.173688,5.803951901189753,0.1083648195955785
12.176076,5.810704273391548,0.1081836836647059
12.178472,5.818527580779982,0.1079846867919042
12.180867999999998,5.8282132192879725,0.1077670489369199
12.183255999999998,5.832963490743349,0.1076169420793553
12.18564,5.830916064026558,0.1075530473315746
12.188036,5.825795601376711,0.1075355212856085
12.190419999999998,5.829754476899171,0.107387655661732
12.199968,5.8026619195827225,0.1073399727523382
12.202364,5.795586578014702,0.1072987979807798
12.204755999999998,5.789210084580984,0.1072154616803659
12.207136,5.781390568908289,0.1071250546748981
12.209531999999998,5.778925729168786,0.1069467512748932
12.21192,5.779254386108618,0.1067414000394619
12.2143,5.781864683048588,0.106493981037691
12.216699999999998,5.785685684802058,0.1062197278325065
12.219088,5.7945818232349975,0.1058782075464124
12.221472,5.807482163160773,0.1054855641278276
12.223867999999998,5.8223846038329645,0.1050678461108955
12.226256,5.838357979691796,0.1046374148958513
12.228636,5.846462722191818,0.1042980105560965
12.231032,5.853636299132063,0.1039642068767191
12.23342,5.866816178311558,0.1035510724812694
12.235804,5.878133726371496,0.1031547142504338
12.2382,5.884655677005683,0.1028142812176855
12.240588,5.894390433199785,0.1024225259870453
12.242968,5.907198225326943,0.1019875140855371
12.245368,5.920937183013879,0.1015434060445917
12.247752,5.929880543275064,0.1011494274373455
12.250151999999998,5.935471328349472,0.1008166183082282
12.252548,5.938500934170024,0.100542240932342
12.254936,5.940691922229412,0.1003172824634884
12.257319999999998,5.9404615006618045,0.1001439957778729
12.259716,5.9355752512953055,0.1000137007902168
12.262104,5.92747619636889,0.0999340018392576
12.274048,5.874127803639282,0.0998628174197459
12.276436,5.868914793190819,0.0997978269291578
12.278816,5.870639250541385,0.0996523495570739
12.281211999999998,5.873155103824868,0.0995085648610405
12.283599999999998,5.878464453787688,0.0993411950483435
12.28598,5.884565199683423,0.0991740201665192
12.288384,5.889315471138802,0.0990392021196481
12.290772,5.894857138527097,0.0989057684490832
12.293152,5.901329971475171,0.0987652443241117
12.295547999999998,5.913669337035636,0.0985629356625932
12.297935999999998,5.933085940021989,0.0982803107143073
12.300316,5.9557153485682575,0.0979513549671353
12.302711999999998,5.978764065995108,0.0975967765979473
12.305099999999998,6.001952553048818,0.0972346903957414
12.307484,6.029005471968502,0.0968340137359073
12.309879999999998,6.058200261261463,0.0964033691578991
12.312267999999998,6.08474132350195,0.0959915967145954
12.314664,6.1103512201826575,0.0955844164106403
12.31706,6.136892282423144,0.0951716075973707
12.319448,6.16357311429049,0.0947522548409502
12.321827999999998,6.187739988732222,0.0943392109094571
12.324232,6.208973596867759,0.0939604489672422
12.326616,6.22634277313732,0.0936227237754704
12.328995999999998,6.240918452727548,0.0933090946347429
12.3314,6.254562966757999,0.0930034860087255
12.333788,6.268067711161588,0.0927057598587217
12.336168,6.280920829259119,0.0923994643374638
12.338572,6.291120220304176,0.0921072239588849
12.34096,6.300667985043175,0.0918078237088995
12.34334,6.308353418662618,0.0915235150300228
12.345736,6.307239053363475,0.0913224816956746
12.348124,6.305053752877693,0.0911357421831211
12.350508,6.305941488324966,0.0909153132145409
12.352911999999998,6.307760389332017,0.0906890113803077
12.355296,6.309439520712209,0.0904710239852563
12.35768,6.309116551345984,0.0902730570423988
12.360079999999998,6.30786241641998,0.0900811441524051
12.362467999999998,6.310892022240531,0.0898353028825068
12.364848,6.313409771381885,0.0895743162655401
12.367252,6.316998455709877,0.0893008665099639
12.36964,6.321378535970786,0.0890277620064066
12.37202,6.323616745858418,0.0887807374787719
12.374424,6.324784020559413,0.0885469230201909
12.376812,6.322738489700491,0.0883523774916833
12.379191999999998,6.322695059587986,0.0881391520493774
12.381588,6.322931168729202,0.0879113055320445
12.383976,6.324889839363114,0.0876791746062582
12.386356,6.327639905929945,0.0874483779970754
12.388756,6.329970663616194,0.0872398519020414
12.391144,6.336305622795278,0.0869956998578868
12.393524,6.346365244213475,0.0867280921976116
12.395928,6.355353930445033,0.0864732046867313
12.398316,6.360990041489815,0.0862652658826116
12.400695999999998,6.365974526228539,0.0860492207186292
12.4031,6.370027845407486,0.0858393160222776
12.405484,6.377014430892628,0.0856062370101912
12.407863999999998,6.384652642683827,0.0853819471209824
12.41026,6.391871545594445,0.0851813700225998
12.412648,6.40025393149032,0.0850068466705482
12.415027999999998,6.408217008505614,0.0848546434599185
12.417432,6.42097568294666,0.0846706386627768
12.41982,6.438529954813457,0.0844542770433687
12.422199999999998,6.461950759292643,0.0841961707696982
12.424604,6.4923090315708585,0.0838824776255924
12.426992,6.519594267916019,0.083599290402312
12.429372,6.54659996500746,0.0833307242540585
12.431768,6.572394957285403,0.0830816344890533
12.434156,6.598189949563344,0.0828331926710426
12.436535999999998,6.625055877027925,0.0825737409378788
12.438932,6.646567128559313,0.082375739173666
12.44132,6.66793861046384,0.082185725808033
12.443699999999998,6.69438522904784,0.0819534998411733
12.446104,6.724324192445476,0.0816745320719506
12.448492,6.754775012522308,0.0814129334102968
12.450872,6.787227933345559,0.0811375391057758
12.453272,6.81874968860903,0.0808700039188948
12.455656,6.853344479805557,0.0805780638893871
12.458035999999998,6.886076939882528,0.0802970715596305
12.46044,6.91936847846694,0.0799927218211221
12.462828,6.95373095223799,0.0796796864814268
12.465208,6.983158058956428,0.0794038407022573
12.467604,7.009931438622392,0.0791367557542999
12.469992,7.030698516049104,0.0789167779518932
12.472371999999998,7.048672096796482,0.0787118692131404
12.474768,7.070649879036694,0.0784793925208008
12.477156,7.097051171650319,0.0782025301481288
12.479535999999998,7.128015744264219,0.0778757094424299
12.48194,7.162193122438034,0.0775222038743732
12.484328,7.1957188743057925,0.0771620596511669
12.486707999999998,7.229663935054131,0.0767822422394194
12.489112,7.264959470242829,0.0763831541049127
12.491496,7.295319638378913,0.0760181898467403
12.49388,7.328333533567475,0.0756553387333515
12.496284,7.364560234315951,0.075268058177449
12.498668,7.400135308758368,0.0748762699090963
12.501052,7.435710383200786,0.0744872206549875
12.503448,7.468352191337008,0.0741169423547571
12.505832,7.503135869846509,0.0737308533422331
12.508212,7.534055116490037,0.0733651482080093
12.510608,7.560458304961531,0.0730096615523036
12.512996,7.588072198246525,0.0726391743412449
12.515375999999998,7.615825861158378,0.0722642049061993
12.517767999999998,7.644138602577673,0.0718655413853129
12.520155999999998,7.669518077690774,0.0714823163426336
12.522536,7.692243825751398,0.0711053165635241
12.524931999999998,7.712687933811886,0.0707566140361679
12.527319999999998,7.728056905192902,0.0704424307249767
12.5297,7.737279804707806,0.0701687536124538
12.532096,7.749156431275186,0.0698943207521331
12.534484,7.76410609377562,0.0696016157107025
12.536864,7.774260158850303,0.0693282830550719
12.539264,7.786695863925123,0.0690332424440212
12.541652,7.789400604521582,0.0687815725439619
12.544032,7.782653919893394,0.0685608204610881
12.546428,7.77376536489193,0.0683563913649238
12.548812,7.763154248397769,0.0681510761726429
12.551196,7.753753836717108,0.0679320584387881
12.553592,7.736345022050778,0.067754296760892
12.55598,7.718796437757589,0.0675813112451417
12.558376,7.70590368126329,0.067395690156294
12.560771999999998,7.69408185995563,0.0672018780440944
12.563156,7.683982600140668,0.0670092139011525
12.56554,7.675466132191541,0.0668230517235601
12.567935999999998,7.666018498682636,0.0666381248275922
12.57032,7.653637598867536,0.0664649534617774
12.572704,7.634459000880267,0.0663185159895782
12.5751,7.612207366959943,0.066189605813266
12.577488,7.595170639345952,0.0660256904264302
12.579868,7.573478083933068,0.0658726810298259
12.582264,7.547222248519909,0.065762652801616
12.584652,7.524411536092145,0.0656547821821698
12.587048,7.50025034922402,0.0655655598408501
12.589444,7.482095464595147,0.065445409130752
12.591831999999998,7.471529674071362,0.0653012880613284
12.594215999999998,7.460824113920714,0.0651624786343165
12.596612,7.450770180076126,0.0650327243080813
12.598999999999998,7.43885391511198,0.0649067987949354
12.60138,7.4370879235067795,0.0647252204897444
12.603775999999998,7.437324032647995,0.0645333979908846
12.606163999999998,7.434906414736735,0.0643422537946513
12.60854,7.429415760892422,0.0641683788975811
12.610943999999998,7.422202545555411,0.0639929843095298
12.613331999999998,7.4149893302184,0.0638178977249845
12.615712,7.414853352307278,0.0636072586069144
12.61812,7.420304367754826,0.0633858811871732
12.620504,7.4346949517478205,0.0631256688641145
12.622887999999998,7.4541606724202865,0.0628387943434516
12.625279999999998,7.468271717159561,0.0625894913636551
12.627667999999998,7.484384862645252,0.0623310774305012
12.630052,7.504409661825159,0.0620222034856497
12.632447999999998,7.524062373952728,0.0616935442561489
12.634835999999998,7.543063459774239,0.0613555744395119
12.63722,7.561133380035972,0.0610209191628145
12.639624,7.577201199551288,0.0606969386527331
12.642008,7.594479723880103,0.0603604185978614
12.644388,7.610966852276001,0.0600199174964681
12.646788,7.6274539806718975,0.0596796273329397
12.649171999999998,7.638726202761462,0.0593714143053695
12.651552,7.653071460784083,0.0590499299779523
12.653952,7.667276949179842,0.0587340029827515
12.656339999999998,7.684695243135517,0.0583977703187668
12.65872,7.700902832277694,0.058074302811046
12.661115999999998,7.715387859927175,0.0577486987806033
12.663503999999998,7.724937520524043,0.057442707505258
12.665884,7.731973223695296,0.0571310726588507
12.66828,7.730209127947965,0.0568460059200398
12.670668,7.73044713294705,0.0565550401474919
12.673048,7.737250518692825,0.0562202090127433
12.675447999999998,7.745916235558159,0.0558848910485733
12.677836,7.752160542796495,0.0555739575704707
12.680231999999998,7.755471583728636,0.0552706189015257
12.682628,7.760644955780333,0.0549660658249717
12.685016,7.7656785582051695,0.0546673435526724
12.687395999999998,7.771783095816645,0.0543632893225976
12.689792,7.7777478638012605,0.0540650696334731
12.69218,7.784643797345653,0.0537661487073738
12.69456,7.791120422009466,0.0534828794754208
12.696964,7.798947521113637,0.0531830052178501
12.699352,7.8018392531651966,0.0528979558612599
12.701731999999998,7.807664251522953,0.0526065006701817
12.704128,7.810416213947652,0.0523275449464076
12.706516,7.81465842043957,0.0520269046877181
12.708899999999998,7.815967360625294,0.0517316726832156
12.711296,7.813923725624241,0.0514576735533192
12.713684,7.808527515436414,0.0512056871724168
12.716067999999998,7.807787133047477,0.0509499588432962
12.718464,7.80104044841929,0.0507131052701056
12.720852,7.78893908785791,0.0505051893340527
12.723231999999998,7.774835626550114,0.0503035383352039
12.725632,7.759521460428819,0.0501120980125903
12.72802,7.747652417292917,0.0499294876765965
12.730399999999998,7.733641503783737,0.0497579403547867
12.732796,7.717628489528139,0.0495916529222201
12.735184,7.698542439339487,0.0494362467580839
12.737567999999998,7.678385453964198,0.0492859141391582
12.739964,7.658228468588908,0.0491351264060919
