Time,Force,Position
34.141096,1.9523468748298465,0.1800308884092084
34.143491999999995,1.9770671402054116,0.1789138440259209
34.14588,1.9961078644236887,0.1780449933443015
34.148264,2.0258579405083523,0.1763649409741812
34.150664,2.0581219740186296,0.1747110318748175
34.153051999999995,2.091549490514163,0.1731009100702084
34.155435999999995,2.129632834808588,0.1712450086494896
34.157832,2.163200120930981,0.1696727426322521
34.160219999999995,2.193462053694842,0.1681882926406868
34.162603999999995,2.2234916690332254,0.166612238974154
34.165,2.2488654565727173,0.1653516294899286
34.167392,2.2781036759781825,0.1639147414527891
34.169776,2.305991420943289,0.1626276235374319
34.172172,2.336021036281673,0.1612005322400552
34.174564,2.372056953859307,0.1594065009448358
34.176944,2.401714482145353,0.1579383527210219
34.179344,2.426855952259368,0.1566771187165226
34.181732,2.445339493828074,0.1557726987977383
34.184116,2.4616811650235038,0.1550202228432292
34.186512,2.4814679592043256,0.1541658114849807
34.188904,2.498181717452092,0.1535110339405387
34.191288,2.515035245326718,0.1528417804561046
34.193684,2.53631228357476,0.1518888319020921
34.196076,2.547718587717577,0.1514843694542763
34.198456,2.551675567382168,0.1514008071441052
34.203247999999995,2.5599616137636865,0.1512881452007647
34.205632,2.5645702197343345,0.1512156764594119
34.208048,2.573974423130735,0.1509353025527913
34.210436,2.5860323535796104,0.1505724209367119
34.21282,2.599161219215124,0.1501537216110662
34.215216,2.608146113730944,0.1499510981468141
34.217604,2.6187138001126,0.1497216089803314
34.219988,2.630864278360091,0.1494748944459757
34.222384,2.639662181420807,0.1494149556693674
34.224776,2.65004287634736,0.149320321288953
34.227156,2.6634966072069672,0.1490767932666583
34.229555999999995,2.681606165865467,0.1486479656421969
34.231944,2.7027887604570218,0.1480807642054242
34.234324,2.723179959115659,0.1475608898860015
34.23672,2.745573258520713,0.1469614873993863
34.239107999999995,2.769037493112405,0.1463257060187619
34.241492,2.7895684613979017,0.1458206438354483
34.243888,2.8114499041237577,0.145219869504861
34.24628,2.834402282036252,0.1445511794565314
34.24866,2.854700932896271,0.1439690478040635
34.251056,2.8770016845027078,0.1433103087284635
34.253448,2.8968810264821463,0.1427895367239218
34.255828,2.9183431603274217,0.1422677491191021
34.258227999999995,2.935149466373805,0.1419004717049115
34.260616,2.9506052979798296,0.1416192444033242
34.262996,2.968202999959132,0.1412426571326808
34.265392,2.987151176378793,0.1407951184741984
34.267784,3.004097252052037,0.1404351302552418
34.270164,3.022114262911919,0.1400273694660458
34.272564,3.0461375760110525,0.1394060699381555
34.274952,3.069509262804128,0.1387850977311073
34.277336,3.093160488850923,0.1381419053983969
34.279732,3.113878448591523,0.1376080969523173
34.282124,3.1281707972122925,0.1373364022935928
34.284507999999995,3.1432545417659794,0.1370643894503134
34.286904,3.1583382863196667,0.136802314997243
34.289296,3.1746327356868527,0.1364852754041551
34.29168,3.18943694098682,0.1362565928994708
34.294076,3.204753002965984,0.1360477164653341
34.296468,3.222071165691565,0.1357732376424577
34.298848,3.239109789163426,0.1355383996568018
34.301244,3.257498887075646,0.1352230439737351
34.303632,3.26843866050964,0.135111897237534
34.306016,3.283522405063326,0.1348487415348459
34.308416,3.2970233577511774,0.1345969909108561
34.310804,3.308661979319472,0.134400802947443
34.313188,3.3173673345815717,0.1343024320740995
34.315584,3.327143625030309,0.1341651349064584
34.325143999999995,3.3555394349588754,0.1340423714390189
34.327528,3.362894315780616,0.1340276687882911
34.329927999999995,3.3758834117892693,0.1337842292725335
34.337095999999995,3.3925952741791665,0.1336891695702205
34.339488,3.3998576072022897,0.1336044645204717
34.341868,3.408889723546352,0.1334049839143929
34.344268,3.4161992783977184,0.1332384749496507
34.346656,3.419923940636832,0.1331469979737571
34.349056,3.4267216388090005,0.1329598368362908
34.351456,3.4415277399668365,0.1325338287276154
34.353843999999995,3.454052201124536,0.1322021825191739
34.356227999999994,3.470720633401928,0.1317377194340534
34.358628,3.4871095264256,0.131301591325012
34.361016,3.5033586498224127,0.1308796632377722
34.44228,3.401648244959791,0.1308360508585638
34.44468,3.407142690519844,0.1306407245429847
34.447067999999994,3.413708071266534,0.1304078895548824
34.449456,3.422415322386503,0.1301023346511118
34.451856,3.4331246742528885,0.129742757820278
34.454248,3.4438340261192737,0.1293799579231914
34.456636,3.4596185146651317,0.1288682372674045
34.459032,3.478476039144044,0.128267394589267
34.461424,3.491047722129986,0.1278631239573656
34.463812,3.4994754339962344,0.1275883702409292
34.466207999999995,3.506971980302704,0.1273360818730719
34.468599999999995,3.5143287569823136,0.1270990546073602
34.470984,3.524618799968118,0.1267815981092078
34.473392,3.5402162970588726,0.1263697081183212
34.475784,3.5556740245227663,0.1259718462859171
34.478184,3.569129651240244,0.1256401085254721
34.480592,3.5865894794505544,0.1252067874173908
34.48298,3.610195379526976,0.124608023941009
34.48538,3.6345926755363154,0.1240077692746429
34.48778,3.6619232378518505,0.1233597933062682
34.490176,3.690184965727164,0.1227021215442137
34.492576,3.713651096176725,0.1221667878658872
34.494983999999995,3.736325830693368,0.1216345275784812
34.497372,3.760862896329568,0.1210784661762823
34.49978,3.785399961965768,0.120534272243505
34.502176,3.812730524281304,0.1199410698350791
34.504576,3.83885038178334,0.1194056405678908
34.506975999999995,3.861338124844879,0.1189978850301484
34.509364,3.891974040518946,0.118391055680459
34.511764,3.925682992126069,0.1177020260552382
34.514176,3.9592521741063313,0.1170246998076399
34.516563999999995,3.993752521646373,0.1163334810656383
34.518947999999995,4.027461473253497,0.1156506098125356
34.521348,4.0529297044494745,0.115102062069313
34.52374,4.077466770085674,0.1145659565023687
34.52612,4.101584526841292,0.1140723842799954
34.528528,4.121558312477219,0.1136923935242711
34.530919999999995,4.13738812699345,0.1134254460739199
34.552464,4.185942818155175,0.1132114358914362
34.554848,4.191250272260125,0.1131492061051596
34.557244,4.194555625618658,0.1131287330467575
34.559636,4.197069583044272,0.1131106592163207
34.562016,4.200654475656525,0.1130672883953576
34.564416,4.20945427457511,0.1129141610835875
34.566807999999995,4.2190454694266135,0.112760087026518
34.569192,4.237156923942982,0.1124754704608214
34.571611999999995,4.257410248832628,0.1121415993124497
34.574,4.278362421856576,0.1117543840600067
34.576384,4.2993145948805225,0.1113658367127995
34.578784,4.319475371971552,0.1109812034845579
34.581171999999995,4.343780120182274,0.1105177495319452
34.583555999999994,4.373951401005386,0.1099542829430036
34.585964,4.40426245145536,0.109380540956266
34.588356,4.436343285226272,0.1087308240976098
34.59074,4.463348982317713,0.1081837425119751
34.593136,4.495941672767824,0.107566862509509
34.595527999999995,4.533097643218208,0.1068405276953113
34.597912,4.570533152922314,0.1061068876838973
34.600311999999995,4.605594474827665,0.1053758384655208
34.6027,4.635301120799824,0.1047646084500275
34.605084,4.662074500465787,0.1042027210125249
34.607484,4.690570441624447,0.1036324823273233
34.609876,4.719345922036827,0.1030463668497958
34.612264,4.73983346020982,0.1026232856166407
34.614664,4.759250063196173,0.1022227136053172
34.617059999999995,4.77694410468983,0.1018427947684513
34.619444,4.792636045437071,0.1014954564018633
34.621848,4.80790867730373,0.1011822382029565
34.624232,4.82453178361075,0.1008291086616006
34.626616,4.8408753506640485,0.1004964012703343
34.679199999999994,4.787479736106197,0.1004591491026794
34.681588,4.7876667275613,0.1003896208790496
34.683976,4.7858516182699855,0.1003497357184588
34.686367999999995,4.783105343418894,0.1003196271052843
34.688756,4.788087932299749,0.1001923746544272
34.69114,4.793350060434326,0.1000435805973817
34.69354,4.803035698942316,0.0998039710744148
34.695924,4.814211581517525,0.0995151772306202
34.698312,4.826598168906233,0.0991997539687386
34.700703999999995,4.836191259615605,0.0989129799340237
34.703092,4.844573645511479,0.0986556939730281
34.70548,4.852956031407354,0.0983989002279156
34.70788,4.858405150997033,0.0981809735226759
34.710268,4.863714500959852,0.097974489729578
34.712652,4.867673376482312,0.0978067148344558
34.71506,4.8665571153253,0.097716924238783
34.717444,4.8714471564075374,0.09753931688116
34.71984,4.876057658236056,0.0973817986747345
34.722244,4.8836014263707686,0.0971865957804451
34.724632,4.892355899318979,0.0969632090108764
34.727036,4.900970602640331,0.0967498824540559
34.729432,4.908002514095847,0.0965391803405493
34.73182,4.917316065551499,0.0962812658185739
34.734216,4.92770055219379,0.0960060472123006
34.736612,4.929285239917495,0.0958417606555968
34.739,4.933942963574256,0.0956310417464361
34.741404,4.9365985864846005,0.095448255920191
34.743804,4.939393979021805,0.0952572119346324
34.746188,4.941258205999231,0.0950763885993083
34.748584,4.948337339282988,0.0948161850249997
34.750988,4.9584895084998015,0.0945129411332272
34.753384,4.968641677716615,0.0942102457184036
34.755784,4.982937818053123,0.093846900679866
34.758176,4.99844466320313,0.093460927364834
34.760572,5.017443853166771,0.093005445309272
34.762968,5.042449345369664,0.0924736409104521
34.765356,5.0668032112665,0.0919417561939478
34.767756,5.089294746043778,0.0914231005309617
34.770152,5.106059517835526,0.0909603502919
34.77254,5.119891023321078,0.0905306603507486
34.77494,5.134141837687212,0.0900744697323491
34.777336,5.147973343172766,0.089649682539683
34.779723999999995,5.159802747911902,0.0892503208145923
34.782104,5.167907490411926,0.0888807433325497
34.7845,5.181227139218281,0.0884344006077619
34.786888,5.199482155077249,0.0879423712762236
34.789272,5.220670437242411,0.0874219610124177
34.791664,5.244652216086908,0.0868894367691052
34.794052,5.262627692692155,0.0864220640650877
34.796451999999995,5.275248493364209,0.0860367906740681
34.798848,5.2870778981033455,0.0856536760787168
34.801232,5.29997823802912,0.0852567167439179
34.803616,5.30980554202184,0.0848994717180817
34.806012,5.317351206014423,0.0845837758733033
34.8084,5.32196360370081,0.0842977979415808
34.810784,5.322991108774943,0.0840303490724423
34.81318,5.318803707542745,0.0838285402468223
34.815568,5.318760277430241,0.0835760347565841
34.817948,5.326305941422822,0.0832657160285397
34.820348,5.339066511721737,0.0828926792359177
34.822736,5.3535496435133485,0.0825192774750703
34.825116,5.364168343438985,0.0821770432388711
34.827512,5.374787043364623,0.0818338977112194
34.829899999999995,5.390713197395209,0.0814725666264974
34.832284,5.405428646612297,0.08113631488592
34.83468,5.409202426537522,0.0809078252839015
34.837064,5.408972004969916,0.080719457301272
34.839448,5.400593410789779,0.0806191594939721
34.841843999999995,5.402225320341728,0.0804196160211055
34.844232,5.408140970640231,0.0801639086020449
34.846627999999995,5.413916851311874,0.0799183666106238
34.849024,5.419552962356654,0.0796825682542323
34.851412,5.426120238961215,0.0794411640527074
34.853796,5.432827285192636,0.0791915878375679
34.856192,5.441256892916754,0.0789400744964861
34.85858,5.453131623626264,0.0786857592056934
34.86096,5.469662182134665,0.0784043236902031
34.863356,5.485913201389347,0.0781431453286388
34.865744,5.499230954337832,0.0779090998840983
34.868123999999995,5.507705888032323,0.0777611841855348
34.870524,5.515109886540176,0.077627609830328
34.872912,5.526238547287143,0.0774738244147027
34.875291999999995,5.541231639900083,0.0772939597882125
34.877688,5.554781710274045,0.0771021723116045
34.880075999999995,5.56819201102115,0.0769185711337991
34.882456,5.58947094512706,0.0766724700029693
34.884851999999995,5.615825015912443,0.0763806214982966
34.88724,5.647533762631018,0.0760232490158932
34.889636,5.677100638976317,0.0757006661441249
34.892032,5.7054568105081165,0.0754023599535266
34.89442,5.733533442786195,0.0751219194288591
34.8968,5.762681010250912,0.0748327633507776
34.899196,5.792619973648548,0.0745481714260569
34.901584,5.820696605926627,0.0742717185111863
34.903963999999995,5.847842072644928,0.0740010327700677
34.906372,5.872194042683894,0.0737455671505597
34.908756,5.896825551976581,0.0734779774384315
34.911136,5.91959473014971,0.0732203914850012
34.913532,5.939710181270364,0.0729677386456688
34.91592,5.958382610152043,0.0726972686935277
34.918304,5.974121772727527,0.0724464121962459
34.9207,5.989069539370091,0.0721927734088724
34.923088,6.003086140452879,0.0719465842257473
34.925467999999995,6.014681331908669,0.0717387485757978
34.927864,6.028558163364596,0.0715021790593557
34.930252,6.037499627767912,0.0713004596831848
34.932632,6.046441092171227,0.0711018969211632
34.935028,6.056034182880599,0.0709160910934824
34.937416,6.061762841723999,0.0707527617072922
34.9398,6.061764737581867,0.0706169328250504
34.942196,6.06004407194704,0.070480859190329
34.944579999999995,6.056461075192656,0.0703521274955097
34.946976,6.055159718438409,0.0701956516131199
34.949376,6.058793728736775,0.0700085050160167
34.951764,6.061496573475361,0.0698245306774138
34.954148,6.064339187840809,0.0696335850448847
34.956544,6.0653194710867,0.0694499645320368
34.958928,6.06737068951923,0.0692564934745658
34.961312,6.073937966123791,0.0690550565046682
34.963712,6.085720149034683,0.0688098688579073
34.9661,6.102717238251909,0.0685222863262707
34.96848,6.121856197842412,0.068216674846911
34.970876,6.136990955940082,0.0679375980289984
34.973264,6.156549224411164,0.0676134375133274
34.975648,6.174105392135829,0.0673045592827855
34.978044,6.19580553098019,0.0669642937377504
34.980432,6.21135959795844,0.0666692767679517
34.982812,6.223980398630493,0.0663902350461317
34.985212,6.239674235235603,0.066090490597966
34.9876,6.26309693557266,0.0657545991003738
34.989984,6.287590571096356,0.0654094582849458
34.99238,6.3078004658734965,0.0651007203371875
34.994768,6.324145928784665,0.0648120898176953
34.997148,6.338489290949416,0.0645386648325846
34.999548,6.354694984233723,0.0642606139253903
35.001936,6.371692073450948,0.0639881317977661
35.00432,6.387618227481536,0.063725256984005
35.006716,6.401542280765705,0.0634748045762922
35.009104,6.414814707743819,0.0632160337083129
35.011484,6.431532257707324,0.0629662454837059
35.013884,6.445968167670692,0.0627435001249373
35.016272,6.459193372820561,0.0625379288146531
35.018652,6.475631383530346,0.0623065177346392
35.021052,6.488996358307075,0.0620966538273225
35.02344,6.500079693083666,0.0619099958392202
35.02582,6.50995232304676,0.0617398319382283
35.028223999999994,6.522897988942908,0.0615498585743342
35.030612,6.538125294839194,0.0613368778937751
35.032992,6.5490688599889255,0.0611581227045197
35.035388,6.5572189284593225,0.0609863708836154
35.037776,6.562295960996664,0.060832644884694
35.04016,6.573519065400116,0.0606411130541805
35.042556,6.584462630549848,0.0604623966365041
35.044944,6.591262224579886,0.0603103892767252
35.047324,6.598341357863644,0.0601461710097363
35.04972,6.605560260774262,0.0599762602283664
35.052108,6.614781264431298,0.0597966972910988
35.054488,6.627075304021388,0.0595998737528792
35.056884,6.634154437305146,0.0594374251834416
35.059272,6.634715411670456,0.0592879049867319
35.061668,6.631411954169792,0.0591508745112709
35.064063999999995,6.626385935176433,0.059010550949057
35.066452,6.62322224730263,0.0588678456009141
35.068832,6.619127393869048,0.0587264171269221
35.071231999999995,6.622529086741937,0.0585311985705199
35.07362,6.621135182189074,0.0583486742032596
35.076,6.623093852822986,0.0581377012171543
35.078396,6.625052523456898,0.0579276963937498
35.080784,6.630363769277587,0.0576885038603309
35.083164,6.635814784725135,0.0574435274424647
35.08556,6.648343037598573,0.0571658409343242
35.087948,6.659148728979313,0.056885906539026
35.090332,6.671444664427273,0.0565801432560082
35.092728,6.687093175062008,0.0562450211081445
35.095116,6.697666549017271,0.0559333971701486
35.0975,6.704515260733421,0.0556257829676409
35.099896,6.708570475770237,0.055321322931522
35.102284,6.70755055412758,0.0550405538716961
35.104664,6.71002297729856,0.054724345816905
35.10706,6.710493299723122,0.0544148623539346
35.109448,6.7132452621478205,0.0540828852715652
35.111832,6.715997224572522,0.0537503482405108
35.114228,6.715815920691026,0.0534286138210282
35.116616,6.7144239119960325,0.0531191758253877
35.118996,6.702881629942093,0.0528558503474573
35.121392,6.694552153448069,0.0525691709160029
35.123784,6.681938936207493,0.0523113011996778
35.126168,6.663179647100804,0.0520814682648704
