Time,Force,Position
13.430531999999998,2.454713895151801,0.16088457430546
13.432912,2.4648622726528764,0.1606852753333204
13.435311999999998,2.4839502186993974,0.1600424706313681
13.437699999999998,2.5023865384398603,0.1593821590824782
13.44008,2.5232442678073217,0.158547814617294
13.442475999999996,2.539958026055088,0.1579499769121871
13.444864,2.558813654676132,0.1572241891129696
13.447248,2.576598348110537,0.1565778621287936
13.449643999999996,2.598247473410916,0.1557672631107655
13.452035999999998,2.622829865017489,0.1548368057584536
13.45442,2.6520680844229547,0.1537543729003196
13.456815999999998,2.677581641589307,0.1528104210527652
13.459208,2.7003017020763243,0.1519797771530085
13.461588,2.7253034025634784,0.1510411477213294
13.463988,2.755100700476385,0.1499415865735929
13.466376,2.7841066024563736,0.1488615984869814
13.468756,2.809108302943528,0.1479439690443038
13.47116,2.8333186074977643,0.1470573484737052
13.473544,2.8568772857459424,0.1461982983525039
13.475924,2.8795047984343425,0.1453922227709209
13.478328,2.9030634766825205,0.1445696876221632
13.480716,2.927693090117337,0.1437146294986807
13.483095999999998,2.949249667619099,0.1430162097239821
13.485492,2.9728083458672776,0.1422377339420032
13.48788,2.997949815981292,0.141455759422836
13.490259999999996,3.02709548758814,0.1405266555605047
13.492664,3.0562411591949887,0.1396088482388077
13.495048,3.0871093922945336,0.1386718381860173
13.497431999999998,3.118769021326997,0.1377655831408092
13.499836,3.148286779986182,0.1369637091072
13.50222,3.172217545286698,0.1363356630350219
13.504599999999998,3.2000127424531875,0.1355824819821687
13.507004,3.2313928322319296,0.1347455562573606
13.509392,3.2591408075701764,0.134095549247402
13.511772,3.279811545482534,0.1336950764044355
13.514168,3.3002027441411705,0.1333248309679458
13.516556,3.327391640971976,0.1327462484402401
13.518935999999998,3.3564428689223376,0.1321329420936121
13.52134,3.3827931479919817,0.1316693299453075
13.523724,3.409515514113964,0.1312518200131472
13.526103999999998,3.4348874057955863,0.1309103252373744
13.528511999999996,3.461050693410127,0.1305757932964624
13.530896,3.4858635065843084,0.1303095122495599
13.533276,3.511607485318269,0.1300275528145124
13.554776,3.650324611715069,0.1300256946694108
13.557172,3.66135693294768,0.1300152670704138
13.55956,3.6756020597402057,0.1298961628768022
13.561939999999998,3.693339531346368,0.1296470342025999
13.564336,3.710285607019612,0.1294158611371699
13.566724,3.722436085267104,0.1292991098576051
13.569103999999998,3.737147742768453,0.1290734043752466
13.571508,3.74841427728441,0.1288973364252897
13.573896,3.758517328815111,0.1286910360720093
13.576275999999998,3.763964552546921,0.1285854662999986
13.585836,3.7587515420984574,0.1285240238087898
13.588224,3.76042877762078,0.1283577029718615
13.590607999999998,3.769462789822712,0.1279676877992925
13.593004,3.7779849453454464,0.1275549080102807
13.595387999999998,3.783294295308265,0.12724394689345
13.597772,3.784739213405111,0.127025477331814
13.600167999999998,3.7807369077701463,0.1269138946203593
13.602555999999998,3.775523897321683,0.1268501880187663
13.604952,3.773523692433136,0.1266843759228433
13.607348,3.771663257171448,0.1265053041809449
13.609736,3.767800721163344,0.1263793279236228
13.612116,3.759142587729488,0.1263615208559137
13.6169,3.743456334555855,0.1262393805664454
13.619279999999998,3.739221711495413,0.1260776748271262
13.621684,3.73549894511417,0.1259376419541542
13.624072,3.737782480972177,0.1256460034689723
13.626456,3.743930448696157,0.1252677055796026
13.628852,3.758086819405804,0.124688953280516
13.63124,3.772103420488591,0.124120247231887
13.63362,3.786120021571378,0.1235529532117567
13.636016,3.793990550788055,0.1231568242095107
13.638404,3.7975773392581766,0.1228880255841337
13.726795999999998,3.7085745952926175,0.1226970045653024
13.729196,3.716488554621799,0.1226538888918268
13.731584,3.726497162496015,0.1226245371618098
13.73636,3.750191818655315,0.1225754725152917
13.738748,3.7656004284330966,0.1225352483066241
13.741132,3.787666966756186,0.1223684078931988
13.743528,3.8103851313853343,0.1222076469189443
13.745916,3.837526806387896,0.1219138402325498
13.748295999999998,3.868952222137013,0.1214908023822708
13.750692,3.894231566020019,0.1212357410441712
13.753084,3.92244417620922,0.1209166538046517
13.75548,3.9578737934511694,0.1204089905980682
13.757875999999998,3.988088504386788,0.1200337048289257
13.760267999999998,4.024449287188515,0.1195145317507874
13.762648,4.071751739282107,0.1187635095864363
13.765043999999998,4.11812302581592,0.1180328727138774
13.767431999999998,4.158627779737342,0.1174392682441076
13.769816,4.199691612166205,0.1168106901093886
13.772211999999998,4.238241487169453,0.116199445222678
13.774599999999998,4.273346239187309,0.1156428272541923
13.776984,4.304214472286853,0.1151434978809926
13.779379999999998,4.331917121654726,0.1146541922067265
13.781767999999998,4.357245583223844,0.1141805606805768
13.784148,4.383272892927264,0.1136527441098007
13.786547999999998,4.40613461889901,0.1131435911556046
13.788932,4.42126748113881,0.11277417589225
13.791316,4.439752918565385,0.112320970179117
13.793711999999998,4.456096485618684,0.1119223902279331
13.7961,4.472999131179423,0.1114834600889112
13.79848,4.489250150434104,0.111033981671315
13.800876,4.505129082636447,0.1105583254321989
13.803264,4.519285453346095,0.1101051034033454
13.805648,4.539727665548712,0.1095172805522723
13.808044,4.553511949206023,0.1090378538312602
13.810428,4.556634102825192,0.1087360453900205
13.812808,4.55989602607122,0.1084235740717178
13.815212,4.566510524504023,0.1080321214382076
13.8176,4.568841282190273,0.1077332982128514
13.819984,4.575176241369356,0.1073644830882785
13.822376,4.578577934242245,0.1070424379973396
13.824764,4.581420548607691,0.1067641346319714
13.827159999999996,4.589338299652611,0.1063954399640555
13.829555999999998,4.598047446630448,0.1060274163243485
13.831943999999998,4.605685658421649,0.1056841695464059
13.834324,4.611181999839571,0.10538435856123
13.836719999999998,4.624546974616301,0.1049618201871861
13.839104,4.634047517527057,0.1045991643455764
13.841488,4.645550161184229,0.1042056632592047
13.843883999999996,4.655283021520463,0.1038877399362701
13.846272,4.666738443349392,0.1035581765484257
13.848652,4.67763478667088,0.1032726014710083
13.851048,4.685458094059313,0.1030406985209069
13.853432,4.69141907032819,0.1028338123020473
13.855828,4.696820968089625,0.1026657549680347
13.858223999999998,4.705807758463314,0.1024626549152785
13.860611999999998,4.7175880455163375,0.1022291448741456
13.862992,4.724013656636169,0.1021016094240589
13.865391999999998,4.733372534062196,0.1019301313642686
13.867775999999996,4.741520706674723,0.1017922260421768
13.87016,4.751531210406808,0.1016315827456734
13.872555999999998,4.7606105485791135,0.1014813397920221
13.874943999999998,4.764055671564506,0.1014585131031041
13.879727999999998,4.768943816788874,0.1014455699757428
13.884496,4.775834062759659,0.1014011646815831
13.889283999999998,4.778999646491332,0.1014001951558528
13.891664,4.780210351304831,0.1013697847573799
13.894059999999998,4.778907098692716,0.1013499278587716
13.901224,4.7688984908185015,0.1013323647971801
13.903608,4.770296187087102,0.1012311405643408
13.906007999999998,4.77504645854248,0.1010610288874255
13.908404,4.777143002945384,0.1009123089684446
13.910792,4.788318885520593,0.100627757901536
13.913171999999998,4.799914076976383,0.100316267296575
13.915568,4.810857642126114,0.0999962524899191
13.917955999999998,4.826224717649261,0.0995955168916775
13.920339999999998,4.842522958732185,0.0991843809505837
13.922736,4.864175875748302,0.0986787268115733
13.925124,4.880613886458088,0.0982552495071903
13.927504,4.900124933100927,0.0977826527195965
13.929899999999998,4.917773648624212,0.0973356986341546
13.932287999999998,4.935142824893775,0.0969066908060588
13.934672,4.951580835603558,0.0964889495910409
13.937067999999998,4.967087680753563,0.096080198018728
13.939455999999998,4.984317087396269,0.095666234649731
13.94184,5.005410925904943,0.0952089821124917
13.944235999999998,5.024782202920924,0.0947568630245332
13.946623999999998,5.048157681429737,0.094253077741244
13.949007999999996,5.075956670311965,0.0936673518158632
13.951403999999998,5.0968181913951645,0.0931769237007946
13.953791999999998,5.111161553559914,0.0927511727669044
13.956172,5.126436081284444,0.092319535107157
13.958567999999998,5.131048478970831,0.0920102670910309
13.960955999999998,5.134450171843719,0.0917292237594697
13.963352,5.136920699156828,0.0914563480727115
13.965752,5.132965615350107,0.0912888646810074
13.968136,5.129429840423965,0.0910935391786648
13.970515999999998,5.123380108072212,0.0909040351826036
13.972912,5.126689253146483,0.0905814587485892
13.9753,5.132280038220892,0.0902200145934764
13.977683999999998,5.135728952922023,0.0898919466097007
13.98008,5.141319737996431,0.0895312834042457
13.982463999999998,5.146910523070839,0.0891710097247907
13.984847999999998,5.151430372958609,0.0888252499354978
13.987244,5.153436265420764,0.0884848824964964
13.989632,5.153300287509642,0.0881786636486759
13.992012,5.160613634076747,0.0878170252989972
13.994407999999998,5.166064649524295,0.0874731006128532
13.996795999999998,5.168163089785068,0.0871862335797309
13.99918,5.172915257098315,0.0868860188590245
14.001571999999998,5.181112547396955,0.0865754328559811
14.003963999999998,5.1882389025089575,0.0862817907894727
14.00636,5.203373660606626,0.0858979985539645
14.008756,5.218648188331155,0.0855064508718555
14.011144,5.234714111988603,0.0851171972970804
14.013524,5.256134711579242,0.084652567165105
14.015924,5.2772757719161625,0.084207454885027
14.018312,5.296786818559002,0.0838132542951826
14.020692,5.309220627775953,0.0835039334562867
14.023088,5.31737069624635,0.0832567185317432
14.025476,5.325800303970466,0.0829914990113269
14.02786,5.333019206881085,0.0827507427656371
14.030256,5.340377879418564,0.0825019003216713
14.032644,5.352811688635514,0.0821979235701411
14.035023999999998,5.365757354531663,0.0819138769642912
14.03742,5.379634185987589,0.0816250338434567
14.039808,5.386853088898209,0.0813887738565829
14.042191999999998,5.389136624756216,0.0811980081027758
14.044588,5.394353426920418,0.0809815651596659
14.046971999999998,5.401572329831036,0.0807460093053752
14.049355999999998,5.4045074919951,0.0805667924689725
14.051752,5.402367517479692,0.0804415828426709
14.05414,5.396874967777508,0.0803687580902741
14.056536,5.393896375500939,0.0802956754362854
14.058932,5.3935715102768444,0.0802142028653323
14.06132,5.387752199492698,0.0802116308539584
14.0637,5.385517781320804,0.0801948881462372
14.0661,5.387427334268604,0.080131188272972
14.068488,5.393992715015295,0.0800404481387781
14.070868,5.402280657254683,0.079946941943441
14.073268,5.413222326546546,0.0798461718338769
14.075656,5.426445635838545,0.0797111817280227
14.078036,5.443253837742798,0.0795655759280416
14.080436,5.456709464460275,0.0794695536452468
14.082824,5.473098357483947,0.0793513368995933
14.085208,5.48934748088076,0.0792420932841622
14.087604,5.51118359763624,0.0791042286778572
14.089992,5.539677642937033,0.0789234193884186
14.092372,5.566309357118265,0.0787544474486078
14.094772,5.591078740179944,0.0785970341813135
14.09716,5.622273734361452,0.0783627640785746
14.09954,5.6665522682081,0.0780138865582823
14.101936,5.71003940612183,0.0776616845873267
14.104324,5.753014687356362,0.077297367962852
14.106708,5.79319647191156,0.0769499040477517
14.109104,5.835520126840033,0.0765742446268042
14.111492,5.8734674932233375,0.0762104994012807
14.113876,5.909412758860223,0.0758688633966192
14.116272,5.943495693377553,0.0755405137391716
14.11866,5.978137706402324,0.0751842904307829
14.121044,6.00970668349404,0.0748572458772883
14.12344,6.037923085398977,0.0745752023726279
14.125828,6.060412724318388,0.074328075341281
14.128208,6.087465643238071,0.0740229610023665
14.130604,6.109862734358863,0.073740012333834
14.132992,6.131468429546738,0.0734546727677192
14.135371999999998,6.149489232122358,0.0731813459513496
14.137772,6.165647703578422,0.0729185906985979
14.14016,6.182877110221123,0.0726459262463726
14.14254,6.203179552796881,0.072349985807745
14.144936,6.221479894626222,0.072072430901481
14.147324,6.22949019346976,0.071884389590039
14.14972,6.242156320112187,0.0716799346805747
14.152115999999998,6.253751511567977,0.0714879784956485
14.154507999999998,6.268559508583683,0.0712665273538512
14.156888,6.285509375972666,0.0710257355367558
14.159283999999998,6.302179704107928,0.0707984404180675
14.161671999999998,6.317127470750493,0.0705715243367561
14.164052,6.330073136646643,0.0703583565349937
14.166451999999998,6.339805996982875,0.0701760022519591
14.168839999999998,6.353822598065663,0.0699540057303856
14.17122,6.371331543962086,0.069688946459854
14.173619999999998,6.392984460978203,0.0693912721075846
14.176004,6.406209666128071,0.0691677220761042
14.178388,6.421297202397498,0.0689375211744755
14.180783999999996,6.437315904226702,0.0687050588258832
14.183172,6.451192735682628,0.0684921719993263
14.185552,6.466280271952054,0.0682644835553867
14.187948,6.479225937848202,0.0680568939762779
14.190336,6.489098567811296,0.0678734835100063
14.19272,6.496689557774251,0.0677164112211241
14.195116,6.506701957364205,0.0675257126512553
14.197504,6.510196198035709,0.0673559305857127
14.199884,6.51061740277416,0.0672082755164888
14.202284,6.506243010086858,0.0670818886038845
14.204672,6.503079322213055,0.0669400852382497
14.207052,6.5051305406455855,0.0667589248509721
14.209448,6.504900119077977,0.0666021978769848
14.211836,6.501876200831034,0.0664524857857681
14.21422,6.502856484076925,0.066278515043087
14.216616,6.499180939523924,0.0661182063234875
14.219,6.493083985343926,0.065990179300302
14.221399999999996,6.484193534484592,0.0658695952241729
14.223795999999998,6.483451256237787,0.0656957720941129
14.226183999999998,6.484711078737398,0.0655110082632237
14.228564,6.48503973567723,0.0653290375499005
14.230963999999998,6.4864393278037005,0.0651372577652734
14.233351999999998,6.484765883997117,0.0649663597869819
14.235732,6.485374080190669,0.0647709940650634
14.238131999999998,6.4871929811977225,0.0645606195518107
14.240519999999998,6.491573061458631,0.0643129846135007
14.242903999999998,6.496092911346402,0.0640592691253816
14.2453,6.505548128286785,0.0637814212109691
14.247687999999998,6.517005445973584,0.063491864512732
14.250071999999998,6.530185325153079,0.0632041324197218
14.252468,6.536427736533544,0.062951746579133
14.254855999999998,6.5317284786221474,0.0627550233267965
14.257236,6.532383896643944,0.0625144664963812
14.259636,6.54011655209163,0.0622328356702793
14.262023999999998,6.547197581233257,0.0619421924698355
14.264407999999998,6.559074207800636,0.0616367128800491
14.266804,6.572441078435236,0.0613044815283416
14.269192,6.585248870562393,0.0609977497382773
14.271575999999998,6.59246966933088,0.0607039905814273
14.273976,6.59875930253959,0.0604138182564363
14.276364,6.605328475002019,0.06011125907571
14.278747999999998,6.616181388211003,0.0597781043609046
14.281144,6.626103135860209,0.0594454664262461
14.283536,6.636164653136275,0.0591085783448789
14.28592,6.643153134479285,0.0587892721685562
14.288312,6.648791141381937,0.0584916814657847
14.290696,6.655360313844366,0.0581937844320997
14.293075999999996,6.658065054440823,0.0579083639050103
14.29548,6.659047233544584,0.0576187741419516
14.297864,6.659377786342286,0.0573177160913253
14.300243999999998,6.6635727710059625,0.05700354555748
14.302644,6.680711525707917,0.056634343104975
14.305032,6.696919114850093,0.0562699301650122
14.307411999999998,6.712055768805633,0.0559171691527391
14.309808,6.725981717947672,0.055579740717833
14.312195999999998,6.736694861529795,0.0552663934319558
14.314572,6.742053329178727,0.054988214566842
14.316976,6.747831105708239,0.0546906984956671
14.319363999999998,6.756122839663366,0.0544027753801982
14.321744,6.7596189761927405,0.0541249735245122
14.324148,6.762183947162336,0.05384821107287
14.326531999999998,6.759114702945019,0.053619839932267
14.328912,6.761260365034035,0.0533631438616454
14.331316,6.759773912682554,0.0531457424549702
14.333704,6.759218625890851,0.0529267304593645
14.336083999999998,6.759874043912647,0.0526950588522971
14.338475999999998,6.758387591561165,0.0524773737889748
14.340863999999998,6.760625801448798,0.0522571444500228
14.343244,6.76393494652307,0.0520295056826705
14.345636,6.767895717903397,0.0518136309774505
14.348024,6.770785554097088,0.0516044584085249
14.350419999999998,6.76659815286489,0.0514252475855444
14.352824,6.759989342005693,0.0512714496696589
14.355212,6.750307495213443,0.0511312586009842
14.357592,6.74006656991375,0.0510154633871708
14.359996,6.726752608681003,0.0509127831060928
14.362384,6.720655654501004,0.0507761206779051
14.364764,6.716141492186843,0.0506508393662896
14.367167999999998,6.711115473193484,0.0505077167316252
14.369552,6.712887152372293,0.0503498496837399
14.371932,6.713308357110742,0.0502101233161754
14.374335999999998,6.717361676289689,0.0500326842042052
14.376723999999998,6.7192731250953575,0.0498693824354611
14.379104,6.72560808427444,0.0496749637232026
