Time,Force,Position
12.770879999999998,1.8994010213341304,0.1635512867360735
12.773284,1.9749500344400803,0.1622673964801366
12.775672,2.0470558204185068,0.1606097033780496
12.778052,2.11380882632161,0.1590856555063725
12.780448,2.172368333641812,0.1579695784457142
12.782836,2.2279492486854444,0.1568235053524227
12.785215999999998,2.2814827370122863,0.1555669042672154
12.787612,2.3285925100771663,0.1544681938166922
12.79,2.372910682320581,0.1531937824310449
12.792379999999998,2.4104330522496955,0.1519561599765436
12.856891999999998,2.577213539919489,0.151286391305136
12.859288,2.5841963336888925,0.1511648355012309
12.861676,2.5981165952573235,0.1507104820391918
12.866463999999995,2.616365923542684,0.1502460629907709
12.868851999999997,2.6226970910060285,0.1501232936584433
12.887971999999998,2.649789648322478,0.1498013237282982
12.890359999999998,2.65840245578596,0.1495543976191877
12.89274,2.6720903999289143,0.1490655318494176
12.895135999999995,2.6900620848184227,0.1483644115485872
12.897523999999995,2.7043091074688186,0.1478107125534065
12.899904,2.7191152086266546,0.1471728888601302
12.902303999999996,2.737925511277325,0.1463928346040901
12.966811999999996,2.764596863855325,0.1463627756274981
12.969199999999995,2.7698570961320312,0.1463158098149085
12.97158,2.774977558781877,0.1462888309676168
12.973979999999996,2.780098021431724,0.1462598415473255
12.976367999999995,2.7865689585219284,0.1461404795979774
12.978748,2.7947624571048304,0.1459803315195977
12.981147999999996,2.8038871212475103,0.1457905197340833
12.983532,2.8145945772560266,0.1455785334489472
12.985916,2.8262331988243203,0.1453276656093805
12.988319999999998,2.83493855408642,0.1451886893917197
12.990703999999996,2.8436439093485184,0.1450483938657604
12.993088,2.855422300543673,0.1447799918464994
12.995483999999998,2.8687834836046635,0.1444894600578565
12.997871999999996,2.8892219040915434,0.143904254268931
13.000252,2.912873130138339,0.1431934874003697
13.002651999999998,2.931868528386244,0.1426460544121987
13.005039999999996,2.946999494768173,0.1422346430197015
13.00742,2.9644121011502413,0.1417100500843105
13.009815999999995,2.984897743465364,0.1410634819347543
13.012203999999995,3.00296197615349,0.1405492380281589
13.014588,3.019163877722059,0.1401000594064723
13.016991999999998,3.030709951491736,0.1398022947861567
13.019379999999998,3.043326960448052,0.1394639790320415
13.021763999999996,3.0619502716436187,0.138918673467969
13.024159999999998,3.0842982450782976,0.1382819372676296
13.026543999999998,3.1047838873934204,0.1377056728580257
13.028927999999995,3.1282027960147394,0.1370538915248498
13.031323999999998,3.1493872864641634,0.1364156716056746
13.033711999999998,3.1776490143394764,0.1355586378963072
13.036095999999995,3.2080526125880677,0.1346086276914842
13.038491999999998,3.237804584530599,0.1336456451296789
13.040879999999998,3.2616900238607416,0.1328677104453645
13.04326,3.284132440951907,0.1320969282606395
13.045655999999996,3.3037813613637383,0.1314204545805022
13.048043999999996,3.315421878789902,0.130999362935631
13.050428,3.328133331402704,0.1305370058116515
13.052823999999998,3.344197359202282,0.1299376458432491
13.055211999999996,3.3610527829347787,0.129342407135592
13.057596,3.3780479762941344,0.128745920985082
13.059991999999998,3.398255975213406,0.1280360079326354
13.062379999999996,3.415530707826483,0.1274000858646662
13.06476,3.4338763756261983,0.1267231508887446
13.067155999999995,3.4475662156270217,0.1261597059590387
13.086275999999998,3.401389503979789,0.1260670782957078
13.088672,3.398550681330081,0.1259760380643862
13.09106,3.3965032546132896,0.1258791725574413
13.093439999999998,3.3923139575232213,0.1258539967985057
13.095844,3.3949223586053225,0.125651874716684
13.098228,3.3964598245007847,0.1254854811027148
13.107771999999995,3.401255421926536,0.1253664328885077
13.110167999999998,3.4098682293900184,0.1252443874871096
13.112555999999998,3.419644519838757,0.1251554858044627
13.114939999999995,3.43794106995236,0.1248839137652596
13.117335999999998,3.461824613424633,0.1244976434371171
13.119723999999998,3.48850165357624,0.1240563345327679
13.122107999999995,3.5199742911536003,0.1234974504859044
13.124512,3.554752282089492,0.1229086166138967
13.1269,3.593766791943694,0.1222746819532526
13.129283999999998,3.638368295156568,0.1215206546972247
13.13168,3.6813397846753615,0.1208672412751765
13.134068,3.7190963678878233,0.1203750806770236
13.136451999999998,3.756433642219704,0.1199437858597488
13.138848,3.794562312484503,0.1195151630920417
13.141236,3.836415644988415,0.1190179870648181
13.143615999999998,3.878268977492326,0.1185393917079949
13.146012,3.923707202608492,0.1180095168036662
13.1484,3.96742286623196,0.1175117022665825
13.150779999999996,4.008624572429815,0.1170352014088994
13.153184,4.051456292321748,0.1164746314993323
13.155572,4.0917740547880666,0.1159449271048898
13.157951999999998,4.125713427962798,0.1155327634305216
13.160348,4.158629087779133,0.1150792034830664
13.162736,4.185678214983079,0.1147585881555253
13.165115999999998,4.211656407000385,0.1144733180141431
13.16752,4.237774368644552,0.1141831272077897
13.169904,4.269107236595052,0.1137892276971099
13.172283999999998,4.2968552119332974,0.1134418369849404
13.174692,4.32222899947279,0.1131091552383524
13.17708,4.346951160706223,0.1127748532393281
13.17946,4.373303335633737,0.1123736141723218
13.181856,4.399655510561249,0.1119657120242231
13.184244,4.420420692130093,0.1116394453859803
13.186623999999998,4.438811685900182,0.1113221033405852
13.189024,4.45268662149824,0.1110625268242152
13.191408,4.462836894857185,0.1108591528606048
13.193791999999998,4.471404376350294,0.1106628920488893
13.196188,4.476898821910345,0.1105282141281608
13.198576,4.483743741910758,0.1103459374440947
13.200955999999998,4.489937035605112,0.110155986924755
13.203352,4.495338933366548,0.1099677190237982
13.20574,4.504605262993958,0.1097174810613843
13.229623999999998,4.417555502088703,0.1095474498091401
13.23202,4.405731784923175,0.1095068431740521
13.234403999999998,4.394559694063704,0.1094754424419644
13.236784,4.388462739883705,0.1093467014245878
13.239199999999997,4.385718360890484,0.1091361933142337
13.241588,4.382042816337482,0.1089383809718105
13.243968,4.382790782157896,0.1086364075253158
13.246364,4.385401079097865,0.1083119433497083
13.248748,4.387172758276675,0.1080528618944133
13.251131999999998,4.391877703761679,0.1077479098822158
13.253528,4.391787051820931,0.1075144328101787
13.325208,4.245055834864854,0.1074594102272374
13.327592,4.249012814529446,0.1074539188508484
13.329975999999998,4.252178398261119,0.1074493424808667
13.332372,4.256135377925709,0.1074433903855259
13.33476,4.266657738336991,0.1072813987848049
13.337144,4.277040329121413,0.1071323746297314
13.33954,4.292358286958447,0.1068969964768671
13.341928,4.316103956661728,0.1064814573015916
13.344312,4.3358454248721765,0.1061443901065117
13.346708,4.363175987187711,0.1056973162886789
13.349096,4.384779786517716,0.1053354177573225
13.35148,4.404521254728165,0.1049983505622426
13.353876,4.42626482368503,0.1046286602200555
13.35626,4.443492334469863,0.104310818358141
13.358659999999997,4.458997283762,0.1040108871240725
13.361055999999998,4.468775470068607,0.1037972793874486
13.363443999999998,4.481626692308269,0.1035303995058596
13.365824,4.493966057868734,0.1032455523448551
13.368219999999996,4.514593365668587,0.1028097812929435
13.370607999999995,4.535360443095299,0.102370799414647
13.372992,4.556407059775732,0.1019147446703714
13.375387999999996,4.577453676456165,0.1014586899260957
13.377775999999995,4.603575429816071,0.1009242200966103
13.38016,4.628254160937,0.1003770891895718
13.382555999999996,4.650930791311512,0.0998682687068033
13.384943999999996,4.67081392500669,0.0993894426910101
13.387328,4.689626123515228,0.0989360879722344
13.389723999999998,4.702152480530797,0.0985992887106286
13.392111999999996,4.714539067919505,0.0982712724967987
13.394492,4.723200993069099,0.0979875685409506
13.396891999999998,4.737217594151886,0.097603184107868
13.399279999999996,4.754307231167729,0.0971706626734923
13.40166,4.7704657026237935,0.0967524766411591
13.404055999999995,4.789417670759193,0.0963048478118615
13.406443999999995,4.808509408521452,0.0958512956836242
13.408828,4.827461376656852,0.0954058074766438
13.411223999999995,4.844411244045834,0.0949957225012092
13.413611999999995,4.860429945875038,0.0945979462620446
13.415996,4.872584215838269,0.0942550460751303
13.418391999999995,4.882736385055083,0.0939421507182612
13.420779999999995,4.894471346137733,0.0936348855447724
13.42316,4.909419112780298,0.0932769830496402
13.425563999999998,4.92022290830317,0.0929852187719015
13.427951999999998,4.934471826811435,0.0926799436210365
13.430335999999995,4.950303537185537,0.0923794236596982
13.432731999999998,4.971210384239109,0.0920125565857501
13.435119999999998,4.9903946697999855,0.0916529469493236
13.437503999999995,5.014654092040333,0.09122677103435
13.439895999999996,5.040915615027099,0.0907758150207828
13.442283999999995,5.068108303573643,0.0903193578162132
13.444668,5.092600043239468,0.0899377719616901
13.447063999999996,5.115741308464935,0.0895951614278199
13.449451999999996,5.142886775183236,0.0892122362778649
13.451836,5.174967608954148,0.0887848856757002
13.454231999999998,5.203835637165145,0.0884055682819366
13.456619999999996,5.234426226868839,0.0880200112201858
13.459,5.261943780639478,0.0876731278034753
13.461395999999995,5.290904356649093,0.0873410256714972
13.463783999999997,5.318374688591487,0.0870536841978797
13.466168,5.347567582026579,0.0867632825046664
13.468567999999998,5.373035813222557,0.0865028083357731
13.470955999999996,5.395291238858619,0.086292971488523
13.473339999999997,5.419548765241098,0.086062532026885
13.475735999999998,5.441012794944244,0.085853191758502
13.478123999999998,5.461545659087609,0.0856524635701075
13.480504,5.477655012857562,0.0855227119759158
13.482903999999998,5.5005620647996825,0.0853339439408644
13.485291999999998,5.523329347114943,0.0851582285498826
13.487672,5.5468880253631205,0.0849866415553491
13.490067999999996,5.570306933984439,0.0848248213144728
13.492455999999995,5.595076317046116,0.0846321828715181
13.49484,5.618262908241957,0.0844353436504477
13.497235999999996,5.631438995705714,0.0843415003933385
13.499623999999995,5.636606680183802,0.0843300203811028
13.502008,5.646709731714504,0.0842723805306796
13.504407999999998,5.659234192872202,0.0841717216676984
13.506795999999998,5.676694021082513,0.0840258518234595
13.509179999999995,5.69163989186721,0.083881816705147
13.511584,5.7065857626519065,0.0837372863747366
13.513972,5.721019776757404,0.0835763721582876
13.516355999999998,5.736384956422682,0.0834092499679339
13.518756,5.751889905714819,0.0832343523695759
13.52114,5.766743228700898,0.0830515295295122
13.523523999999998,5.784809357246893,0.0828292025124664
13.52592,5.80222385948683,0.0825977309697313
13.528308,5.822990936913543,0.0823184490688919
13.530691999999998,5.836029150608309,0.0821022586106592
13.533088,5.843480370944404,0.0819188489140562
13.535476,5.847486468295108,0.0817415016739131
13.537859999999998,5.849909773779974,0.0815593706342336
13.540256,5.8526126185185605,0.0813626284415715
13.542644,5.8575971032572856,0.0811327119691608
13.545028,5.873151170235534,0.080782630912891
13.547428,5.889124546094366,0.0804066789751848
13.549816,5.9008614030348845,0.0800351737203673
13.552196,5.909804763296069,0.0796820559603202
13.554588,5.914511604638943,0.079331926424664
13.556971999999998,5.922571021168592,0.0789384361809326
13.559351999999995,5.9313292858325415,0.078507464208663
13.561751999999998,5.937014514563438,0.0781059228527978
13.564139999999998,5.9433985914286325,0.0776672519392197
13.566519999999995,5.950062207547548,0.077214161753812
13.568911999999996,5.956865593293324,0.0767563941952348
13.571299999999995,5.963808748665961,0.0762955492644284
13.57368,5.967958407359262,0.0758460994955607
13.576096,5.971596209373366,0.0753818434700609
13.57848,5.974442615454552,0.0749110419495846
13.580859999999998,5.980362057468794,0.0744109961020258
13.583256,5.9902857009758685,0.0738806418847681
13.585639999999998,6.001280279669582,0.0733390785833334
13.58802,6.007059952056963,0.0728457292775665
13.590424,6.009626818884429,0.0723870696337076
13.592812,6.003626204218786,0.0720215627040887
13.595191999999996,6.000558855859338,0.071636567562534
13.597596,5.999074299365726,0.0712579802725638
13.59998,5.995447872498838,0.0709009793157193
13.602359999999996,5.993264467870926,0.0705579862892238
13.604764,5.98558661768296,0.0702779480762644
13.607148,5.974556192308219,0.0700375857447092
13.609531999999998,5.965527867679895,0.0697815164666842
13.611932,5.95594046454413,0.069555028714904
13.61432,5.946073522154643,0.0693431948858572
13.616699999999998,5.932854004578382,0.0691711456010373
13.619104,5.918284012561762,0.0690246822272135
13.621488,5.908369848344034,0.0688606245704677
13.623867999999998,5.894963339312668,0.0687429049579956
13.626272,5.888074989199753,0.0686018998499213
13.62866,5.879975934273338,0.0684784694777681
13.63104,5.870666174533424,0.0683728138992305
13.633443999999995,5.859866170726291,0.0682992524101183
13.635828,5.856283173971908,0.068167106147512
13.638208,5.8545625083370805,0.0680284006029659
13.6406,5.85484394344867,0.0678751927390747
13.642988,5.853914673746761,0.0677401871646209
13.645367999999998,5.85363703035091,0.0676170825259645
13.647772,5.855221718074614,0.0674875786434234
13.65016,5.85573547061168,0.0673683154527296
13.652539999999998,5.860253424641581,0.0672216723828707
13.654943999999997,5.870637911283872,0.0670422411453417
13.657332,5.878740757926026,0.0668906294289288
13.659712,5.8859124390084006,0.0667420345154742
13.662108,5.895086220837193,0.0665810412600519
13.664496,5.908124434531959,0.0664009866794815
13.666875999999998,5.916087511547252,0.0662569238559308
13.669272,5.921768948562409,0.0661416296695008
13.67166,5.931314817443539,0.0660072476722671
13.674039999999998,5.936996254458695,0.0658931806377847
13.676444,5.945610957780046,0.065763813981333
13.678832,5.949010754795065,0.0656773585907714
13.681212,5.956554522929777,0.0655580271546939
13.683615999999995,5.963958521437629,0.0654480685308502
13.686,5.9712227503186215,0.0653454401556149
13.688384,5.981699784759532,0.0652138416147409
13.69078,5.993247754387078,0.0650731879853152
13.693164,6.007217133641622,0.0649007610335544
13.695543999999998,6.023980009575501,0.0647222614331508
13.697951999999995,6.04195359032288,0.064527258870866
13.700336,6.061277645510614,0.064311121465569
13.70272,6.081812405511851,0.0640832059339427
13.705123999999998,6.108772776632918,0.063802400104286
13.707507999999995,6.137875018127262,0.0635048402854091
13.709888,6.1652546981289085,0.0632077019202163
13.712291999999998,6.189840881451222,0.0629181327216783
13.714679999999998,6.220712906266504,0.0625808827832537
13.71706,6.25228377921609,0.06221056256786
13.719464,6.280269759553421,0.0618429016708382
13.721851999999998,6.304531077651638,0.061481661407468
13.724231999999995,6.325859129443661,0.0611349593022697
13.726627999999998,6.351470921982237,0.0607501522198303
13.729015999999998,6.372566656348783,0.0603708472943356
13.731396,6.389797958849355,0.0600088205194159
13.733787999999995,6.408519505417146,0.0596193579246861
13.736175999999997,6.426170116798299,0.0592417761475412
13.73856,6.442889562619674,0.0588676238311199
13.740955999999995,6.452531771015159,0.058532687988312
13.74334,6.458868626052112,0.0581860384153334
13.74572,6.468278517022119,0.0578238805699083
13.748123999999995,6.474475602432211,0.0574875029740841
13.750511999999995,6.4746663856030535,0.0571811195864839
13.752892,6.468711096907785,0.0569103229742586
13.755288,6.4615451033990166,0.0566542603252789
13.757676,6.452888865823031,0.0564252330670589
13.760056,6.445303563433682,0.0561879827104569
13.762456,6.437578491417473,0.0559583966266812
13.764844,6.434229707946436,0.0557374298231406
13.767224,6.434605586714512,0.0555121555915878
13.769627999999996,6.441779163654757,0.0552665141286407
13.772015999999995,6.450815071714558,0.0550190210834807
13.774396,6.464786346826972,0.0547565805133611
13.776799999999998,6.478338313058804,0.0545122622840281
13.779187999999998,6.490679574477138,0.0542809571576389
13.781568,6.502461757388031,0.0540764812786721
13.783963999999996,6.512102069925648,0.0538868219062994
13.786348,6.523464943955959,0.053702738912874
13.788732,6.543627616904858,0.0534929135787914
13.791135999999998,6.565093542465871,0.0533076749804005
13.793523999999998,6.58199618802661,0.0531643105848586
13.795904,6.602623495826462,0.0530187596416662
13.798308,6.62511313474587,0.0528717254033756
13.800696,6.647043695157839,0.0527485400291726
13.803075999999995,6.670696817062503,0.0526307818620337
13.805471999999998,6.696771348594166,0.0524868753400145
13.807859999999998,6.721635175312329,0.0523566124824675
13.810239999999997,6.741563634977881,0.0522427737548132
13.812644,6.754973935724984,0.0521349125749364
13.815027999999998,6.765311200539032,0.0520418948869686
13.817411999999996,6.771504494233387,0.0519705512507287
13.819812,6.7787687231143785,0.0518929879473432
13.8222,6.7830996856891765,0.0518243788326976
13.824579999999996,6.793157411249504,0.0517470094614626
13.826975999999998,6.807079568675805,0.0516617404796631
13.829363999999998,6.822352200542465,0.0515586659339069
13.831743999999995,6.839626933155542,0.0514488051946608
13.834139999999998,6.855970500208841,0.0513401995003805
13.836527999999998,6.864305664276471,0.0512594658594566
13.838911999999995,6.871849432411183,0.0511733447406616
13.841307999999998,6.884887646105948,0.051050130504184
13.843691999999995,6.89499259349452,0.050934597552793
13.846076,6.90509754088309,0.050819283009099
13.848471999999996,6.920836703458574,0.0506611127369526
13.850859999999996,6.931780268608305,0.050510250007436
13.85324,6.938440093011484,0.0503843048243272
13.855635999999995,6.945379456668381,0.0502462875909844
13.858023999999997,6.956323021818113,0.0500949217990742
13.860404,6.965776342900625,0.0499668143609659
13.8628,6.977231764729556,0.0498322113133272
13.865191999999997,6.99176022249154,0.0496852146595312
13.867587999999998,7.001353313200914,0.0495516626139648
13.869984,7.003589627230677,0.0494555101308254
13.872372,7.000378717528631,0.049355200492394
