Time,Force,Position
13.45464,1.773679567424391,0.1652560220187116
13.457020000000004,1.846710831388988,0.16491864793668
13.459416,1.9211870134504303,0.1639833371601222
13.461808,1.991521120250048,0.1630745403386881
13.464188000000004,2.051334762496253,0.1625193932016325
13.466584,2.105004228734217,0.1620746323925871
13.468972000000004,2.1569058075091108,0.1614468852450255
13.471356000000004,2.2074115858732704,0.1607987962170614
13.473752,2.2535882975205026,0.1602261299071214
13.476144,2.291059653905635,0.1598456594198005
13.478524000000004,2.3219675254019467,0.1595709603957822
13.488088,2.378475814289619,0.1592762129430226
13.490475999999996,2.3914630144404034,0.1591405451916837
13.552600000000002,2.515974652441445,0.159026512295519
13.554987999999998,2.519000466546257,0.1589797164810087
13.557372000000004,2.5271014173305413,0.1586752055881812
13.559768000000002,2.5332002673684086,0.1584767232783387
13.562160000000002,2.541301218152693,0.1581767768945673
13.564539999999996,2.555548240803089,0.157564410095277
13.56694,2.5759413353195946,0.1566184132423188
13.569328000000002,2.597033277970402,0.1555609811918261
13.571707999999996,2.61118775282218,0.1548565629514768
13.574108,2.620127321367625,0.1544261009548736
13.576496000000002,2.629486198793651,0.1539384425200705
13.578880000000002,2.6399160114063163,0.153389392951545
13.581276,2.648995349578622,0.1529462148732658
13.583664000000002,2.6643605292438988,0.1521721699763477
13.586043999999998,2.675861277043202,0.1515787691361429
13.588444,2.689084586335201,0.1509419406702775
13.590832000000002,2.699514398947866,0.1504152584530926
13.593211999999998,2.71059583786659,0.1498814030723766
13.595612,2.7178128449193397,0.1495224655496951
13.598000000000004,2.7259610175318665,0.149124532698231
13.600379999999998,2.7379736220103674,0.148573916972157
13.60278,2.7461217946228955,0.1481858793087299
13.617116,2.755059467310472,0.1480813088906886
13.619504000000004,2.757154115855506,0.1480795759394245
13.621888000000002,2.767908793692265,0.1477416628885148
13.624284,2.7783839322753043,0.1474490817580211
13.626676,2.792443963470596,0.1470583280181507
13.62906,2.803850267613413,0.1467355843855863
13.631456000000004,2.811764226942594,0.1466107138808211
13.633844,2.821400747764472,0.1464410505192197
13.636228,2.8270330670935158,0.146435179714039
13.638624000000004,2.8334567823554777,0.1464145392712595
13.641016000000004,2.844955634296912,0.1461803395201718
13.643400000000003,2.858177047731042,0.1459006538289917
13.65058,2.882848195420495,0.1457657546341313
13.652972000000002,2.891925637734931,0.1456617617663959
13.655356,2.9019342456091466,0.1455249856294446
13.657736000000003,2.9119428534833616,0.1453944834183861
13.660152,2.9288889291566056,0.1449904915629487
13.662536,2.9424824296430736,0.1447568773760067
13.664916000000002,2.957658721995377,0.1445005587720082
13.667312,2.974837115094098,0.1441755767673456
13.676876000000004,3.0141708025987883,0.1440920515000702
13.679252000000002,3.026925685324096,0.1439921098167574
13.681648,3.037026840996928,0.1439590891982273
13.684036000000004,3.051923594095512,0.1437624245785969
13.686412,3.070172922380871,0.1434156454699842
13.688807999999998,3.0865599195466737,0.143142084019606
13.691191999999996,3.102946916712477,0.1428709549335347
13.693572,3.121615553878417,0.1424982903932928
13.695964,3.151365629963081,0.1417377724286848
13.698352000000003,3.1840489723539385,0.1408925260683086
13.700728000000002,3.2159409188118784,0.1400642634886323
13.703124,3.2471812389637607,0.1392340480325327
13.705512000000002,3.2773506239290047,0.1384587987539275
13.707891999999998,3.298580440348803,0.1379809354419754
13.710288000000002,3.3202295656491816,0.1374437742325479
13.712675999999998,3.340435668710584,0.1369141762910544
13.715056,3.355566635092514,0.1365632273194598
13.717472000000004,3.372559932594002,0.1361640733848704
13.719856000000004,3.3887618341625707,0.1357735632893266
13.722236,3.4083163109179155,0.1352449278606575
13.724652000000004,3.4296405709941995,0.1346108568464073
13.727036000000002,3.4480315647642885,0.13407061765343
13.729416000000004,3.470147220773492,0.1334324072991957
13.731832,3.4906800849168573,0.1328241894225932
13.734216,3.508791539433226,0.1323365528555668
13.736596000000002,3.525832058762956,0.1318955822365684
13.738988000000004,3.542220951786628,0.1314493923226396
13.741376,3.557818448877382,0.1310198302073901
13.743756,3.5664784781691075,0.1307998120635761
13.746168,3.573276176341276,0.130625647346662
13.748556000000004,3.583658767125698,0.1303879555692517
13.750936,3.5976262505223726,0.1300897430637899
13.753332000000004,3.611873273172768,0.1297666116246042
13.755716000000003,3.632406137316134,0.1292491191758776
13.758095999999998,3.655872267765696,0.1286610035654196
13.760492000000005,3.678267463028619,0.1281053930428417
13.76288,3.704806629411235,0.1274258495327532
13.76526,3.7269695072486817,0.1268161374999609
13.767672,3.749411924339848,0.1261781720089002
13.770060000000004,3.766639435124681,0.1256953090601763
13.846536000000004,3.76077479837016,0.1254981571057396
13.848920000000003,3.7661748002737263,0.1254756729872716
13.851299999999998,3.77357690292371,0.1254021301552971
13.853692,3.783492962999308,0.1252995000268712
13.856080000000002,3.792338087888267,0.1252304925808476
13.858476,3.803976709456561,0.125104362397152
13.860879999999998,3.812821834345521,0.1250346898376058
13.863263999999996,3.822737894421119,0.1249334306835539
13.865648000000004,3.835587220802912,0.1247668673405808
13.868044,3.852952605356737,0.1245272973934846
13.870428,3.873111486589897,0.1242322245035786
13.872808000000004,3.89154780633036,0.123956312740671
13.875212,3.906399233458569,0.1237370388986826
13.877599999999996,3.923532300586917,0.1234445360013798
13.87998,3.937312792528488,0.1232640497335252
13.882383999999998,3.952024450029838,0.123066826594087
13.884767999999998,3.972742409770438,0.1227292161219172
13.887148,3.988292685032949,0.1224611991260699
13.889544000000004,4.00575251324326,0.1220909997955296
13.891932,4.0283346999612855,0.1215349523182565
13.894312000000005,4.047704081119396,0.1210660744421828
13.896708,4.064140195971311,0.1206611231239354
13.899096000000004,4.081787015636726,0.1202207930426313
13.901476,4.096268251570468,0.1197960218286388
13.903879999999996,4.110377400451871,0.1193403797615095
13.906264000000004,4.123974692654078,0.1188658055332649
13.908644,4.138642920042924,0.1183615516583039
13.911044,4.151728355565933,0.11786592445428
13.913428,4.163230999223106,0.1173858730348321
13.915812,4.167424088028912,0.1170190256399525
13.918208000000003,4.171896716088439,0.1166303293862598
13.920592000000005,4.180373545640799,0.1161565243100461
13.922971999999998,4.191783641499353,0.1156201076977135
13.925376000000004,4.202122802171271,0.1151174592453998
13.927764,4.210879170977352,0.114618184219073
13.930148,4.21605064717118,0.1141660421543768
13.932544000000004,4.21307395075248,0.1138984010683927
13.934928000000005,4.21568424769245,0.1135410394132395
13.937312000000002,4.213079638326088,0.1133073067623259
13.939708,4.2049805833996725,0.1132199924783973
13.942092,4.201025499592952,0.1130380714317149
13.944472,4.199631595040088,0.1127672465355906
13.946872000000004,4.195304424181029,0.1125521362612435
13.94926,4.195772850747723,0.1122544862878719
13.95164,4.197963838807112,0.1119426501591608
13.954052,4.203088093172697,0.1115815589054129
13.956440000000004,4.208352117165142,0.111209671561561
13.95882,4.214407537090504,0.1108357072371047
13.961223999999998,4.220183417762147,0.1104878377227907
13.963612,4.231406522165599,0.1100699083988993
13.965992000000004,4.240627525822634,0.1096913216757751
13.968388,4.246775493546615,0.1093768822164747
13.970776000000004,4.252923461270595,0.1090629740447249
13.973156,4.2550672275017405,0.1088229834052765
13.975559999999998,4.263077526345278,0.1084842463750449
13.977948,4.273741552241289,0.1081151132547661
13.980328000000004,4.287478614070356,0.1076756620209897
13.982732000000002,4.294278208100393,0.1073665982361524
13.985116,4.304802464369544,0.1070018588020389
13.987496000000004,4.316118116571615,0.1066337238415004
13.989892,4.324360732840628,0.1063313426570535
13.992279999999996,4.3332549754157,0.1060436664543417
13.99466,4.341869678737051,0.1057773956850773
14.013788000000002,4.337959920900703,0.1057112097375886
14.016168000000004,4.339542712766539,0.1057091374290398
14.018572000000002,4.3429878357519325,0.1056831622213485
14.023336000000004,4.352392039148333,0.1056163411092347
14.025740000000004,4.3584908891862,0.10556717884692
14.028128,4.368593940716902,0.1054508401524524
14.030508,4.384423755233134,0.1052536436088936
14.032903999999998,4.401184735309143,0.1050474029959156
14.035292000000002,4.423020852064625,0.1047575208147479
14.037672000000004,4.447790235126302,0.1044250778724628
14.040068000000002,4.469067273374343,0.1041800305604897
14.042455999999998,4.492346412368801,0.1039013657996646
14.044836,4.52056091841587,0.103545122549142
14.047231999999996,4.544771222970106,0.1032476679878506
14.04962,4.566839657151067,0.1029913592538932
14.052004,4.591469270585884,0.1026608847650278
14.054399999999998,4.615307488087782,0.1023381486729897
14.056784000000004,4.637283374470125,0.1020344151209025
14.05918,4.654184124172995,0.1018183768491466
14.061576,4.6738783705552,0.1015709954708191
14.063959999999998,4.69636611361674,0.101296394992067
14.066344000000004,4.717503382237921,0.1010667588622268
14.068748000000005,4.737989024553045,0.1008291699471607
14.071136,4.763410033920779,0.1005200613547639
14.073516,4.786968712168957,0.1002413378591539
14.075912,4.809456455230497,0.0999897339675331
14.078300000000002,4.829430240866422,0.0997519536846253
14.080679999999996,4.847821234636511,0.0995166639924854
14.083076000000002,4.856341494301377,0.099418872911944
14.085463999999998,4.864070358033324,0.0993225330767194
14.087844,4.8726378395264325,0.0991663944097488
14.090239999999998,4.884557896206316,0.0989462739254745
14.092628,4.894243534714306,0.0987183599542806
14.095008000000004,4.913288050648322,0.0983412098315089
14.097412000000002,4.939689343261948,0.0978470375171305
14.099796,4.964740161435215,0.0973964143872756
14.102176000000004,4.986345856623089,0.0969646866641333
14.104580000000002,5.0130266884904335,0.096462216297271
14.106967999999998,5.043060095544556,0.0958905701354214
14.109348,5.070719314799923,0.0953239127825386
14.111748000000002,5.087856173644011,0.0948690460319335
14.114132,5.105971419876117,0.0943518219215446
14.116516,5.125157601294863,0.0938202949225801
14.11892,5.137965393422021,0.0933415641543026
14.121308000000004,5.145558279242846,0.0929415298217777
14.123687999999998,5.151288833944115,0.0925604314584194
14.126084000000002,5.157019388645384,0.0921801701620633
14.128472,5.165683209652847,0.0917697964241527
14.130852,5.18170380733992,0.0912445699302357
14.133252000000002,5.197584635400133,0.0907322613855502
14.13564,5.21569988163224,0.0902346323705031
14.13802,5.228600221558016,0.0898179479424401
14.140424,5.240941482976351,0.0894389053655956
14.142812000000005,5.246205506968796,0.0891527362474663
14.145191999999998,5.244392293535351,0.0889565035700598
14.147588000000002,5.243929554542266,0.0887274882970789
14.149976,5.242907737041739,0.0885326061580567
14.152359999999998,5.2381612573021,0.088367392496188
14.154756000000004,5.236348043868655,0.088172741932677
14.157144,5.232253190435073,0.0880180160288843
14.159524,5.236818366293217,0.0877797794146144
14.16192,5.244688895509892,0.0875439615679463
14.164303999999998,5.252000346219128,0.0873443887586828
14.166700000000002,5.261825754353978,0.0871406929553415
14.169100000000004,5.2779370039818,0.0868522148089747
14.171488,5.297121289542677,0.0865295923338915
14.173868000000002,5.317096971036472,0.086210936076139
14.176260000000005,5.331578206970213,0.0859781700804114
14.178648,5.343498263650097,0.0858034530207799
14.181028,5.356349485889759,0.085624100761124
14.183432,5.368688851450224,0.085427298352423
14.185820000000003,5.3799572818240495,0.0852437582352363
14.188199999999998,5.392017108130794,0.0850625308569714
14.190592,5.411014402236567,0.0848137231026882
14.192980000000002,5.431874027461896,0.0845508552719546
14.195364,5.4481703726869535,0.0843644471234814
14.19776,5.469262315337761,0.084137932411466
14.200143999999998,5.491797280227543,0.0839245330047956
14.202540000000004,5.512981770676968,0.0837467996017483
14.204936,5.538822088925283,0.0835386920343071
14.20732,5.564662407173598,0.0833340115047947
14.209700000000002,5.584496423182663,0.0831927685178085
14.212104,5.60339927363195,0.0830572860066382
14.214492000000003,5.623373059267875,0.0829084021718978
14.216872,5.640413578597606,0.0827880485697879
14.219268000000003,5.6511682564343655,0.0827432562354625
14.221656,5.658849898338068,0.0827319146387737
14.224036000000002,5.670163654682268,0.0826541230446507
14.226432,5.683759051026605,0.0825411153810331
14.228820000000002,5.691627684385413,0.0824705004162173
14.231199999999998,5.696423281811165,0.0824335462763029
14.233596000000002,5.707364951103028,0.0823303226980286
14.235983999999998,5.71979686446211,0.0821904158949576
14.238376,5.724080605208664,0.0821360751159
14.240779999999996,5.730785755582216,0.0820394172505967
14.243168,5.742054185956041,0.0818729552456187
14.245548000000005,5.7488065581578365,0.0817262957375275
14.247952000000002,5.7550470736804336,0.0815616228992623
14.250339999999998,5.759565027710333,0.0814005175956131
14.25272,5.759846462821924,0.0812428029684436
14.255115999999996,5.759476271627456,0.0810755404222067
14.257504,5.759525389313569,0.0808842097151485
14.259888,5.7601335855071225,0.080661574895222
14.262283999999998,5.760881551327535,0.0804320403430714
14.264668000000004,5.759487646774671,0.0802277554572494
14.267052000000003,5.761446317408584,0.0799755618754758
14.269448,5.768759663975688,0.0796592914881065
14.271836000000004,5.774070909796375,0.0793618071778745
14.274216,5.776588658937729,0.0790803078677316
14.276612000000004,5.784181544758554,0.0787493360634949
14.278996000000005,5.7968495672588505,0.0783714477162725
14.281375999999998,5.8048617619602565,0.0780212464446673
14.283780000000004,5.811011625542107,0.0776827871496643
14.286172000000004,5.818791502818035,0.0772979919809758
14.288552,5.824289740093827,0.0769479552783091
14.290948000000004,5.826854711063423,0.0766206481009681
14.293336,5.833423883525852,0.0762604417225488
14.295716000000002,5.84213492636156,0.0758784583371332
14.298112,5.853267378824265,0.0754601241925506
14.300500000000005,5.865982623152806,0.0750478749214356
14.302879999999998,5.878697867481346,0.0746386643343339
14.305276000000005,5.890342176623248,0.0742397722847601
14.307664,5.903988586511567,0.073828342621776
14.310047999999998,5.918566161959665,0.0734162094953086
14.312452000000004,5.936356542967678,0.0729698715712359
14.314836000000003,5.953215758415912,0.072527960578463
14.317215999999998,5.964860067557814,0.072137154915993
14.319620000000004,5.976364607072855,0.0717531394565612
14.322008,5.9875896073341766,0.0713831790772186
14.324388000000004,5.999606003528415,0.0710199772780139
14.326792,6.003893535990708,0.0707008774005902
14.329179999999996,6.00776175957242,0.0704034155945619
14.33156,6.007625781661298,0.0701340762243016
14.333956000000004,6.012285401175928,0.0698403076001707
14.336340000000003,6.0158740855039206,0.0695571916908064
14.338724000000004,6.018252065018414,0.069291419099504
14.34112,6.019698878973129,0.0690309639327129
14.343504,6.016861952181289,0.0688140848813717
14.345888,6.008670349456256,0.0686507294651156
14.348284000000003,6.001130373037284,0.0684990018943623
14.350668000000002,5.994242022924367,0.0683590249212345
14.353064,5.986142967997951,0.0682362481170968
14.355467999999998,5.973620402698121,0.068163312364673
14.357856000000002,5.958304340718956,0.068099545586394
14.360236000000004,5.943779674672709,0.0680391401759969
14.362632,5.930046404559381,0.067982426037097
14.365019999999998,5.920317335938886,0.0678984669561219
14.3674,5.9135215336245865,0.0677979021520932
14.369803999999998,5.908867601683563,0.0676766524640459
14.372192000000002,5.901000864182627,0.0675862800869887
14.374572000000004,5.9024457822794725,0.0674660536756345
14.376968000000002,5.906963736309374,0.0673228292092132
14.379355999999998,5.917068683697944,0.0671616529436044
14.381740000000004,5.9227501207131,0.0670491608254165
14.384144000000004,5.929502492914896,0.066926459212032
14.386528000000002,5.942121397729081,0.0667729707390527
14.388908000000004,5.951247957729631,0.0666639040057485
14.391312000000005,5.963307784036375,0.0665390389931507
14.393704000000003,5.976019236649177,0.0664242083362522
14.396083999999998,5.990220933329197,0.0662786557313602
14.398480000000005,5.999627032583467,0.0661545266638825
14.400868,6.016110369263624,0.0659822548402502
14.403248,6.038879547436755,0.0657586982358742
14.405644,6.059227315982886,0.0655679554051344
14.408032000000002,6.07957508452902,0.065379911004866
14.410416,6.1039270545679845,0.0651696177611477
14.412812,6.126416693487394,0.0649667009691837
14.415195999999998,6.147975166847025,0.0647687367066184
14.417576,6.169533640206655,0.0645727069355043
14.419971999999998,6.191511422446866,0.0643551189427824
14.42236,6.206971045768628,0.064156342976103
14.424740000000003,6.223641373903891,0.0639445083447168
14.427144000000002,6.237518205359818,0.0637403848640557
14.429531999999998,6.253816446442743,0.0635045785751417
14.431912,6.272536097152665,0.0632391878017479
14.434312000000002,6.286879459317416,0.0629737082425592
14.436699999999998,6.304715166295802,0.0626676457123895
14.43908,6.320828311781495,0.0623597324642806
14.441475999999998,6.342575672454097,0.0619953404068069
14.443864,6.361529536447366,0.0616393896885491
14.446248,6.385418767493245,0.0612600255403166
14.448643999999998,6.404652170740234,0.060894043810395
14.451032,6.417739502121113,0.0605680547567251
14.453416,6.436321279062042,0.0601928198123363
14.455811999999998,6.449036523390584,0.0598411739703745
14.4582,6.4558852351067335,0.0595152513179366
14.460584,6.463665112382662,0.0591886910921456
14.462979999999998,6.468511723352396,0.0588737352738127
14.465368000000002,6.472427168762351,0.0585613456077645
14.467748000000004,6.479555419732223,0.0582257777936809
14.470144,6.489756706635147,0.0578725648125818
14.472531999999998,6.4938119216719645,0.0575552254441948
14.474912,6.502011107828473,0.0572140815492499
14.477312,6.51114145954476,0.0568740330515009
14.479696,6.522785768686662,0.0565478109409494
14.482091999999998,6.534802164880903,0.0562462178571586
14.484488000000002,6.5486808921947,0.0559451735698453
14.486872000000002,6.566563821001329,0.055629166738654
14.489252000000004,6.5812339442480425,0.0553380980733146
14.491656000000004,6.597626628987453,0.0550523169438783
14.494044,6.611225817047529,0.0547706269331292
14.496424,6.629341063279636,0.0544928269378739
14.498828,6.649737949511881,0.0541945060760718
14.501212,6.66678226055735,0.0539248903505278
14.503592,6.686899607535874,0.053638779243163
14.505988,6.709019055260815,0.0533447013429075
14.508376000000002,6.728345006306421,0.0530535908338475
14.510756000000004,6.7516751588448605,0.0527480125211077
14.513160000000005,6.775936476943079,0.0524432956696227
14.515548,6.798428011720357,0.0521787824621551
14.517928,6.820779776870775,0.0519224825845215
14.520332,6.846995973887165,0.0516570774006955
14.522716,6.871721926836338,0.0514197746425511
14.525096,6.891232973479179,0.0512098532781315
14.5275,6.899662581203296,0.0510422603566489
14.529888000000003,6.91023405930069,0.0508621478689994
14.532267999999998,6.914799235158833,0.0507036147957291
14.534672000000004,6.912938799897146,0.0505844878269164
