Time,Force,Position
13.890899999999998,2.1156453274949465,0.1639794816109725
13.893296,2.1622432438806287,0.1625857544871059
13.895684,2.2031162931386503,0.1611841467884759
13.898063999999998,2.2302560722833427,0.1603462818292953
13.90046,2.2541849417259896,0.1594264341843031
13.902848,2.273085896317408,0.1587899094870878
13.905228,2.2858407790427147,0.1585585137931176
13.907628,2.298176352887441,0.1584151126310133
13.910016,2.322244991956948,0.1576289828826594
13.912396,2.352971559571764,0.1564749112496397
13.914796,2.379414386440025,0.1556273567262198
13.917184,2.401341155136254,0.1549954040449034
13.919564,2.411954167488284,0.1549195518998421
13.921964,2.4220553231611155,0.1548294219045647
13.924352,2.432296248460808,0.1547173760974151
13.926735999999998,2.44239740413364,0.1546333241888656
13.92914,2.4545006605528887,0.15445752979458
13.931524,2.4656727514123595,0.1543093129807628
13.933903999999998,2.4774039207792717,0.1540705168959675
13.936308,2.4848985712278724,0.1539574625222648
13.938696,2.490391120930055,0.1539537461702469
13.941076,2.498165310632376,0.1538011270200317
13.943472,2.510315788879868,0.153504757207858
13.94586,2.5294037349263894,0.1528528840740811
13.948239999999998,2.5443477098532163,0.1524352905890156
13.950636,2.5550551658617326,0.1521526524082509
13.953024,2.567904492243525,0.1517472558740358
13.955403999999998,2.57968288343868,0.1514081893923467
13.9578,2.5893194042605576,0.1512095823727861
13.960192,2.598816155455575,0.1510417180190575
13.962571999999998,2.6125966473971456,0.1506602450567981
13.964968,2.631312506391329,0.1500801281869883
13.967356,2.6552432716918446,0.149223867184677
13.969736,2.67302796512625,0.148655187939105
13.97214,2.68801916188132,0.1481844436665671
13.974528,2.704081293823029,0.147671068891479
13.976912,2.714648980204685,0.147448285902606
13.979308,2.730571342519534,0.1469566378564779
14.103548,2.9723398689299687,0.1467840303772772
14.105932,2.983326864192206,0.1465609267679913
14.108336,2.99524502501422,0.1463117601009908
14.110724,3.00409014990318,0.1461802350750331
14.113104,3.0120041092323606,0.1460773293403048
14.1155,3.0262039100545124,0.1457290838484425
14.117888,3.04920350979525,0.1450753146744791
14.120268,3.0763470806556814,0.1442753341819409
14.122664,3.102699255583195,0.1435009659056792
14.125056,3.13454587607076,0.1425220407995406
14.127436,3.166532266185188,0.1415244699873497
14.129836,3.199077734807056,0.1404758576707213
14.132224,3.22803831081667,0.1395258975212117
14.134604,3.262865419438674,0.1383568423640163
14.137,3.300905333620595,0.1370343689312625
14.139392,3.3381538518695963,0.1357316588987727
14.141772,3.372888412692984,0.1344873476989326
14.144168,3.4088336783298696,0.1332203232018066
14.146556,3.438912411354365,0.1321506061548018
14.148936,3.4668492740055843,0.1311896721665796
14.151336,3.494506597403083,0.1302729158124498
14.153724,3.5147145963223547,0.129564648916357
14.156104,3.535062364868488,0.1288487696339818
14.158504,3.5576917734147564,0.1280402687199047
14.160892,3.5824630523343024,0.1271663539162532
14.251687999999998,3.5989444931565924,0.1268122313201784
14.254076,3.6170993777854656,0.1267716511407484
14.256452,3.644985226892703,0.1264960098482815
14.25886,3.6723119974924994,0.1262776116415372
14.261247999999998,3.701501099211853,0.1260205641914893
14.263628,3.7348341720509,0.1256544977324852
14.266023999999998,3.769098410449725,0.1252825219023668
14.268411999999998,3.807366850341384,0.1247975024447486
14.270792,3.843493419859765,0.1243884357748054
14.273188,3.887256305311477,0.1237595865305352
14.275576,3.935023392256023,0.1230270463851034
14.277956,3.9801367521480935,0.1223637648361146
14.280356,4.026740356107384,0.121638108481199
14.282744,4.07683630488031,0.1208167550232361
14.285124,4.127631101787536,0.119953978623722
14.28752,4.172559366082373,0.1192176022317025
14.289908,4.2120404066454,0.118584932622351
14.292288,4.243001187543562,0.1181079478510846
14.294684,4.272239406949027,0.1176539104388927
14.297072,4.301896935235073,0.1171666864552194
14.299471999999998,4.332765168334617,0.1166463248168088
14.301868,4.369639703673413,0.1160136778860932
14.304251999999998,4.402789576773095,0.1154560772582706
14.306636,4.436498528380217,0.1148544231967042
14.309031999999998,4.469695623308143,0.1142387993962792
14.311419999999998,4.497957351183455,0.113724992248379
14.3138,4.523425582379433,0.1132594667722827
14.316199999999998,4.553317323948826,0.1126961655756116
14.318584,4.584559539958578,0.1120931267305632
14.320968,4.606722417796024,0.1116734281756044
14.323363999999998,4.627022964513914,0.1112828573725738
14.325751999999998,4.644250475298748,0.1109543864826987
14.328136,4.660686590150663,0.1106328321952745
14.330531999999998,4.670836863509607,0.1104430319630029
14.332919999999998,4.677122705002578,0.1103156214018834
14.3353,4.687180430562907,0.1100762205215784
14.337699999999998,4.695375825003676,0.1098603846995545
14.340087999999998,4.7079947298178615,0.1095373465309137
14.342468,4.720753404258908,0.1092039164745097
14.344864,4.732580913140175,0.108884908495827
14.347252,4.742546090901884,0.1085934466396118
14.349647999999998,4.741988908252313,0.1084602676031951
14.352044,4.739057537803986,0.1083318527079682
14.354432,4.733472440303185,0.1082292933840971
14.356811999999998,4.729377586869603,0.1080722530440245
14.359208,4.728635308622798,0.107837762027714
14.361596,4.730034900749271,0.1075599462903801
14.363976,4.723426089890075,0.1074174689772528
14.36638,4.711742142351405,0.107363701307123
14.368768,4.703410769999513,0.107233284963087
14.371147999999998,4.696429872087979,0.1070597702718554
14.373544,4.6889371174972485,0.1068658862888
14.375932,4.67958203178696,0.1066946453168172
14.378312,4.673719290890309,0.1064361816242707
14.380707999999998,4.668927485180294,0.106155194849005
14.383095999999998,4.65892077316395,0.105972686761082
14.385476,4.654128967453937,0.1056906308356568
14.387876,4.650919953609758,0.1054076491502936
14.390259999999998,4.645988378272885,0.1051358493649209
14.392644,4.643198673309289,0.1048219363318421
14.395039999999998,4.6357531405468,0.1045615438452519
14.397427999999998,4.634313910023563,0.104199773110417
14.399824,4.636319802485718,0.1038142229558813
14.40222,4.641119191627208,0.1033948013102168
14.404608,4.639492969648867,0.1031048658757768
14.406987999999998,4.633862546177692,0.1028805567960924
14.409388,4.623576294907627,0.1027109389735042
14.411776,4.618225410690173,0.102464611528249
14.41416,4.615156166472856,0.102162539366802
14.416556,4.611667613374959,0.1018922827689303
14.418944,4.60883068658312,0.1016334920187701
14.421328,4.608647486843754,0.1013521652656749
14.423724,4.608184747850668,0.1010909241399527
14.426112,4.603578037737889,0.1009042142460628
14.428492,4.5968294572518325,0.1007599743194162
14.430888,4.595667870124446,0.1005491585877124
14.433276,4.590222542250506,0.1004250212211624
14.43566,4.580912782510592,0.1003547168608513
14.44044,4.56168696269508,0.1003195310385593
14.442823999999998,4.558708370418513,0.1002466614323235
14.44522,4.554379303701584,0.1002160675538463
14.449991999999998,4.544370695827368,0.1001957653501744
14.452388,4.545628622469111,0.1001020034688546
14.454776,4.549540276163327,0.0999871227219199
14.457156,4.557828218402715,0.0998407448336709
14.459556,4.559830319149132,0.0998091108146372
14.461939999999998,4.561413111014969,0.099808947847382
14.469108,4.56550986030642,0.0997982905042843
14.471504,4.570165688105311,0.0997473519646567
14.4739,4.578546178143315,0.0996549011444484
14.476288,4.592513661539991,0.099501962363366
14.478672,4.605829518630607,0.0993410680302759
14.481068,4.619005606094364,0.0991889270685621
14.48346,4.63804822617051,0.0989579031056147
14.48584,4.656439219940599,0.0987172613745581
14.48824,4.68004512001702,0.0983843032206979
14.490628,4.699926357854328,0.0980986307709827
14.493012,4.722880631624693,0.0977678769566639
14.495408,4.741970473529084,0.0974842844027007
14.497792,4.759896832448218,0.0971729938823161
14.500176,4.777683421740492,0.096876813012016
14.502579999999998,4.795749550286487,0.0965636460760084
14.504964,4.813024282899564,0.0962530388012305
14.507348,4.83765579219225,0.0958187332007173
14.509744,4.866710811858351,0.0953038377521527
14.512132,4.898838867457506,0.0947535394580379
14.514512,4.93296902380308,0.0941817491626133
14.516908,4.9664475538425945,0.093602770628789
14.519296,4.994059551269719,0.0930960266278214
14.521676,5.0238134190701205,0.0925605425423249
14.524079999999998,5.050122163885129,0.0920465871289658
14.526468,5.0781534701928335,0.0915331229082929
14.528848,5.1086061861275365,0.0909678433435235
14.531244,5.135334239823127,0.0904426865228094
14.533632,5.1622020631455765,0.0899102402085351
14.536016,5.1870677857216085,0.0894067603569956
14.538412,5.211142112364724,0.0889047654173496
14.5408,5.2312122375150025,0.0884541685108038
14.54318,5.256217729717896,0.0879481897193507
14.545576,5.2806641434133486,0.0874804885934183
14.547964,5.304319161175881,0.0870162582704722
14.550344,5.3269032437517785,0.0865708057398342
14.55274,5.348556160767896,0.0861345377432316
14.555128,5.368206977037596,0.0857274145511511
14.557508,5.388369649986494,0.0853483319238641
14.559908,5.401455085509504,0.0850513066791132
14.562292,5.410536319539679,0.0847980441208344
14.564676,5.420548719129632,0.0845397499851895
14.567072,5.4385695217052525,0.0841989229352699
14.56946,5.454727993161317,0.0838750741560751
14.571839999999998,5.471026234244241,0.083544485114675
14.57424,5.483739582714913,0.0832320479154799
14.576628,5.495102456745225,0.0829519771030724
14.579024,5.505394395588898,0.082686258375739
14.581419999999998,5.520202392604603,0.0824034066070863
14.583808,5.537012490366726,0.0821031116066248
14.586188,5.556476315181323,0.0817971499902448
14.588584,5.581015276675392,0.081442573109875
14.590972,5.603272598169324,0.0811251552347705
14.593352,5.627532020409673,0.0807907667537454
14.595748,5.648578637090106,0.080496331012605
14.598136,5.66841454895704,0.0802227076580829
14.60052,5.690112791943532,0.0799403542198569
14.602916,5.713533596422719,0.0796592116749887
14.605308,5.734021134595711,0.079405060763454
14.607688,5.759304270194455,0.0791162272267836
14.610091999999998,5.791245334338507,0.0787861307446624
14.612479999999998,5.823977794415478,0.0784627313244027
14.61486,5.847071837812702,0.078254897635846
14.617259999999998,5.870957277142844,0.078052505977715
14.619647999999998,5.894143868338685,0.0778890669176941
14.622028,5.918913251400362,0.077731984944295
14.624424,5.946615900768235,0.0775544854115215
14.626812,5.978974377934999,0.0773554981682926
14.629192,6.004535156929594,0.0772063649256201
14.631592,6.026091734431356,0.0770917794066987
14.63398,6.044854815253783,0.0769926084228786
14.63636,6.058263220143018,0.0769546301971816
14.63876,6.075815596151945,0.0768773363654968
14.641148,6.094438907347512,0.0767902404329977
14.643528,6.114924549662634,0.0766932870708025
14.645927999999998,6.138622997537672,0.0765615957299075
14.648312,6.160459114293154,0.0764399656414013
14.650696,6.178430799182663,0.0763438223943782
14.653099999999998,6.193608987392835,0.0762603388884021
14.655487999999998,6.205853909296814,0.0761971183852097
14.660268,6.21353555120052,0.0761950948733331
14.662655999999998,6.223406285305743,0.0761229935686951
14.665036,6.228341652358355,0.0760868607638977
14.667431999999998,6.234627493851327,0.0760245874192921
14.696103999999998,6.123966145296044,0.075989359007034
14.698496,6.108230774436298,0.0759656567659353
14.700876,6.09584797876333,0.0759001157348113
14.703271999999998,6.087376836784576,0.0757641419426495
14.705659999999998,6.079464773313263,0.0755983910657487
14.708044,6.0713203924164745,0.0753995471444439
14.710439999999998,6.061732989280711,0.0751873254999908
14.712827999999998,6.056569096518359,0.0749228478325236
14.715212,6.048751476703533,0.0746622537720145
14.717607999999998,6.0424241009559285,0.074369292682739
14.719995999999998,6.040799774835456,0.0740111340816515
14.722376,6.045321520581096,0.0735995912376469
14.724771999999998,6.046630460766818,0.0732208998367502
14.727163999999998,6.0523629113259565,0.0727934769377551
14.729548,6.066383304124482,0.0722949468480551
14.731944,6.080263927296147,0.0718033157369965
14.734331999999998,6.094144550467813,0.0713111305047967
14.736716,6.112960540692088,0.0707847752201554
14.739112,6.126841163863753,0.0702909268619029
14.741499999999998,6.145005527781976,0.0697579509392771
14.743884,6.160516164647721,0.0692263082014664
14.746292,6.174816096699966,0.0687167740428457
14.748676,6.185763453565436,0.0682459390598638
14.751055999999998,6.190005660057356,0.0678514132171945
14.75346,6.194899492855332,0.0674667304812322
14.755844,6.203378218265561,0.0670774077582986
14.758223999999998,6.210087160354851,0.066735631044872
14.76062,6.2145144624440025,0.0664219272193043
14.763004,6.220804095652712,0.0661017960244726
14.765384,6.223089527368588,0.0658073774181851
14.767784,6.220951448711049,0.0655603712743173
14.770172,6.21881337005351,0.0653142823382532
14.772552,6.222029967329165,0.0650204293576463
14.774956,6.221893989418044,0.0647641039058659
14.777344,6.213749608521255,0.0645558172642705
14.779723999999998,6.205465457997605,0.0643537973884544
14.78212,6.198112473033735,0.0641488855840685
14.784508,6.187686452136808,0.0639647973366025
14.786888,6.183266733479132,0.0637453151078131
14.789292,6.174423504448042,0.063570185571069
14.79168,6.167582376163368,0.0633823646170052
14.794059999999998,6.1578079815725,0.0632078451863054
14.796456,6.152317327728185,0.0629965485292691
14.798844,6.149759940190066,0.0627700476237029
14.801224,6.150275588585003,0.0625234573975369
14.80362,6.149860071420161,0.0622803638582825
14.806008,6.148513388695541,0.0620390455320239
14.808388,6.148097871530699,0.0617953231148971
14.810788,6.147682354365857,0.061551802321208
14.813171999999998,6.150851729813269,0.0613063808412671
14.815568,6.152950170074041,0.0610682019421078
14.817964,6.154769071081092,0.0608449678407296
14.820348,6.154818188767204,0.0606670462874883
14.822731999999998,6.156869407199734,0.0604791580460401
14.825136,6.162645287871374,0.060282679076458
14.82752,6.17335653559563,0.0600647002988175
14.8299,6.184998948879663,0.0598459488578458
14.832304,6.202927203656667,0.0595844525344179
14.834692,6.216571717687117,0.0593585812710734
14.837072,6.230495770971285,0.0591188302054167
14.839468,6.249867047987267,0.0588787301997894
14.841852,6.271380195376524,0.0586222591387262
14.844236,6.2895407675790045,0.0583987531422102
14.846632,6.314918346834235,0.0581348725822926
14.84902,6.336431494223492,0.0578848823684971
14.851399999999998,6.358224180866468,0.0576241971897206
14.853804,6.383369442696223,0.0573348724133273
14.856192,6.41293821489939,0.0570121387535026
14.858572,6.44744235415517,0.0566754087248126
14.860976,6.483157198224448,0.0563279725541368
14.863364,6.527811610839171,0.0559484860769265
14.865744,6.573816497894255,0.0555532531085321
14.86814,6.616236492337085,0.0551563661118545
14.870528,6.6557232204737184,0.0547709063607737
14.872912,6.698143214916549,0.0543793960970257
14.875308,6.736559007866546,0.0540083743061515
14.877696,6.772972700070124,0.0536466581957013
14.880076,6.802169385220955,0.053324370622843
14.882476,6.835649811118339,0.052976527510614
14.88486,6.869921632948641,0.0526347093371683
14.887244,6.898326922166552,0.0523123747857982
14.88964,6.926312902503883,0.0520093793254538
14.892028,6.957511688401131,0.0516873970214161
