Time,Force,Position
14.020884,1.8728025496804763,0.1739135573431804
14.023263999999998,1.9462569142413928,0.17192759764995
14.025659999999998,2.0158487427942053,0.169881871472531
14.028052,2.077434064219219,0.168300157211694
14.030431999999998,2.1365998718751045,0.1665708042366522
14.032828,2.191436612814062,0.1650482644513896
14.035215999999998,2.2377077681177804,0.1638904764876103
14.037599999999998,2.280488474465733,0.1626262538352622
14.040004,2.318987335925,0.161353469611293
14.080616,2.4338190229916585,0.1604891386475346
14.085404,2.4402427382536205,0.1604341851882981
14.087784,2.442989013104712,0.1604276454269442
14.09018,2.44717831019478,0.1604045812423693
14.092568,2.453090168777544,0.1603211423072654
14.094948,2.457419235494472,0.1602756785265242
14.097348,2.465240647025036,0.1599922069129541
14.099736,2.475064159302017,0.159599210884594
14.102116,2.4871693115791347,0.1590708621245647
14.104512,2.5074226364687813,0.1581037675014885
14.1069,2.526185717291208,0.1572861224895598
14.109284,2.543877862926996,0.1565634350682133
14.111688,2.56492258374956,0.1556744506143149
14.114076,2.5935563986772108,0.1544788119411509
14.116456,2.614042040992333,0.1536814733319975
14.118855999999996,2.6288009203219254,0.1531333506935494
14.121244,2.647843540398073,0.1523730399748574
14.123624,2.6708903619670537,0.1514298591126059
14.126027999999998,2.690212521296921,0.1506178582294051
14.128415999999998,2.711816320626926,0.1496862159869149
14.130796,2.732768493650873,0.1487706180184685
14.1332,2.756002306674957,0.1477183843614435
14.135583999999998,2.778025414885542,0.1467477541436651
14.137968,2.8013989975364866,0.1456861099955638
14.140363999999998,2.8247725801874317,0.1446374095036905
14.197699999999998,2.93499945299918,0.1441406108482342
14.200088,2.9481736446050677,0.1439948674648477
14.202468,2.9692164695697616,0.1435753529526005
14.204871999999998,2.991609768974815,0.1430693678248132
14.207259999999998,3.0097193276333147,0.1427379784899347
14.20964,3.036628685210399,0.1420833883575923
14.259819999999998,3.1759502160850137,0.1415433850732013
14.262224,3.183864175414196,0.1414531060093866
14.264608,3.1921974436239577,0.141315855342624
14.266987999999998,3.2038832870204947,0.1410374891985543
14.269388,3.219433562283006,0.1406411074444987
14.271772,3.2371257079187945,0.140161617252366
14.274155999999998,3.259753220607194,0.139518838547609
14.27656,3.282380733295594,0.138892839418041
14.278948,3.306870577103551,0.1382213045724468
14.281327999999998,3.3285669242321725,0.1376339292658433
14.283732,3.348820249121818,0.1370490770384054
14.286116,3.3682821780785464,0.1364804556335895
14.288496,3.3925397044610257,0.1357856051618921
14.290892,3.41945095789598,0.1350264641975482
14.29328,3.449295477637129,0.134205821370687
14.295659999999998,3.476346500698944,0.1334590307952497
14.298064,3.505679163760895,0.1326097660093378
14.300452,3.5343602005167893,0.1317456604963369
14.302832,3.5598284317127677,0.1310117800136416
14.305228,3.5871589940283024,0.1302313730455801
14.307616,3.609973498171806,0.1295563822343926
14.309995999999998,3.629063340076197,0.1289989648907317
14.3124,3.648153181980587,0.1284487290633123
14.314788,3.666823715004396,0.1279481427062526
14.317168,3.684702852095288,0.1274619410616048
14.319564,3.700300349186042,0.1270595255728649
14.321952,3.7146871414632976,0.1267116943116904
14.324331999999998,3.727211602620996,0.1264087876120217
14.326736,3.739084437472637,0.1261020023170476
14.32912,3.750957272324277,0.1257952170220735
14.331504,3.765064525347813,0.1254864957091488
14.333907999999996,3.777169677624931,0.125230564548143
14.336296,3.7876920380362127,0.1249939772923395
14.338676,3.7987734769549353,0.1247052182374602
14.341072,3.804779779194186,0.1245537797387654
14.343456,3.811717246993215,0.1243830624762539
14.34584,3.817164470725025,0.1242839704372588
14.348236,3.828198687815505,0.1240762902142031
14.350624,3.839232904905984,0.1238676887076976
14.353004,3.848265021250047,0.1237091817712361
14.364952,3.881875737484945,0.1235289192050594
14.367331999999998,3.891140171254485,0.1234221532135731
14.374503999999998,3.9092025080847415,0.1233221606888658
14.376904,3.915813214801807,0.1232577742393228
14.379288,3.920980899279896,0.1231903297529984
14.381671999999998,3.928430223758123,0.1230482552386732
14.384068,3.9349483826765703,0.1229267328099961
14.386456,3.940395606408381,0.1228366072743527
14.388835999999998,3.944911664580412,0.122762191094244
14.391232,3.948356787565805,0.1227178865570039
14.39362,3.955294255364834,0.1225558485946593
14.396003999999998,3.955061937939357,0.1225084847683371
14.398408,3.957390799767737,0.1223630641691394
14.400796,3.96479479827559,0.1220969483859478
14.403175999999998,3.9696848393578272,0.1218565384619181
14.405572,3.977275829320784,0.121501225026248
14.40796,3.989802186336352,0.1210360915775761
14.410343999999998,3.9952513059260313,0.1207407131486483
14.41274,4.002982065515846,0.1203729234890181
14.415128,4.005125831746993,0.1201096181405076
14.417507999999998,4.006478202045221,0.1198498084931564
14.419908,4.0159787449559765,0.1193950187224668
14.422296,4.023337417493456,0.118996440370459
14.424675999999998,4.028274680403937,0.118684843818347
14.427072,4.030138907381363,0.1184463040668691
14.42946,4.032003134358789,0.1182095943964983
14.431843999999998,4.031725490962938,0.1180312446780688
14.43424,4.030237142753588,0.1178943137746545
14.436628,4.031961600104154,0.1176694767695948
14.439007999999998,4.0371784022683554,0.1173333806104399
14.441412,4.042395204432557,0.1170023120397782
14.4438,4.051196899209011,0.1166187600794383
14.446179999999998,4.057716953985329,0.1163082018010723
14.44858,4.059441411335894,0.1160903136454171
14.450964,4.066101235739072,0.1157753491091845
14.453343999999998,4.076765261635083,0.1153812336230003
14.455752,4.082773459732203,0.1150620438662798
14.45814,4.092925628949017,0.1146430409149611
14.46052,4.102006862979192,0.1142534302211415
14.462916,4.113602054434982,0.1138434679721984
14.465304,4.124266080330993,0.1134452840237369
14.467683999999998,4.129063573614615,0.1131645461394225
14.470088,4.136142706898374,0.112817235701613
14.472476,4.143501379435852,0.1124458073102074
14.474856,4.159147994212718,0.1118915795028154
14.477263999999998,4.17772787529578,0.1112957217868396
14.479647999999996,4.198309857125259,0.1106609858868876
14.482032,4.221313248581735,0.1099529099182991
14.484427999999998,4.241243604105155,0.1093094905516308
14.486815999999996,4.25768161481494,0.1087701279418568
14.4892,4.271186359218529,0.1082864712217707
14.491595999999998,4.283759938062341,0.1078186948686751
14.493983999999998,4.294331416159735,0.1073870650164175
14.496364,4.304763124630268,0.1069650111888484
14.49876,4.309048761234693,0.1066726217842444
14.501148,4.3101215922792,0.1064569494623068
14.503528,4.313987920003043,0.106202140507496
14.505924,4.318925182913525,0.1059242873223743
14.541764,4.278705655819429,0.1057663753647692
14.544148,4.28373357067066,0.1057388124280725
14.546532,4.293836622201361,0.1056184310719207
14.548935999999998,4.3033805952246205,0.1055420085880321
14.551323999999996,4.311853633061244,0.1054893113202561
14.5561,4.329404113212301,0.1054617858884994
14.558488,4.338900864407319,0.1054529258517861
14.560868,4.3468148237365,0.1054464293464282
14.563268,4.364087660491707,0.1052600651742632
14.565652,4.382012123552973,0.1050837591486268
14.568036,4.405383810346048,0.1048525502898371
14.570432,4.430897367512401,0.1045754841142935
14.57282,4.460415126171585,0.104221424703912
14.5752,4.492866151136966,0.1038181817209078
14.577596,4.529041838341461,0.1033745799999782
14.579984,4.563634733680119,0.1029507071684613
14.582363999999998,4.5960857586455,0.1025738676339037
14.584771999999996,4.634682855476992,0.1021006102051594
14.58716,4.674490657121981,0.1016012250539346
14.589544,4.714438228393834,0.1011001025181811
14.591939999999996,4.7480999581727135,0.1007208150086874
14.594328,4.7786886520185385,0.1003982687688598
14.596708,4.808905258812025,0.1000427051157271
14.599104,4.84005303116529,0.0996782635172458
14.601492,4.871759882025996,0.0992807298386807
14.603876,4.908030012886977,0.0987914279606517
14.606272,4.943508747815039,0.0983045937628387
14.60866,4.979267021996822,0.0978047666853073
14.611044,5.011300633939491,0.0973569130655489
14.61344,5.046035194762879,0.0968405741033711
14.615828,5.076812775921676,0.0963317062739392
14.618208,5.106798961147555,0.0958244359584784
14.620604,5.139066786373571,0.0952751145062151
14.622992,5.16947228048003,0.0947433101705014
14.625376,5.195501486041318,0.0942417600821634
14.627776,5.216455554923134,0.0938135213484669
14.630164,5.238620328618448,0.0933595110975777
14.632544,5.249052037088982,0.093043806157351
14.63494,5.258692349626598,0.0927301813258804
14.637328,5.267681035858157,0.0924096256329502
14.639712,5.277228800597156,0.0920512871809531
14.642108,5.285985169403237,0.0916914205842732
14.644492,5.299676905261931,0.0912770604436542
14.646891999999998,5.311646079627928,0.0908699018446573
14.649288,5.31933151324737,0.0905309960585909
14.651675999999998,5.321802040560479,0.0902694615297561
14.654056,5.325483272687088,0.0899834572684239
14.656447999999996,5.328884965559976,0.089716801131526
14.658836,5.3289340832460885,0.0895077302716725
14.661216,5.327632726491842,0.0893342468177647
14.663612,5.323909960110598,0.0892098005168305
14.666,5.323399999289269,0.0890384180693561
14.668395999999998,5.321167476975245,0.088873067557267
14.670792,5.322147760221134,0.0886615745180458
14.67318,5.324850604959722,0.0884452166592199
14.67556,5.329695320071587,0.0881973279468161
14.677955999999998,5.332677704063894,0.0879633511380707
14.680343999999998,5.344739426228506,0.0876235678322859
14.682724,5.355869982833342,0.0872924166525005
14.685128,5.363508194624543,0.0870242069262369
14.687516,5.3711464064157415,0.086755644643736
14.689895999999996,5.378644848580079,0.0864948094248714
14.6923,5.37920582294539,0.0863077921082701
14.694688,5.381768898057117,0.0860990665194395
14.697067999999998,5.386473843542121,0.0858588857927975
14.699464,5.390387393094208,0.0856154486917027
14.701852,5.391739763392436,0.0854290252254526
14.704235999999998,5.393231903317523,0.0852348550620262
14.706632,5.394724043242612,0.0850390951269672
14.709015999999998,5.391280816115088,0.0848942784618761
14.711399999999998,5.388768754547342,0.0847419899619596
14.713796,5.380762247419544,0.0846763947375194
14.716183999999998,5.373267596970944,0.0846299572347546
14.718564,5.364562241708844,0.0846069347236805
14.720959999999998,5.35413432495405,0.084587893512659
14.723347999999998,5.343426868945533,0.0845858064302082
14.725732,5.336583844802991,0.0845488018231488
14.730515999999998,5.320848473943247,0.0845474201221386
14.732896,5.314657076106762,0.0845205808887956
14.735295999999998,5.31219034050939,0.0844688654984463
14.737683999999998,5.311585936031575,0.0844049164247194
14.740064,5.318570625658847,0.0842842558014916
14.742463999999998,5.327557416032536,0.0841452494716757
14.744847999999998,5.337615141592864,0.0839929285474566
14.747232,5.353399630138721,0.0837990450108306
14.749627999999998,5.372676463498215,0.083547394084741
14.752015999999998,5.389671656857571,0.0833323331960363
14.7544,5.410019425403703,0.0830671210948175
14.756792,5.4337197691366095,0.0827501426541326
14.75918,5.457559882496378,0.0824236857102784
14.761556,5.482890239923364,0.0820553656587058
14.763972,5.50477547436496,0.0816928517275007
14.766355999999998,5.526940248060275,0.0813170308657675
14.768736,5.5488254825018695,0.0809571004331124
14.77114,5.5709902561971845,0.0805812748161334
14.773528,5.587428266906968,0.0802491887992141
14.775907999999998,5.599210449817861,0.0799465585827227
14.778312,5.616207539035087,0.0795863161939917
14.7807,5.635486268252451,0.0791939035419379
14.783079999999998,5.651831731163617,0.078829212818046
14.785476,5.667805107022448,0.07843931182143
14.787864,5.675677532096993,0.07808145835825
14.790243999999998,5.678754359745788,0.0777584160699499
14.79264,5.68304189220808,0.0774169572713404
14.795028,5.682813366498341,0.0770938579632977
14.797408,5.681653675228824,0.0767774074923341
14.799812,5.683194932840025,0.0764050464698787
14.802196,5.686878060824502,0.0760117195460581
14.804579999999998,5.693494455115175,0.0756008742753671
14.806984,5.704115050898683,0.0751600818730031
14.809372,5.717808682615244,0.0746939416480099
14.811751999999998,5.739231178063753,0.0741837834523454
14.814148,5.7595827383256255,0.0736880770752703
14.816536,5.784078269707188,0.0731571482115552
14.818915999999998,5.809784505902252,0.0726110211838835
14.82132,5.840286339523067,0.0720386316522631
14.823708,5.875723540196495,0.0714355563608154
14.826088,5.904083503444033,0.0708917667282857
14.828484,5.928159725945016,0.070394127741006
14.830872,5.951304782886221,0.0699000077898874
14.833251999999998,5.974310070200566,0.0694161102957489
14.835656,6.000760480500304,0.0689310270583006
14.83804,6.028002286732962,0.0684484656256278
14.840424,6.052171057032563,0.067994709712122
14.84282,6.077131223265082,0.0675462035363813
14.845208,6.098878583937685,0.0671303944603556
14.847587999999998,6.116993830169792,0.0667696499051094
14.849984,6.130545796401624,0.0664685183097335
14.852372,6.138743086700264,0.0662210800341759
14.854751999999998,6.143215714759791,0.0659876112431091
14.857148,6.1441959980056815,0.0658001948373025
14.859536,6.1401011445721005,0.0656505181587761
14.861932,6.136937456698297,0.0654981721140171
14.864324,6.130700732891439,0.0653689752915327
14.866712,6.122833995390501,0.065278042662718
14.869091999999998,6.114967257889563,0.065187244917427
14.871499999999996,6.100023282962736,0.0651427249299308
14.873884,6.0880125743421045,0.065083059189816
14.876268,6.080937232774084,0.0649960634013038
14.878664,6.077726323072038,0.0648918593696609
14.881052,6.075818665982108,0.0648108970231561
14.883432,6.076564735944651,0.0647297973718439
14.885832,6.080895698519448,0.0646460901752813
14.888216,6.0876008488930005,0.0645760562160832
14.8906,6.092815755199332,0.0645360874057741
14.892996,6.10096392781186,0.06448183390578
14.895384,6.115118402663639,0.0643926248450457
14.897764,6.130343812702054,0.064293669920008
14.90016,6.147431553860028,0.0641889527740952
14.902548,6.165822547630117,0.0641076015149835
14.904927999999998,6.189428447706539,0.0639874885534259
14.907328,6.213825743715878,0.0638724463125757
14.909716,6.235801630098221,0.0637898595295193
14.912095999999998,6.256706581293924,0.0637166399057045
14.914492,6.279753402862904,0.0636252415235099
14.91688,6.302008828498968,0.0635313220545405
14.919276,6.329059851560784,0.0634178781900408
14.921671999999996,6.355971104995738,0.0633116454603409
14.92406,6.377015825818301,0.0632336489695214
14.92644,6.396198215521308,0.063161863712709
14.928836,6.415799914104896,0.0630706632050531
14.931224,6.432887655262869,0.0629735139270486
14.933604,6.447461438995227,0.0628703109602244
14.936007999999998,6.459661034928832,0.0627537235971049
14.938396,6.478286241982269,0.0625860725990995
14.940776,6.497051218662564,0.06241308623079
14.943172,6.511020597917107,0.0622581329263573
14.94556,6.530344653104844,0.0620632967345474
14.94794,6.553300822733077,0.061825967569511
14.95034,6.57788700605539,0.0615566265379032
14.952728,6.595675491205533,0.0613141236502552
14.955108,6.610810249303202,0.0610703055842932
14.957504,6.628366417027869,0.060797280939023
14.959892,6.649135390312451,0.0605009498348341
14.962272,6.668321571731197,0.0601972097168324
14.964672,6.683363782030249,0.0599190818186867
14.967056,6.698965070836741,0.0596171801245836
14.96944,6.716056603710453,0.0592896489640652
14.971836,6.738363042890498,0.0589294265955713
14.974224,6.7568050502045685,0.0585814484287036
14.976603999999998,6.7716621649063855,0.0582343038367971
14.979004,6.785727883675285,0.0578828184856208
14.981392,6.797931271324627,0.0575339354219588
14.983788,6.812276529347248,0.057170836985155
14.986183999999998,6.81889292363792,0.0568329302705748
14.988571999999998,6.825928626809175,0.0564781628749605
14.990952,6.8361771355403445,0.0561024077218313
14.993347999999996,6.838417241285846,0.055762354586691
14.995736,6.834651044792097,0.0554476545392387
14.998116,6.825809711618875,0.0551561184097365
15.000512,6.820972579938488,0.0548475478265917
15.0029,6.820139649750935,0.0545230184463367
15.00528,6.820517424376881,0.0541870496982958
15.007676,6.820103803069908,0.0538476779241283
15.010064,6.818619246576296,0.0535150144538795
15.01246,6.821418430829239,0.0531543837934586
15.014864,6.822215514335765,0.0528018680605012
15.017248,6.819939561909235,0.0524633492127112
15.019631999999998,6.81459057354965,0.052139369387904
15.022028,6.81310601705604,0.0518063263407789
15.024416,6.810270986122068,0.0514899543225308
15.026795999999996,6.807156415934377,0.0511850531097609
15.029196,6.8077665079858,0.0508784056945554
