Time,Force,Position
15.774724000000004,1.808908747587665,0.180216483726897
15.777112,1.8853870303955245,0.1782629570128549
15.779492,1.958282316449,0.1763575964733206
15.781896,2.0268957576137905,0.1744679173701393
15.784284000000005,2.086291986837284,0.1730627448363575
15.786663999999998,2.136331234492621,0.1721854123487212
15.789060000000005,2.187955169871663,0.1708513369990275
15.791448,2.2357165692426,0.1694219858617922
15.793828,2.2814777637249906,0.1678611630779491
15.796228000000005,2.325518292572554,0.1660652609183556
15.798616,2.359550213545901,0.1646118228434447
15.800996,2.388182132615684,0.1634383829486121
15.8034,2.41579033832707,0.1622374600940476
15.805788000000003,2.439673881799342,0.161244996009149
15.855951999999998,2.568372921032581,0.1611866388580792
15.858348000000005,2.572190131070311,0.1611249324429992
15.860744,2.580291081854596,0.1608249426189195
15.863128,2.590813442265877,0.1603618312207973
15.922860000000004,2.624378832530402,0.1594167180432234
15.925256,2.6311293088743275,0.1592302063885197
15.927643999999995,2.6401614252183903,0.1589158169791872
15.930028000000004,2.65119564230887,0.1585166471233513
15.932424,2.662090089772489,0.1581364874527726
15.934811999999996,2.67163406279575,0.1578527330378752
15.937196000000004,2.6854617765655644,0.1573423470695453
15.939592,2.700220655895157,0.1567899244116168
15.941979999999996,2.7151193048516102,0.1562235414444017
15.944364000000004,2.734813551233815,0.1554514342868588
15.94676,2.750224056869466,0.1548989686021289
15.949147999999996,2.770709699184589,0.1541174221286183
15.951528,2.7938490685521877,0.1532518698910044
15.953928,2.815777733106286,0.1524529606001929
15.956315999999998,2.8406396639665807,0.1515413758353066
15.958696,2.870436961879487,0.1504020865770584
15.961092000000004,2.897952619792256,0.1494024110687795
15.96348,2.925328508078165,0.1484337699651804
15.965860000000005,2.9429734318857097,0.1478942356561525
15.968260000000004,2.955682988640642,0.1475754205163842
15.970644000000004,2.9731881428213263,0.1470828781244503
15.973028000000005,2.989203052934792,0.1467066089483213
15.975424,3.0017256182346213,0.1465188762900117
15.977812000000004,3.0130374787209524,0.1464040981968551
15.980196000000005,3.025560044020782,0.1462238429445697
15.9826,3.038362148574332,0.1460054566895619
15.984987999999998,3.050744944247301,0.1458460607037708
15.987372000000004,3.0643384447337687,0.1456222392916863
15.989768000000002,3.080865211526433,0.14530387995238
15.992155999999998,3.100325244625292,0.1449023424085706
15.994540000000004,3.1244883273512847,0.1442657475540967
15.996936000000002,3.1446472085844444,0.1437894928231644
15.999323999999998,3.162152362765129,0.1433803038032793
16.001708000000004,3.183941257692368,0.1428007243029759
16.004104,3.20400759112691,0.1422726846198175
16.006491999999998,3.22472555086751,0.1417668855046062
16.008872,3.246142358742412,0.1411783101549552
16.011272,3.268258014751614,0.1405194008146918
16.013659999999998,3.2925155411340934,0.1397612562288435
16.016043999999997,3.3178440027032114,0.1389632670058547
16.018440000000002,3.3423810683394115,0.1382047042398226
16.020827999999998,3.36840837804283,0.1373699636110428
16.023211999999997,3.3979280325598853,0.1363850964257429
16.025608000000002,3.4267960607708834,0.1353980179970721
16.027995999999998,3.4585973552880755,0.1343527269553903
16.030376,3.492260980924825,0.1332702253044522
16.032771999999998,3.5291374121214893,0.132100513982961
16.03516,3.5660138433181543,0.1309457877959385
16.037544,3.5974430507830086,0.1299262274124582
16.039939999999998,3.622354099329416,0.1290746855071912
16.042332,3.644843738248825,0.1283333956714025
16.044712,3.667473146795094,0.1275764036755208
16.14986,3.715886172472089,0.1272121120467224
16.152240000000003,3.7231957273234553,0.1270706245998779
16.154636,3.726501080681988,0.1270344155937253
16.157024000000003,3.7348815707199927,0.1268559111419262
16.159404,3.7480576581837495,0.1265648791748246
16.161800000000003,3.7653777167672,0.1261571383159928
16.164188,3.781487070537152,0.1258033957632945
16.166572,3.794802927627768,0.1255127462790465
16.168968000000003,3.8045338921061327,0.1252864422276166
16.171356,3.813985317330776,0.1250870835857319
16.173736,3.82371628180914,0.124860779534302
16.176132,3.8297225840483904,0.1247107337826636
16.178524,3.8355891166607816,0.1245772011429092
16.180904,3.842666354086671,0.1244007737407792
16.1833,3.851373605206639,0.1241395557590969
16.185688000000003,3.868089259312274,0.1236875364732541
16.188072000000002,3.886807014164328,0.1231877758800165
16.190468,3.9076666393896575,0.122621766615745
16.192856000000003,3.92787463830893,0.1220495475995752
16.195235999999998,3.953437313161394,0.1213318503701003
16.197632000000002,3.9769978872674416,0.1206878360663214
16.200024000000003,3.999767065440571,0.120059701873769
16.202403999999998,4.027751149920033,0.1193044208251841
16.204804,4.057085708839854,0.1185076669845811
16.207192000000003,4.082975144774282,0.1177574565286737
16.209571999999998,4.104860379215876,0.1171010148952414
16.211976000000003,4.126093987351412,0.1164395601759822
16.214364,4.148398530673588,0.1157556156986918
16.216744000000002,4.171634239555542,0.1150559135709858
16.21914,4.197011818810772,0.1143067303053227
16.221528000000003,4.227464534745474,0.1134661785368699
16.223912000000002,4.2557753803069,0.1126677915140786
16.226308,4.28101318993527,0.1119405835139082
16.228696000000003,4.304248898817223,0.1112575444744596
16.231080000000002,4.330278104378511,0.1105418159147568
16.233476,4.347088202140633,0.1100273969608063
16.235864000000003,4.364038069529617,0.109506538106048
16.238248000000002,4.382990037665016,0.1089517783982504
16.295592000000003,4.220946550445514,0.1085852427741844
16.297988,4.226254004550464,0.1085302108252226
16.300376000000004,4.233423789774971,0.108449211102189
16.302756,4.24310753242509,0.1083525911629737
16.30754,4.264103135561542,0.1082777356976849
16.309924,4.277184779368812,0.1082194741567038
16.312327999999997,4.2903589709747,0.1082152892722877
16.314716,4.305255724073283,0.1081979059896115
16.3171,4.327369484224617,0.1080289328194481
16.319495999999997,4.346270438816035,0.1079339038559777
16.321880000000004,4.366474646019568,0.1078610136651976
16.324264000000003,4.386958392476822,0.1077670413487451
16.326656000000003,4.410934483747711,0.10757988488908
16.329048000000004,4.434910575018601,0.1073983742495612
16.331428,4.457024335169934,0.1072437226079897
16.333824000000003,4.475413433082154,0.1071399591484519
16.336212,4.499017437300707,0.1069340041513038
16.338592000000002,4.519036548907007,0.1067696246908904
16.340992000000004,4.540126595699944,0.1065829010684309
16.343376000000003,4.563498282493018,0.1063393312375528
16.345760000000002,4.58449578148734,0.10610359906268
16.348156,4.60549328048166,0.1058698849334591
16.350544000000003,4.624628448356424,0.105660144511108
16.352928000000002,4.642460363619072,0.1054300927787261
16.355324,4.656195529590271,0.1052115652053626
16.357712000000003,4.6669974292552725,0.1050400904447498
16.360108,4.679848651494934,0.1047723414654746
16.362503999999998,4.69111708186876,0.1045089852703949
16.364892,4.701594116309669,0.104249880911905
16.367272000000003,4.716494661123991,0.1038955032459617
16.369668,4.730091953326197,0.1035247744933548
16.372056000000004,4.743829015155264,0.1031470516477625
16.374436,4.7552844369841925,0.1028249866536437
16.376836,4.767950563626621,0.1024779730588041
16.37922,4.781827395082549,0.102102085840436
16.381604,4.795983765792197,0.1017047074973375
16.384004,4.807206870195649,0.101354366513952
16.386392000000004,4.817638578666183,0.1010042584108323
16.388772,4.828489596017297,0.1006271007912801
16.391168000000004,4.840691087808771,0.1002151279713984
16.393556,4.850518391801491,0.0998035670265627
16.39594,4.857552199114875,0.0994201980967769
16.398343999999998,4.866867646428396,0.0989901777495043
16.400732,4.881398000048252,0.0984790860623588
16.403112000000004,4.903796987026913,0.0978650187464526
16.405508,4.928477614005712,0.0972049506530756
16.4079,4.95273893210393,0.0965804987995013
16.410280000000004,4.973927214269092,0.0959995726296393
16.412676,4.993113395687837,0.0954483719812707
16.415063999999997,5.009366310800387,0.094940324751937
16.417448000000004,5.022126881099301,0.0945040344041401
16.419847999999998,5.029952084345605,0.0941298205540501
16.422236,5.035123560539431,0.0937709163979654
16.424616000000004,5.033357568934232,0.0935043962169979
16.427016,5.0274476062093365,0.0933025815522124
16.429404,5.022329039417359,0.0931009865963107
16.431788,5.016279307065604,0.0929085848898304
16.434184,5.00901886990035,0.0927438663900328
16.436572,5.000687497548458,0.0925974696056229
16.438952000000004,4.990074485196428,0.0924971452887551
16.441348,4.979693790269876,0.0924359685590307
16.460456000000004,4.859399712608454,0.0924044171738953
16.462852,4.84818039992074,0.0923933569001854
16.465239999999998,4.844178094285776,0.0922809749224897
16.467624000000004,4.847764882755898,0.0920970490135937
16.47002,4.857869830144469,0.0918596827202753
16.472407999999998,4.872490835705071,0.0915903638361573
16.474791999999997,4.88925371163895,0.0912833624509212
16.477188,4.906668213878886,0.0909880062663828
16.479575999999998,4.921940845745545,0.090725835675
16.481959999999997,4.940798370224459,0.0904406135152703
16.484356000000002,4.96016775138257,0.0901768825770208
16.486743999999998,4.979257593286961,0.0899319549426099
16.489124,5.000209766310907,0.0896701208436853
16.491524000000002,5.018460990454137,0.0894849173699982
16.493911999999998,5.042578747209756,0.0892378415567923
16.496292,5.067627669525153,0.0889849611625639
16.498687999999998,5.094538922960108,0.0887179143603146
16.501076,5.120798550089003,0.0884391170600511
16.50346,5.149060277964317,0.0881363746158546
16.505855999999998,5.179463876212906,0.0878032775929854
16.508244,5.208005143341939,0.0874904520958399
16.510628,5.2282584682315845,0.0872912314320833
16.513028000000002,5.245438757188175,0.0871362314540316
16.515416,5.262898585398486,0.0869689527806594
16.517796,5.274631650623267,0.0868525725575435
16.520191999999998,5.284921693609072,0.0867236537301731
16.52258,5.298284772527931,0.0865584155483626
16.524964,5.313277865140871,0.0863454190918458
16.527359999999998,5.332414928873504,0.0860804824868936
16.529748,5.350388509620882,0.0857878922720553
16.532128000000004,5.368921168875701,0.0854631483204795
16.534527999999998,5.3900150073843776,0.0850857811700383
16.536916,5.412878629213994,0.0846557434458282
16.539296000000004,5.434159459177773,0.0842211525777629
16.541692,5.4523672532084975,0.0838280115930349
16.544079999999997,5.46549991055975,0.0834875402692054
16.546464000000004,5.4766304671645845,0.0831678769341759
16.54886,5.492696390822032,0.0828048493221797
16.551247999999998,5.5090418537332,0.0824281232538453
16.553632000000004,5.52445615108459,0.0820608834648501
16.556028,5.540010218062839,0.0816879490445659
16.558415999999998,5.563200600974418,0.0812097023260637
16.560800000000004,5.583597487206663,0.0807482739123568
16.563196,5.5961257400801,0.080357300005617
16.565583999999998,5.615871000006287,0.0798912722853169
16.567968000000004,5.638409756611808,0.0794116588219877
16.570364,5.661739909150247,0.0789420376994703
16.572751999999998,5.681717486501912,0.0785225822147836
16.575132,5.697970401614462,0.0781249691526634
16.577532,5.717808209339266,0.0777210011840517
16.579919999999998,5.73764601706407,0.0773208909733975
16.582304000000004,5.754131249602096,0.0769684363083364
16.5847,5.771128338819322,0.0766401561200501
16.587087999999998,5.789196363223186,0.0762998980444738
16.589472000000004,5.803260186134216,0.0759919243705332
16.591868,5.826682886471274,0.0755908209177816
16.594255999999998,5.854389327554884,0.0751444614490322
16.596640000000004,5.878371106399382,0.0747218041766446
16.599036,5.9019335763633,0.074324754147834
16.601423999999998,5.925356276700356,0.0739379965136116
16.603807999999997,5.945845710731217,0.0735715814058803
16.606208,5.962842799948442,0.0732584521672216
16.608591999999998,5.983704321031642,0.0729227750610255
16.610975999999997,6.008430273980815,0.0725611116595582
16.613372000000002,6.02393711913082,0.0722823288106244
16.615764000000002,6.035579532414854,0.0720274218085821
16.618143999999997,6.043077974579194,0.0718114148640347
16.620540000000002,6.049785020810614,0.0715908075647939
16.622927999999998,6.060216729281147,0.0713554070091471
16.625311999999997,6.064642135512431,0.071166301949345
16.627708000000002,6.065714966556939,0.0710180039175341
16.630095999999998,6.069581294280783,0.0708587263988906
16.632479999999997,6.069443420511792,0.070729674395045
16.63488,6.06916577711594,0.070608071930837
16.637268000000002,6.073963270399561,0.0704459200322773
16.639647999999998,6.071403987003573,0.0703539191903226
16.642044000000002,6.063629797301253,0.0703087370342677
16.644432,6.055156759464631,0.0702999464576498
16.649212000000002,6.033554855992494,0.0702995136930009
16.6516,6.023359256663175,0.0702899060234592
16.653983999999998,6.014374362147355,0.0702620215102154
16.656380000000002,6.005249698004676,0.070241031390741
16.658768,5.999058300168191,0.0702026596963591
16.661151999999998,5.995939938264761,0.0701396939102513
16.663552,5.9957548426675285,0.0700594240971452
16.665940000000003,5.995197660017957,0.0699530541897962
16.668319999999998,5.999436074794137,0.0698233119807556
16.67072,6.0016723888239,0.0697078944666615
16.673108000000003,6.005910803600081,0.0695784747857718
16.675492000000002,6.014153419869095,0.0694216883959015
16.677888,6.020813244272273,0.0692576909868752
16.68028,6.029614939048727,0.0690732093128269
16.682660000000002,6.036274763451904,0.0689088722842665
16.685056,6.041072256735527,0.0687517939520964
16.687448,6.049082555579063,0.0685636344985616
16.689832,6.060957286288573,0.0683560119011064
16.69224,6.071388994759106,0.068132050937688
16.694627999999998,6.08317117767,0.0678843264128321
16.697011999999997,6.0998887276335045,0.0676082637007324
16.699412,6.116326738343289,0.0673470638295533
16.701800000000002,6.129551943493159,0.0671162171262769
16.704184,6.138261090470998,0.0668933183987764
16.70658,6.1452476759561385,0.0666713636400369
16.708968000000002,6.159311498867168,0.0664044209731377
16.711352,6.173375321778198,0.0661392829444991
16.713752000000003,6.192746598794178,0.0658738724914448
16.716144000000003,6.2102555446906,0.0656166484870298
16.71852,6.228695656146802,0.0653578137677496
16.720924,6.252350673909335,0.065063121196513
16.723312000000004,6.274422899806033,0.0647619818276213
16.725692,6.293561859396536,0.0644742031628574
16.728088000000003,6.310419178986901,0.0642119119556504
16.730472000000002,6.332631174510459,0.0639050424836255
16.732856,6.354703400407156,0.0636058785742531
16.735252,6.377706791863632,0.0633071941808164
16.737640000000003,6.401129492200689,0.0629920066018399
16.740019999999998,6.429627329217218,0.062648198502987
16.742416000000002,6.457194000673968,0.0623092636715075
16.7448,6.480896240264746,0.0619878987582381
16.747180000000004,6.503946853549465,0.0616553915391626
16.749579999999998,6.528347941274543,0.0612996223572798
16.751963999999997,6.558336022358291,0.0609333401178543
16.754344,6.583109197135708,0.0606024253114655
16.756744,6.59652139374068,0.0603469007463944
16.759131999999997,6.609793820718793,0.0600993639383051
16.761512,6.619621124711512,0.0598482744104545
16.763908000000004,6.628517263144453,0.0595999382779175
16.766296,6.636622005644476,0.0593476235229588
