Time,Force,Position
15.267035999999996,1.8784844802242755,0.1707929890993457
15.26944,1.9309413457908708,0.1707553976364999
15.271824,1.9834926550139529,0.1703970891541711
15.274203999999996,2.0390716741997164,0.1695932733504424
15.276604,2.093813971482188,0.1685649430504445
15.278987999999998,2.146276524622392,0.1673466832863501
15.281371999999998,2.192734671381213,0.166216405041614
15.283776,2.235470051758791,0.1649624516068722
15.28616,2.2696398465011303,0.1639741805626908
15.288539999999998,2.30069127934004,0.1630017773688981
15.290944,2.330207142141357,0.1620001130463155
15.293332,2.360933709756172,0.1608853211685391
15.295711999999998,2.393522608490544,0.1596929928142301
15.298108,2.4218277664783616,0.1587942587667704
15.300496,2.4486426803989603,0.1580358817159171
15.302871999999995,2.4763887598793373,0.1572514898540108
15.305267999999998,2.505997170479271,0.156378184123035
15.307655999999998,2.5346744155194263,0.1555369765208368
15.310052,2.563631199813302,0.154669514070081
15.312451999999997,2.5920289055997365,0.1539034059974635
15.31484,2.628435014371839,0.1527185399515342
15.317224,2.657252029038855,0.1518999397543269
15.319616,2.6832755470265357,0.1512328267519978
15.322004,2.700778805349351,0.1509596923798095
15.324383999999998,2.7154885669928315,0.1508056716247229
15.32678,2.730058559009452,0.1506813269414453
15.329168,2.744488781399212,0.1505811010604059
15.331547999999998,2.758639464535252,0.1505300725521514
15.333944,2.777213658044705,0.1502432963215977
15.336332,2.7951362252481013,0.1499639416712203
15.338711999999996,2.809985756518442,0.1498292034134175
15.341107999999998,2.828187862975559,0.1495298832082935
15.343495999999998,2.8453190342460366,0.1492862759350446
15.345888,2.8655232414495697,0.1489095081068377
15.348291999999995,2.8870779230934627,0.1484429069821484
15.350679999999995,2.904116546565324,0.1481127070855138
15.35306,2.921993787798346,0.1476819188853502
15.355459999999995,2.942152669031506,0.1471353345265288
15.357844,2.9596578232121904,0.146665829706045
15.360228,2.9786532214600947,0.1460994104278268
15.362624,2.9920616263493285,0.1457286070020915
15.365012,3.009753771985116,0.1451599129689174
15.367392,3.0237212553817905,0.1447037606857392
15.369788,3.0432757321371358,0.1440687792806299
15.372176,3.0636216048253986,0.1434210308802485
15.37456,3.0821051463941043,0.1428388680063281
15.510752,3.0654424016903192,0.1425418572203127
15.513147999999996,3.07279728251206,0.1425112162051434
15.515535999999996,3.088579875200048,0.1421457211436387
15.517916,3.1045022375148967,0.1417621762454918
15.520311999999995,3.1196332038968277,0.1413833044245292
15.522699999999997,3.136766271025174,0.1409390959691366
15.52508,3.155621899646218,0.1404707758643029
15.527483999999998,3.1751763764015624,0.1399173147038974
15.529871999999996,3.19421899647771,0.1393445079723403
15.532252,3.209536954314743,0.1388890171498175
15.534647999999995,3.2215023369650018,0.138577407882556
15.537032,3.235469820361677,0.1381996930649405
15.539412,3.258376872303797,0.1375316640156086
15.541815999999995,3.28691813943283,0.1366279790875638
15.544203999999995,3.312526140255669,0.1358392248281106
15.546584,3.338832989212808,0.134980608008502
15.54898,3.361135636677114,0.1342403989379101
15.551368,3.3889327297014726,0.1332856878689495
15.553763999999996,3.411142829367161,0.1324806394811832
15.556159999999998,3.43363246828657,0.1316408933076119
15.558547999999998,3.4522576753400065,0.1309288814873973
15.560927999999995,3.4684614727664447,0.130332406358229
15.563323999999998,3.477168723886413,0.1300085121606897
15.565711999999998,3.48680714056616,0.1296630861810634
15.568092,3.4985874276191837,0.1292407326028408
15.570487999999996,3.5085053835526505,0.1288689898213396
15.572875999999995,3.5146986772470044,0.1285901389008784
15.575256,3.5223349931803343,0.1283150192813076
15.577651999999995,3.5306229354197223,0.1280501365622987
15.580039999999997,3.5367690072858333,0.1278572224842867
15.582435999999998,3.5464074239655803,0.1275244470929573
15.584832,3.5559060710184665,0.1272101377709233
15.587224,3.563123078071216,0.1269925233244466
15.589603999999998,3.5696412369896646,0.1268529997630516
15.592008,3.5772303310947504,0.1266821970649994
15.594392,3.5871936129985915,0.1265011443909439
15.596771999999998,3.602883657887963,0.1261899163840114
15.599176,3.61401042277706,0.1260406466743118
15.601564,3.630304872144246,0.1258183828992397
15.603943999999998,3.648461652630988,0.1255611718879026
15.60634,3.6666184331177294,0.1253039608765655
15.608728,3.685985918417972,0.1250004197264902
15.611107999999998,3.7127101803978224,0.1244819171869375
15.613512,3.740365607937452,0.1239524944517163
15.615896,3.7717456977161934,0.1233684092911144
15.618275999999998,3.8056397449205512,0.122765695590323
15.620672,3.841396123244465,0.12212697262654
15.62306,3.8732880697024057,0.121569599336201
15.625439999999998,3.904760707279766,0.1210538491965206
15.627848,3.941028942282877,0.1204363683825839
15.630232,3.976598329151687,0.119898416531246
15.632616,4.013098881580276,0.119351605706468
15.635012,4.042010339903778,0.1189484328294162
15.637396,4.069059467107723,0.1185863706298476
15.639775999999998,4.094897889498169,0.1182728822332895
15.64218,4.113798844089588,0.1181151945863482
15.644568,4.132187942001807,0.1179425669564077
15.646952,4.154860780660581,0.1176552137251776
15.649348,4.177021762640157,0.1173537497230922
15.651732,4.197320413500178,0.1170872329572718
15.654111999999998,4.217479294733337,0.1168323370473131
15.656508,4.237638175966496,0.1165801287699851
15.668439999999997,4.285214479740199,0.1164407108019305
15.670848,4.2969928709353535,0.1163415762446967
15.673236,4.30933034063795,0.1161963770551482
15.675615999999998,4.320876414407628,0.116057843266857
15.678012,4.329908530751689,0.1159389345067396
15.6804,4.335215984856638,0.1158767837962719
15.682779999999998,4.347460906760617,0.1156779786968282
15.685184,4.357983267171899,0.1154961073684998
15.687572,4.366922835717345,0.1153199715742007
15.689951999999998,4.378283813889788,0.1150641280879467
15.692356,4.385640590569397,0.1148912542276133
15.69474,4.388201769823255,0.114803843847849
15.697119999999998,4.388760848330696,0.1147575099261914
15.699524,4.392113423517472,0.1146688032276545
15.701912,4.39467460277133,0.1145824799044706
15.704292,4.396304616465409,0.1145106952406355
15.706688,4.39714323422657,0.1144414576508197
15.711451999999998,4.392022771576723,0.1144280469822873
15.723399999999998,4.369538820230922,0.114401929310354
15.725791999999998,4.365069983887134,0.1143940838928696
15.728192,4.3655365145959575,0.1142950736340533
15.73058,4.365351418998723,0.1141879615105781
15.73296,4.3671684241479065,0.1140430278668353
15.735363999999995,4.368705890043369,0.1139197866018126
15.737751999999997,4.374247557431666,0.1137222253562373
15.740132,4.382582721499296,0.1134841480637426
15.742535999999998,4.392919986313344,0.1132068368510968
15.744923999999996,4.403397020754252,0.1129186735992281
15.747304,4.410289162582907,0.1126745130979063
15.749707999999998,4.417321074038422,0.1124179897453969
15.752091999999998,4.426494855867214,0.1121149197451426
15.754472,4.43380630657645,0.1118349696712363
15.756867999999995,4.44540149803224,0.1114573839987136
15.759255999999995,4.464073926913918,0.110940873843167
15.761636,4.477531449489264,0.1105393735460465
15.764039999999998,4.491408280945192,0.1101021679895679
15.766427999999998,4.499139040535009,0.1097858286064623
15.768808,4.510222375311601,0.1093833656687968
15.811812,4.327555372007985,0.1092049572785379
15.814207999999995,4.329000290104831,0.1090311790032145
15.816592,4.330305438574815,0.1088694901926045
15.818976,4.338687824470688,0.1085783362503093
15.821372,4.352145347046036,0.1081930514884243
15.82376,4.374402668539967,0.1076674715142777
15.82614,4.395728824474121,0.1071570406404573
15.828536,4.416775441154553,0.1066666084590187
15.830924,4.439824158581404,0.1061465855819844
15.833303999999998,4.466085681568169,0.1055569268451859
15.8357,4.488854859741298,0.105056815176278
15.838088,4.512555203474206,0.1045512178268458
15.840467999999998,4.531320180154502,0.1041246820159171
15.842868,4.553018423140993,0.1036510388299231
15.845256,4.571084551686988,0.10327567355962
15.847648,4.5968795439649295,0.1027880071780334
15.850051999999998,4.61773916919026,0.102387569227754
15.852439999999998,4.639669729602229,0.1019682200816006
15.85482,4.663742160387474,0.101507724466011
15.857224,4.685812490426303,0.1010839718980492
15.859607999999998,4.706951654905353,0.1006727555358002
15.861988,4.7210135819585135,0.1003859118508581
15.864392,4.734795969757954,0.100122433491555
15.86678,4.74550532162434,0.0999131110879197
15.869156,4.756214673490725,0.0997075749862622
15.87156,4.763059593491137,0.0995568846108099
15.873948,4.76897334793177,0.0994161562829982
15.876327999999996,4.777820368678598,0.099236052415386
15.878732,4.78452551905215,0.0990971526681922
15.881116,4.790019964612204,0.09898868230593
15.883495999999996,4.801940021292088,0.0987638556289047
15.8859,4.812277286106135,0.0985408965493336
15.888284,4.829831557972932,0.098204498138641
15.890663999999996,4.848456765026368,0.0978533618029998
15.893059999999998,4.873787122453355,0.0973713346233638
15.895447999999998,4.891528385775256,0.096976305268968
15.897827999999995,4.91299431133627,0.0965484457965017
15.900232,4.932038827270286,0.096176862877462
15.90262,4.951362882458024,0.0957922887369021
15.904999999999998,4.969895541712843,0.0954063978216549
15.907396,4.988707740221381,0.0950024567318234
15.909783999999998,5.0095220394763365,0.0945697550806334
15.912163999999995,5.030476108358152,0.094130424621894
15.914559999999998,5.054363443546163,0.0936573748298531
15.916947999999998,5.074106807614481,0.0932477651888322
15.919328,5.089845970189963,0.0928895709957399
15.921732,5.111311895750978,0.0924759934306735
15.924115999999998,5.133708986871771,0.0920606737314959
15.926496,5.15810817873898,0.0916223935868815
15.9289,5.187302968031942,0.0911409452065816
15.931288,5.211282851018569,0.0907419393776094
15.933667999999996,5.234563885870895,0.0903887847010289
15.936063999999998,5.251698848857112,0.0901219684844317
15.938447999999998,5.264829610350494,0.0899045394436829
15.940831999999997,5.27595827109746,0.0897160705286615
15.943227999999998,5.290532054829819,0.0895146527266487
15.945615999999998,5.303383277069481,0.089322100059806
15.947996,5.318655908936141,0.0890798197150682
15.950399999999998,5.329784569683107,0.0888937197217371
15.952787999999998,5.34277556154963,0.0886937125308609
15.955167999999995,5.353624683042876,0.0885251726083364
15.957572,5.367127531588595,0.0883455861172347
15.95996,5.380909919388036,0.0881506745131511
15.962339999999998,5.394832076814337,0.0879500230267365
15.964735999999998,5.413969140546969,0.0876820939368658
15.967123999999998,5.436179240212659,0.0873740937754486
15.969503999999995,5.452522807265958,0.0871278610131102
15.971908,5.462999841706867,0.0869391642265909
15.974291999999998,5.471614545028217,0.0867650948543829
15.976671999999995,5.475573420550678,0.0866258691065152
15.979067999999998,5.476599029766941,0.0865134859917882
15.981459999999998,5.479114883050425,0.0863607703218628
15.983839999999995,5.483213528199745,0.0862110061285858
15.986235999999998,5.4901056700284006,0.0860408192030448
15.988623999999998,5.493645236670279,0.0859253300910413
15.991004,5.495602011446322,0.0858060976643892
15.993403999999998,5.495137376595368,0.0857342190136334
15.995791999999998,5.494532972117553,0.0856710788334336
15.998171999999997,5.495930668386156,0.0855860882565979
16.000567999999998,5.4973283646547575,0.0855015077271249
16.002955999999998,5.503381888722251,0.0853846788591707
16.005336,5.505990289804353,0.0852774553577979
16.007731999999997,5.510181482752289,0.085175468042759
16.010116,5.5126501142075295,0.0850783623906736
16.012511999999997,5.507761968983161,0.0850738758188609
16.014908,5.505946859691846,0.0850344193904172
16.017295999999998,5.504131750400533,0.0849948704644687
16.019675999999997,5.506320842602054,0.084914198123099
16.022071999999998,5.508649704430434,0.0848254128131082
16.024459999999998,5.510326939952757,0.0847261696027768
16.02684,5.5197330392070265,0.0845621165153768
16.029244,5.5249951673416025,0.0844466278990477
16.031632,5.5320270787971175,0.0842759484487983
16.034011999999997,5.541200860625911,0.0840787828574419
16.036412,5.55251651282798,0.0838533870647319
16.038795999999998,5.566765431336245,0.0836034233560173
16.041176,5.583575529098367,0.0833011346367507
16.04358,5.601316792420267,0.0829957419000518
16.045968,5.620920386861725,0.0826809807879897
16.048347999999997,5.639732585370263,0.0823655720625508
16.050743999999998,5.656961992012966,0.0820487017127559
16.053131999999998,5.674982794588586,0.0817346048260581
16.055512,5.683272632685843,0.0814973815153894
16.057907999999998,5.688070125969462,0.0813162068137332
16.060291999999997,5.701435100746193,0.0810258969077666
16.062687999999998,5.710795874030088,0.0807759085826099
16.065084,5.722438287314121,0.0804915114225596
16.067472,5.731426973545679,0.0802154643180227
16.069851999999997,5.73841355903082,0.0799577890119679
16.072248,5.748053871568437,0.0796934853305808
16.07464,5.75424906112066,0.0794369295599528
16.077019999999997,5.764867761046299,0.0791193299287628
16.079416,5.775486460971935,0.0788047526604986
16.081803999999998,5.784522369031737,0.0784880338612524
16.084183999999997,5.792115254852563,0.0781585364818226
16.086579999999998,5.7990565143673285,0.077821104324089
16.088967999999998,5.805066608322318,0.0774898975841218
16.091364,5.809773449665191,0.0771391297398944
16.09376,5.811966333582449,0.076787516848781
16.096148,5.814298987126567,0.0764288563304081
16.098527999999998,5.812906978431572,0.0760867490060458
16.100932,5.813656840109857,0.0757223300979658
16.10332,5.825488140706864,0.0752637559815857
16.1057,5.841882721304143,0.0747410757995379
16.108096,5.852131230035313,0.0742777724285382
16.110484,5.8625195083933415,0.0738059781969004
16.112864,5.8686240460048165,0.0733801242340002
16.11526,5.877661849922488,0.0729345444751481
16.117648,5.89163502089277,0.0724552223326137
16.120027999999998,5.902814695183718,0.0719898875098717
16.122424,5.916787866154,0.0715168818428473
16.124812,5.927408461937507,0.0710856917799933
16.127191999999997,5.935607648094016,0.0706929247537536
16.129588,5.94059402869061,0.0703340312978506
16.131975999999998,5.946092265966401,0.0699940422828158
16.134372,5.950100259174972,0.069688589006336
16.136768,5.953037317196905,0.0693942189482897
16.139156,5.952342260778345,0.0691541459382539
16.141536,5.953369765852479,0.0689148555417065
16.143932,5.95518866685953,0.068680329600103
16.14632,5.961663395665473,0.0684290188608861
16.148699999999998,5.964925318911502,0.0682106218987567
16.1511,5.963251875104917,0.0680244491557572
16.153484,5.96330099279103,0.0678406913643592
16.155867999999998,5.967074772716256,0.067644856733338
16.158264,5.970708783014621,0.0674559173980546
16.160652,5.979557699619319,0.0672226750979984
16.163031999999998,5.989058242530076,0.0670027958533264
16.165428,5.992692252828439,0.0668153492486693
16.167816,5.994184392753529,0.0666471427576069
16.170212,5.990601395999144,0.0665153161392181
16.172607999999997,5.993024701484011,0.0663454493976741
16.174996,5.995308237342018,0.0661821871042008
16.177376,5.998522938759803,0.0660154288623955
16.179772,6.003739740924004,0.0658366685808971
16.18216,6.007885607901568,0.0656675376531544
16.18454,6.014685201931607,0.0654978877786516
16.18694,6.026420163014256,0.0652996322934015
16.189324,6.038806750402964,0.0651144679790303
16.191703999999998,6.049982632978172,0.0649470483752209
16.194104,6.060087580366743,0.064790806622997
16.196492,6.069401131822395,0.0646293604230924
16.198871999999998,6.080297475143882,0.0644772547495846
16.201272,6.087981012905456,0.0643554558048202
16.203656,6.093010823614556,0.0642346984344156
16.206052,6.09976319581635,0.0641160912369399
16.208447999999997,6.102371596898452,0.0640288689924255
16.210835999999997,6.104048832420775,0.0639445974558762
16.213216,6.111313061301766,0.063845991129931
16.215619999999998,6.12430405316829,0.0637261061280898
16.218007999999998,6.141299246527645,0.0635830381148985
16.220388,6.155221403953947,0.0634630438434429
16.222783999999997,6.172496136567023,0.0633091253494699
16.225171999999997,6.192704135486294,0.0631425633524307
16.227552,6.2109100336591485,0.0629886821530374
16.229947999999997,6.231677111085862,0.062796833301403
16.232336,6.249510922206379,0.0626188985259415
16.234716,6.26534263258048,0.0624529091746308
16.237119999999997,6.274795953662992,0.0622942116752976
16.239504,6.2841095051186455,0.0621422328855332
16.241888,6.294493991760937,0.0619825340865777
16.244291999999998,6.308603140642341,0.061814896782263
16.246675999999997,6.322852059150605,0.0616412460152252
16.249056,6.3381719128455085,0.0614592891779405
16.251451999999997,6.356145493592886,0.0612790548702684
16.253839999999997,6.375329779153763,0.0610848411871176
16.25622,6.398378496580613,0.0608763665092206
16.258616,6.4237088540076,0.0606470454726211
16.261004,6.446245714755253,0.0604250888170472
16.263384,6.465057913263792,0.0602116858814806
16.265784,6.482007780652774,0.0600034549308164
16.268168,6.500168352855255,0.0597823498177202
16.270552,6.516047285057599,0.0595854801359342
16.272948,6.530855282073305,0.0593982401587353
16.27534,6.5476653798354265,0.0592025608109602
16.27772,6.5631250031571895,0.0590289898629007
16.280116,6.582868367225507,0.0588252453378858
16.282504,6.605033140920821,0.0585947608105026
16.284899999999997,6.635857943907862,0.0583394514368451
16.287295999999998,6.66938369577562,0.0580455580953475
16.289683999999998,6.699184785404264,0.0577585822554495
16.292064,6.727403083167073,0.0574638912464903
16.294463999999998,6.754969754623823,0.0571596704149835
16.296847999999997,6.782676195707436,0.0568510959594381
16.299232,6.807728909738571,0.0565413164243126
16.301627999999997,6.831990227836789,0.0562293522699796
16.304015999999997,6.856531085188727,0.0559080798156863
16.306396,6.874925870674555,0.0556188337962365
16.308791999999997,6.892529260227464,0.0553247326549346
16.31118,6.911063815340152,0.0550296264442475
16.313564,6.930529536012618,0.0547348739856852
16.315959999999997,6.94585128556539,0.0544629577163204
16.318347999999997,6.959730012879186,0.0541743329702488
16.320728,6.96974430832701,0.0538948788748572
16.323127999999997,6.975754402281998,0.0536315615373869
16.325515999999997,6.983766596983404,0.053361464896382
16.327896,6.986703655005337,0.0531147124197995
16.330299999999998,6.987359073027134,0.0528887002651552
16.332687999999997,6.982939354369458,0.052685484422993
16.335068,6.976889622017704,0.0525136700050495
16.337467999999998,6.976566652651479,0.0523323982880804
16.339855999999997,6.97782647515109,0.0521623714408265
16.342236,6.979877693583619,0.0519981293960492
16.344631999999997,6.9782042497770345,0.0518358110882797
16.347019999999997,6.978253367463147,0.0516784206555532
16.349404,6.9760208451491215,0.0515398064801255
16.351799999999997,6.9728571572753175,0.0514022306016451
16.354187999999997,6.972766505334569,0.0512510689901548
16.356572,6.973467249326739,0.0511052684539874
16.358967999999997,6.976449633319047,0.050941732021959
16.361355999999997,6.976498751005161,0.0507850376267426
16.363736,6.979760674251189,0.0506096979840001
16.366139999999998,6.98646772048261,0.0504451272445228
16.368527999999998,6.998249903393504,0.0502616884864332
16.370908,7.012034187050815,0.0500714856891752
16.373303999999997,7.0199519380957325,0.0498943458279088
16.375691999999997,7.027729919513791,0.0497222523308962
16.378072,7.034576735372072,0.0495503578063167
