Time,Force,Position
15.124375999999998,2.3788563171080144,0.1632729054592649
15.126763999999998,2.3884456161016487,0.163139324783209
15.129147999999995,2.402458425468698,0.1627236170048349
15.131543999999998,2.415400299649108,0.1623724603384913
15.133931999999998,2.4276905475234605,0.1620250379388318
15.136312,2.437327068345338,0.1617835485997661
15.138707999999998,2.446823819540356,0.1615681839974898
15.141095999999996,2.4571119666682906,0.1613342128407393
15.143476,2.466608717863308,0.1611150121901178
15.145875999999998,2.481460144991518,0.1605740305924949
15.148263999999998,2.495520176186809,0.1600340474259587
15.150644,2.5107909121956005,0.1593969614867051
15.153047999999998,2.5269928137641693,0.1587362961588097
15.246228,2.587038773435852,0.1584254344068421
15.248615999999998,2.598397855750426,0.1581733605080655
15.251012,2.60812692437092,0.1580610883011141
15.253407999999997,2.6182280800437523,0.157993893573252
15.255796,2.63670972575459,0.1576308734041968
15.258176,2.6609181344509567,0.1570386492257571
15.260572,2.690061910199935,0.1562527831810775
15.26296,2.721487325949052,0.1553425636041696
15.265344,2.755334151325166,0.1542910507124889
15.26774,2.7831746744620296,0.1534828328476923
15.270128,2.815950564651504,0.1524434573428316
15.272507999999998,2.850728555587396,0.1513202458889604
15.274904,2.892583783949178,0.1499163508933935
15.277292,2.922705947086179,0.1490197133623652
15.279675999999998,2.9521764839171216,0.148093820871616
15.282072,2.9816470207480643,0.147167928380867
15.28446,3.0116294142582056,0.1462705372143939
15.286839999999998,3.041751577395205,0.1453462434747944
15.289236,3.074574689412924,0.1442307133673935
15.291624,3.0971549802730816,0.1435096080010066
15.294007999999998,3.11363642109537,0.1429804150314123
15.296404,3.1206664366930164,0.1427834301809594
15.298792,3.131421114529775,0.1424666939804316
15.313143999999998,3.127790895947148,0.1423564369904313
15.315524,3.1297929966935643,0.1422832934217949
15.322692,3.120762776207371,0.1422566444190798
15.325087999999996,3.1210895372893344,0.1421325747666625
15.327471999999997,3.1263516654239094,0.1418447670058661
15.329856,3.1317535631853457,0.1415407257177037
15.332251999999997,3.1398564098274995,0.141093501125722
15.334639999999997,3.1513118316564293,0.1405134293061112
15.337024,3.1604856134852213,0.1400325652965842
15.339419999999995,3.1751066190458235,0.1394133674940418
15.341807999999997,3.1928006605394805,0.1386961695737837
15.344188,3.216640773899249,0.1377462576453277
15.346587999999995,3.23303156278079,0.1369982730789442
15.348975999999997,3.249422351662332,0.1362502885125607
15.351356,3.270189429089044,0.1354060522853234
15.353759999999998,3.293470463941372,0.134539887228918
15.356147999999996,3.3167514987936992,0.1336651920245114
15.358528,3.330860647675104,0.1330184872036892
15.360931999999998,3.348601910997004,0.1322055548121311
15.363319999999998,3.364201303945627,0.1314904800090219
15.365699999999997,3.378030913573311,0.1309005115541638
15.368099999999998,3.3954454158132474,0.1302333716062305
15.370487999999998,3.41565341473252,0.1294905682982025
15.372867999999997,3.429203485106483,0.1289410407255239
15.375272,3.4384698147338923,0.1285522164687295
15.37766,3.4482480010404992,0.1281881947409383
15.380043999999998,3.45453384253347,0.1279758026271935
15.38244,3.4565359432798872,0.1279161131567746
15.384828,3.4646841158924144,0.1276676657184296
15.387207999999998,3.4737634540647195,0.1274038861597037
15.389604,3.4826558007819224,0.1272423400192886
15.391991999999998,3.4928514001112414,0.1271018331017129
15.394371999999995,3.5106360935456467,0.1267846948336778
15.396776,3.5313540532862477,0.1263996720635012
15.399164,3.5507215385864885,0.1260805237090507
15.401543999999998,3.565246204632735,0.125953536067376
15.40394,3.582284828104596,0.12579574746246
15.406327999999998,3.60863510717424,0.1254360289993079
15.408711999999998,3.633634911803525,0.1251505732762856
15.411108,3.6592863427388687,0.1248776945948256
15.413496,3.688802205540185,0.1245198033111427
15.415875999999995,3.715105262781586,0.1242612310634468
15.418271999999998,3.7404771544632087,0.1240234213276753
15.420659999999998,3.7694339387570848,0.1237228511308609
15.423039999999997,3.8023949245437945,0.1233215548065651
15.425435999999998,3.835635449584224,0.1228955060377152
15.427823999999998,3.8676652698111553,0.1225078192935684
15.430204,3.902488586717422,0.1220629636632828
15.432599999999995,3.929023961384301,0.1218557044632809
15.434987999999995,3.951834673812066,0.1217259503179361
15.437372,3.97054863694838,0.121632834672554
15.446935999999996,4.02543259971558,0.1214990182683581
15.449323999999995,4.037722847589931,0.1213902650409236
15.451708,4.051503339531503,0.1212165796788014
15.454112,4.063701039607238,0.1210580163720528
15.456499999999998,4.07245361669758,0.120941191333485
15.46128,4.0780406100562505,0.1208409978034159
15.463667999999998,4.0813931852430265,0.1207410120001481
15.466051999999998,4.08567692598958,0.1206248849429964
15.468452,4.089309040430077,0.1205014919009872
15.47084,4.088145557444821,0.1204719607374104
15.473219999999998,4.086190678526648,0.1204461957819925
15.475624,4.08772814442211,0.1203105245917173
15.478008,4.0879623577054565,0.1201585221710528
15.480387999999998,4.09154914617558,0.1199073678625143
15.482784,4.0963466394592,0.1196149330588899
15.485172,4.1030064638623776,0.1192881049003515
15.487551999999996,4.105941626026443,0.1190287410336549
15.489947999999998,4.109016557817367,0.1187557329996191
15.492335999999998,4.111300093675373,0.1184859279160784
15.494719999999996,4.116936204720155,0.1181178919768601
15.497124,4.123643250951576,0.1177264122750454
15.499512,4.127556800503662,0.117385908828847
15.501891999999998,4.127326378936054,0.1171435850746348
15.504296,4.1278873533013645,0.1168964202494393
15.50668,4.132452529159508,0.1165653870941223
15.509064,4.1435358639361,0.1161267212324717
15.51146,4.1516859324064965,0.1157500137541296
15.513848,4.155180173078002,0.1154462189071729
15.516227999999998,4.156020686697032,0.1151757357225474
15.518624,4.163286811435894,0.1147447769018969
15.521012,4.1694820009881175,0.114340060105163
15.58552,4.011537158917935,0.1140088357354951
15.587903999999998,4.012468324477714,0.1139944435775735
15.5903,4.012608094104574,0.113982394476074
15.592688,4.017543461157186,0.1138878117229732
15.595071999999998,4.029556065635688,0.1136472555816333
15.597468,4.042639605300827,0.113382145870776
15.599856,4.059867116085661,0.1130323687827022
15.602231999999995,4.086173965042801,0.1125026248575374
15.604636,4.115646397731613,0.1119648766248343
15.607024,4.146049995980202,0.1114175787045998
15.609403999999998,4.172728931989679,0.1109287193661759
15.611795999999998,4.205833479118987,0.1102982100827907
15.614183999999998,4.2428024581142685,0.1095958941762876
15.61658,4.278420962669191,0.1089458389842176
15.618976,4.312037366477698,0.1083423033373926
15.621364,4.3495182021521765,0.1076805709759669
15.623744,4.382715297080102,0.1071171005217934
15.626147999999995,4.415400535328829,0.1065290508399842
15.628535999999997,4.446223442458001,0.1059715441717862
15.630916,4.481469859960585,0.1053130385353106
15.633319999999998,4.514714176716754,0.1047038714980412
15.635707999999996,4.545304766420448,0.1041301948464879
15.638088,4.5769662913107805,0.103536231100865
15.640491999999998,4.599036621349608,0.1030827966875427
15.642879999999998,4.618453224335962,0.1026649419131385
15.645259999999997,4.6389407625089545,0.1022305862407214
15.647664,4.655424099189113,0.1018707215751085
15.650052,4.666040903256882,0.1016041103608346
15.652431999999996,4.675494224339394,0.1013086828520877
15.654827999999998,4.684947545421908,0.1010154809564789
15.657215999999998,4.700686707997391,0.1006129778622802
15.659595999999995,4.708836776467787,0.1003070212487579
15.661995999999998,4.718337319378542,0.0999638065315296
15.664383999999998,4.731190437476075,0.0995540216441882
15.666763999999995,4.742041454827191,0.0991724255465896
15.669159999999998,4.751961306618527,0.0988059854795495
15.671543999999995,4.76337140247708,0.0983868981985316
15.673928,4.777574995014971,0.0979403932437662
15.676323999999996,4.792989292366361,0.0974663004474059
15.678711999999996,4.805982180090753,0.0970571221925341
15.681092,4.818043902255366,0.0966590680952264
15.683491999999998,4.829034689233341,0.0962802089303531
15.685879999999996,4.839094310651538,0.0959121545394073
15.68826,4.856882795801682,0.0954457517105621
15.690663999999998,4.8713187057650496,0.0950468004879129
15.693051999999998,4.881750414235584,0.0947056573530731
15.695435999999996,4.890971417892619,0.0943927672943484
15.697827999999998,4.899912882295934,0.0940981704482223
15.700215999999998,4.909226433751586,0.0938351396083338
15.702599999999997,4.919610920393877,0.0935559889971015
15.704995999999998,4.92263863035656,0.0934011758005174
15.707379999999995,4.929902859237552,0.0932305700766037
15.70976,4.934885448118407,0.0931081588029178
15.712167999999998,4.936655231439347,0.0930418870878229
15.714551999999998,4.944151777745817,0.0929149833275378
15.716932,4.950717158492508,0.0927979759686343
15.719335999999998,4.960867431851452,0.0926582482972197
15.721723999999998,4.96901560446398,0.092545471675809
15.728887999999998,4.980701447860516,0.0924671145532751
15.731268,4.986520758644664,0.0924563260064348
15.733676,4.994062630921507,0.0924388913141913
15.736059999999998,5.001464733571491,0.0924314574371783
15.738443999999998,5.010729167341031,0.0924072454402262
15.74084,5.024509659282603,0.0923517697587419
15.743227999999998,5.041223417530369,0.0922627385228492
15.745607999999995,5.061941377270971,0.0921238230171401
15.748003999999998,5.084940977011708,0.0919442273831084
15.750391999999998,5.106590102312087,0.0918022794748366
15.752771999999997,5.13196388985158,0.0916279815043484
15.755176,5.157617216644791,0.0914383586743994
15.757559999999998,5.1849931049307,0.0912432215064617
15.759943999999996,5.214371093963025,0.0910257722873679
15.762339999999998,5.238953485569599,0.0908580829869168
15.764727999999998,5.262464941989534,0.0907079063423644
15.767107999999997,5.28476569359597,0.090585670124246
15.769507999999998,5.308137380389045,0.0904482426454586
15.771891999999998,5.330997210502922,0.0902928036920533
15.774275999999997,5.365218018789243,0.0899876637984179
15.776671999999998,5.4017204670757,0.0896479320999472
15.779059999999998,5.43743151942924,0.0893113064298243
15.78144,5.470488844730306,0.0889888841579755
15.783835999999996,5.501683838911814,0.0886823573099977
15.786223999999995,5.534508846787403,0.0883289318285384
15.788608,5.56803270279729,0.0879411959501404
15.791011999999998,5.6009049325011215,0.0875477329082951
15.793399999999998,5.631123435152478,0.0871704010887418
15.795779999999995,5.655615174818304,0.0868416675618517
15.798175999999998,5.681597158551349,0.0864770591904313
15.800563999999998,5.705204954485639,0.0861081608157322
15.802947999999995,5.72909228967365,0.0857281874170334
15.805343999999998,5.74874310594335,0.0853542323912784
15.807727999999996,5.766671360720355,0.0849871002684533
15.810112,5.789023125870773,0.0845591855041014
15.812507999999998,5.811794199901771,0.0841084392965168
15.814895999999996,5.831539459827958,0.0836424818046101
15.817276,5.851564259007866,0.0831640391392816
15.819679999999998,5.870657892627994,0.0826919512754049
15.822067999999998,5.877738921769621,0.0823367725230341
15.824447999999997,5.880815749418416,0.0820217538562739
15.826843999999998,5.87872489258912,0.0817156974901644
15.829231999999998,5.874771704640269,0.0814190468577389
15.831612,5.8743108615050526,0.0810678362591804
15.834007999999995,5.872359774302617,0.0807544061749413
15.836395999999995,5.863331449674294,0.0805097620700568
15.83878,5.850718232433716,0.0802776137467145
15.841183999999998,5.835311518513803,0.0800601910874632
15.843571999999998,5.824700402019643,0.0798076774287702
15.845951999999995,5.808082983286231,0.0796098148324929
15.848347999999998,5.792396730112598,0.0794058054924087
15.850735999999998,5.772706275446132,0.0792377388154314
15.853119999999995,5.758882353392056,0.0790218453340416
15.855524,5.743056330591562,0.0788231917218999
15.857907999999998,5.722806797417656,0.0786833705727824
15.860287999999995,5.699204689056972,0.0785895902001982
15.862683999999998,5.678907934054823,0.0784981095157153
15.865071999999998,5.6564693086793945,0.078431145482284
15.867452,5.635101618490606,0.0783500950648572
15.869851999999998,5.624023971287622,0.0781648605730922
15.872235999999996,5.611875388897999,0.07799166702906
15.874616,5.607176130986602,0.0777794462769733
15.877015999999998,5.607272470500957,0.0775351803319042
15.879403999999996,5.599080867775925,0.0773756359102044
15.881784,5.590097869117975,0.0772126498977923
15.884179999999995,5.586050237512636,0.077009257222437
15.886567999999995,5.587310060012248,0.07679348130282
15.888963999999998,5.59308594068389,0.0765620777890863
15.89136,5.595788785422478,0.0763611098099093
15.893743999999998,5.603287227586817,0.0761278631037326
15.896127999999996,5.611577065684074,0.07589885623293
15.898523999999998,5.621869004527747,0.075652320067897
15.900911999999998,5.629599764117564,0.075456713137408
15.903291999999997,5.640124020386715,0.0752475634314479
15.905691999999998,5.650508507029006,0.075045269906766
15.908075999999998,5.66489719516413,0.0748079749943348
15.910459999999995,5.675421451433281,0.0745971059034464
15.912864,5.6845952332620735,0.0744132849279094
15.915247999999998,5.697074368449398,0.0742372065731711
15.917631999999998,5.707132094009725,0.0741046174189674
15.920028,5.720262855503109,0.0739434821724708
15.922415999999998,5.728178710690159,0.0738361715856431
15.924795999999995,5.733812925877073,0.0737610580672203
15.9272,5.745313673676377,0.0736441487377129
15.929588,5.76268095408807,0.0734886592483556
15.931967999999998,5.778697760059406,0.0733610672878762
15.934364,5.790710364537906,0.0732658836748432
15.936751999999998,5.804725069762823,0.0731570877040907
15.939131999999995,5.821812810920797,0.0730219859844054
15.941527999999998,5.838109156145852,0.0728843257760306
15.94392,5.85226363099763,0.0727695513218796
15.946299999999995,5.867069732155467,0.0726666522311818
15.9487,5.87843071032791,0.0725636689870345
15.951083999999998,5.888860522940575,0.0724651059758441
15.953463999999997,5.902782680366875,0.0723183352203345
15.955863999999998,5.918706938539593,0.0721585928830483
15.958247999999998,5.937564463018506,0.0719801280693528
15.960631999999997,5.96298736824411,0.0717292980500119
15.963027999999998,5.983754445670822,0.071498302340132
15.965415999999998,6.003869896791477,0.0712588626749653
15.967812,6.0207725423522165,0.0710519003763482
15.970215999999995,6.039165431980176,0.0708121081356149
15.9726,6.062121601608409,0.0705178043820903
15.974984,6.085217540863502,0.0702184351297915
15.977383999999995,6.101376012319567,0.0699667434828745
15.979771999999995,6.117814023029352,0.0697006427379436
15.982156,6.136813212992994,0.0693927508782886
15.984551999999995,6.150225409597967,0.0691064811025383
15.986939999999995,6.161915044710243,0.0688214723532283
15.98932,6.174535845382297,0.068534670405755
15.991719999999995,6.191719926054626,0.0681952532657138
15.994104,6.210394250794174,0.06782766979908
15.996488,6.234795338519251,0.0674363432002827
15.998887999999996,6.25919642624433,0.0670457409168073
16.001275999999997,6.28117610434241,0.0666915543232021
16.003656,6.297568789081821,0.0663554581612723
16.006055999999997,6.311447516395617,0.0660141885354105
16.008443999999997,6.322253207776358,0.0656991535743558
16.010824,6.334549143224317,0.0653543093558245
16.013219999999997,6.34456343867214,0.0650357724405724
16.015607999999997,6.3599324100531565,0.0646714994607493
16.017988,6.376092777367089,0.0643133979020795
16.020384,6.384104972068496,0.0640097726004972
16.022772,6.390115066023484,0.0637181153341109
16.025152,6.395193994418694,0.0634265895471905
16.027552,6.401483627627404,0.0631200137522703
16.029936,6.404420685649336,0.0628476835634638
16.032315999999998,6.40721797404441,0.0625808194879125
16.03472,6.407873392066207,0.0623317542343892
16.037108,6.406526709341586,0.062094195902132
16.039488,6.3998253506837735,0.0619021371133865
16.041884,6.389771416839185,0.0617437734310688
16.044272,6.3798572526214565,0.0615795227763196
16.046651999999998,6.371945189150145,0.0614048094160849
16.049048,6.365243830492332,0.0612149233439773
16.051436,6.363198299633411,0.0610149964730389
16.053815999999998,6.364597891759882,0.0608208891694651
16.056212,6.364647009445995,0.0606490240744175
16.0586,6.365068214184444,0.0605022208580153
16.060979999999997,6.364698022989976,0.0603499867510068
16.063395999999997,6.363117126982009,0.06021391405921
16.065783999999997,6.360465295787402,0.0600863355749627
16.068164,6.366753033138243,0.0599178302287194
16.070559999999997,6.375834267168418,0.0597448582385129
16.072947999999997,6.392923904184261,0.05953414847363
16.075328,6.409873771573244,0.0593316568295347
16.077724,6.432690171574616,0.0591082088284193
16.080112,6.46002262974802,0.0588842605639437
16.082496,6.487866944600622,0.0586767261741548
16.084892,6.51743382094592,0.0584729195494454
16.08728,6.549933963597413,0.058258026011682
16.08966,6.581363171062268,0.0580496769722498
16.09206,6.60743770259393,0.0578821926628286
16.094448,6.629508032632759,0.0577342865242488
16.096828,6.651578362671588,0.0575878954064702
16.099224,6.673369153456697,0.0574558336630577
16.101612,6.694368548308887,0.0573201843662894
16.103996,6.714436777601299,0.0571856831377465
16.106392,6.7357157117072095,0.0570382587531871
16.10878,6.76165047361201,0.0568848790791819
16.111159999999998,6.785443365143536,0.0567478299173354
16.113563999999997,6.809096487048201,0.0566173443813889
16.115948,6.824461666713477,0.0565356564934907
16.118327999999998,6.839966616005614,0.0564487719272813
16.120731999999997,6.849185723804781,0.0564010129429223
16.12312,6.858404831603945,0.056353788898068
16.1255,6.863899277163998,0.0563116175319104
16.127903999999997,6.865669060484939,0.0562739187962223
16.130287999999997,6.874935390112348,0.0561868549818822
16.132668,6.885691963806976,0.0560754841968537
16.135071999999997,6.897799011941964,0.0559462627464423
16.137459999999997,6.913398404890587,0.0557844869775388
16.13984,6.929696645973512,0.0555918387476415
16.142235999999997,6.95027862780299,0.0553722002387493
16.14462,6.968858508886052,0.0551610176074512
16.147,6.983201871050802,0.0549364751786649
16.149403999999997,6.9956829020959965,0.0547142745782749
16.151791999999997,7.010445573141329,0.0544729551806323
16.154172,7.0194814812011295,0.0542422073399411
16.156568,7.025072266275538,0.0540036486596004
16.158956,7.026938389110832,0.0537667966135496
16.16134,7.029223820826707,0.0535121678703958
16.163736,7.035932762915997,0.0532240024679073
16.166124,7.040127747579673,0.0529269875131159
16.168504,7.04502158037765,0.0525995033080968
16.1709,7.046982146869433,0.0522797800977689
16.173288,7.046940612614797,0.0519666478670661
16.175683999999997,7.046387221680964,0.0516349703413831
16.178079999999998,7.03503193108213,0.0513338768543306
16.180463999999997,7.018601503803822,0.0510525608461105
16.182844,6.997375479099762,0.0507783515637306
16.185247999999998,6.9738678143955655,0.050522167618273
16.187635999999998,6.94900967525101,0.0502822275522305
16.190019999999997,6.918936629800122,0.050066940344314
16.192415999999998,6.88499915248326,0.0498570775179112
16.194803999999998,6.852644467032235,0.0496566713335327
16.197184,6.822152112700765,0.0494547612279147
16.199579999999997,6.788866261689961,0.0492518150241836
16.201967999999997,6.760376008104909,0.0490402974050478
16.204348,6.731466445639276,0.048845840271288
16.206743999999997,6.707771789479976,0.0486246513785517
16.209131999999997,6.683145967760897,0.0484022258982316
