Time,Force,Position
17.633191999999998,2.2509617701942903,0.1740821795284861
17.635579999999997,2.3536467707291955,0.1724130627538077
17.63796,2.455727366786285,0.1707617981234873
17.640359999999998,2.551012160529076,0.1692366262309499
17.642747999999997,2.637825812293113,0.1678454825196549
17.645131999999997,2.7163553135335023,0.1663004715674879
17.647527999999998,2.7811062186901885,0.1650069434767967
17.649911999999997,2.840970874480375,0.1634570099748745
17.652292,2.892130175008463,0.1622250238465824
17.692923999999998,3.041494264580451,0.1616525948203992
17.695303999999997,3.062302876261799,0.1613443528087944
17.697703999999998,3.0860919760775856,0.1608393767210262
17.700087999999997,3.10904435399008,0.1601656487189618
17.702471999999997,3.129669765932064,0.1594301926006132
17.704867999999998,3.143916788582459,0.1589256063727121
17.707255999999997,3.1566735671656345,0.1585128670380467
17.709636,3.1728282469059605,0.1581002987113874
17.71204,3.1875852303776844,0.1578694495821973
17.714427999999998,3.2094194512752976,0.1573515383366792
17.716807999999997,3.236935109188066,0.1564532959313828
17.719212,3.2574679733314325,0.1556646722612777
17.721595999999998,3.2664547637051213,0.1552199751335406
17.723979999999997,3.283869265945058,0.1544139873478716
17.726376,3.3072428485960024,0.1534792477791721
17.728759999999998,3.33187246203082,0.1526588134370672
17.73114,3.357525788824032,0.1518770350053809
17.733544,3.384529590057604,0.1510182251535949
17.814763999999997,3.502574082684177,0.1508068161246294
17.817144,3.5128150079838694,0.1507497902795725
17.81954,3.5329266673887854,0.1503722818029084
17.821928,3.559184398659813,0.1497767901115885
17.824308,3.5880033091846983,0.149069103544894
17.826704,3.616729671910966,0.148315789592995
17.829096,3.640380897957761,0.1477293772718643
17.831491999999997,3.6601676921385833,0.147256802350184
17.833883999999998,3.680094255946265,0.1467754540662779
17.836271999999997,3.696947783820892,0.1463913266883224
17.838655999999997,3.715803412441935,0.1459364165348094
17.841051999999998,3.736800911436256,0.1453985654629714
17.843439999999998,3.753933978564604,0.1449856649362091
17.84582,3.768133779386756,0.1446655949800993
17.848215999999997,3.782473349835768,0.1443322913778653
17.850607999999998,3.8025396832703104,0.1438407745844798
17.852988,3.82297810375719,0.1433925050388651
17.855392,3.844766998684429,0.1428731099261133
17.857775999999998,3.8649731017458313,0.1423780891602105
17.860159999999997,3.886529679247593,0.1418355600985705
17.862555999999998,3.906503464883519,0.141312257907352
17.864943999999998,3.925406315332805,0.1408320240480413
17.867324,3.938442633169702,0.140522863715813
17.876896,3.951616824775589,0.1404141240111531
17.879284,3.95571357406704,0.1403586407840165
17.881663999999997,3.960741488918269,0.1402828540870322
17.884059999999998,3.9709843100758304,0.1400438317386719
17.886447999999998,3.984160397539587,0.139730800904843
17.888827999999997,3.997476254630204,0.1394077661828454
17.891223999999998,4.011211420601402,0.1390450500371394
17.893611999999997,4.026157291386098,0.1386347700361734
17.895992,4.042453636611153,0.1381696121610149
17.898391999999998,4.055165089223955,0.1377812902600919
17.900775999999997,4.065502354038003,0.1374166441880785
17.903156,4.079843820344885,0.1369542482717737
17.905564,4.094045517024907,0.1365053367453136
17.907947999999998,4.104382781838955,0.1361546560589263
17.910328,4.117141456279999,0.1357188071502452
17.912723999999997,4.130319439601625,0.1352489220477157
17.915111999999997,4.141774861430555,0.1347986145300959
17.917492,4.153881909565541,0.1343570804846372
17.919895999999998,4.167991058446947,0.1338573015460926
17.922283999999998,4.187454883261543,0.1331932237325807
17.924664,4.211854075128753,0.1324179829112132
17.927063999999998,4.235461871063043,0.1316585946651012
17.929447999999997,4.2570675662509165,0.1309556592791589
17.931832,4.276391621438653,0.1303344753356438
17.934227999999997,4.293061949573915,0.1297640301532012
17.936615999999997,4.3088011121494,0.1292147526158984
17.939011999999998,4.326402605844439,0.1286363837228584
17.941408,4.342561077300504,0.1280587763514966
17.943796,4.357508843943069,0.1275293255701635
17.946175999999998,4.3696631139063,0.1270479413909186
18.020256,4.229083656389943,0.1269368172294932
18.022644,4.23122552676322,0.1268807946304179
18.025028,4.236580202696413,0.1267427607147177
18.027424,4.244076749002883,0.1265481153388213
18.029812,4.253575396055769,0.1263098968636389
18.032192,4.268009410161268,0.125966574253601
18.034588,4.285376690572962,0.1255608422192758
18.036976,4.306608402850628,0.1250809540654528
18.039356,4.323416604754882,0.1247214222431037
18.041756,4.3385022451664375,0.124388296729654
18.04414,4.355729755951272,0.1239967649088488
18.046524,4.373608893042164,0.1236141020280412
18.04892,4.3992168938650025,0.1230727701725519
18.051308,4.421891628381645,0.1225950708997108
18.053688,4.445637298084926,0.1220920436701108
18.056084,4.470733442228567,0.1215387380335394
18.058472,4.492616780812291,0.1210716276212794
18.060868,4.508493817156766,0.1207396162341505
18.063272,4.520366652008407,0.120498116847169
18.065656,4.538804867606741,0.1200771843881326
18.068036,4.555892608764714,0.1197141608766955
18.07044,4.566042882123658,0.1194938820141773
18.072828,4.572980349922688,0.119355614468284
18.075208,4.580848983281495,0.1192034802504029
18.077612,4.588857386267162,0.1190420257172496
18.08,4.59714532850655,0.1188617815215727
18.08238,4.605852579626518,0.1186506342411364
18.084776,4.610974938134233,0.118485949916513
18.087164,4.620660576642223,0.1181983567069128
18.089544,4.629415049590436,0.1179262135709024
18.091944,4.640963019217982,0.1176158479587649
18.094332,4.654932398472526,0.1172401422185148
18.096712,4.6671792162343735,0.1168852736246233
18.099112,4.680496969182859,0.1165058336572964
18.101496,4.691952391011789,0.1161536654859126
18.10388,4.701825020974882,0.115807987298537
18.106276,4.715050226124752,0.1153825996504964
18.108664,4.731208697580815,0.1149066316192177
18.111044,4.743502737170906,0.1144884814662109
18.11344,4.754446302320638,0.1141177725934784
18.115828,4.763946845231393,0.1137437825915674
18.118208,4.778522524821621,0.1132720101188846
18.120612,4.794308909225348,0.1127683662438214
18.123,4.812097394375493,0.1122359118098654
18.12538,4.830677275458554,0.1117074145670364
18.127776,4.849117386914756,0.1111978308615756
18.130168,4.865927484676877,0.1107534272982722
18.132548,4.883528978371918,0.1103063236114856
18.134948,4.900571393559517,0.1099034833598844
18.137336,4.919615909493533,0.1094705894753925
18.139716,4.936006698375075,0.109067939791636
18.142112,4.948113746510063,0.1087542820981214
18.1445,4.9614314994585484,0.1084134970770818
18.146884,4.97782228834009,0.1080241148148225
18.14928,4.999008674647384,0.1075749524650361
18.151668,5.022569248753432,0.107125246263449
18.154052,5.04491911804598,0.1067116018063661
18.156448,5.069410857711805,0.1062650664732122
18.158836,5.101771230736439,0.1057072173763719
18.161216,5.134271373387933,0.1051405922355793
18.163612,5.168494077532123,0.1045684135827385
18.166,5.198572810556619,0.1040664896608911
18.16838,5.2252989683943385,0.1036317641912871
18.17078,5.249883255858783,0.1032422996939637
18.173168,5.271394507390171,0.1029027164645441
18.175548,5.290484349294561,0.1026222013262061
18.177944,5.309993500079531,0.1023133558601359
18.180332,5.331644521237779,0.1019690085253314
18.230516,5.350265936575478,0.1018727838876546
18.232896,5.351895950269556,0.1018197832946557
18.235292,5.354736668777135,0.1017405780263452
18.23768,5.362372984710464,0.1016090687818364
18.240064,5.376295142136765,0.1013825383772426
18.24246,5.392778478816924,0.1010966666099538
18.244848,5.414756261057136,0.1007151387329711
18.247232,5.434080316244872,0.1003503167547006
18.249628,5.455825781059606,0.0999310816947512
18.252016,5.4777110155012,0.0995004420223955
18.2544,5.496942522890319,0.0990868070378991
18.256796,5.510587036920768,0.0987282625150089
18.259184,5.529166918003829,0.0983055829036828
18.261564,5.537876064981668,0.0980077984975719
18.263968,5.546864751213226,0.0976947017706131
18.266356,5.559717869310757,0.0973389566073935
18.26874,5.573222613714346,0.0969950970074115
18.271136,5.59180249479741,0.0965852045743192
18.273524,5.610522145507332,0.0961698146766196
18.275904,5.626960156217115,0.0957946374073454
18.278304,5.640325130993846,0.0954630156722959
18.280688,5.653410566516854,0.0951531239291973
18.283072,5.665285297226364,0.0948694368614104
18.285468,5.675577236070039,0.0945880781810786
18.287856,5.681725203794018,0.094365368830178
18.290236,5.683589430771444,0.0942066646732027
18.292636,5.684103183308511,0.094081341933647
18.29502,5.691554403644606,0.0938810788947539
18.2974,5.699936789540479,0.0936746096400062
18.299804,5.71139221136941,0.0934310763626184
18.302192,5.726712065064313,0.0931514629485775
18.304576,5.747898451371606,0.0928156847207964
18.306972,5.771506247305897,0.0924394179017978
18.30936,5.802051511039218,0.0919900620465482
18.311744,5.8303151347724,0.091580150786659
18.31414,5.856716427386025,0.0911867917133582
18.316528,5.880603762574037,0.0907996198199835
18.318912,5.899276191455717,0.0904793397080547
18.321308,5.915946519590977,0.0901812250252716
18.323696,5.937040358099654,0.0898173335920837
18.32608,5.962278167728025,0.0894062631171159
18.328476,5.985513876609978,0.0890191281634413
18.330864,6.009029124745651,0.0886171207998643
18.333244,6.030262732881189,0.0882525984080373
18.33564,6.048842613964249,0.0878975259387697
18.338032,6.06877296948767,0.087510331360884
18.340412,6.086701224264674,0.087144339325482
18.342812,6.0963415368022895,0.0868787557284645
18.3452,6.106913014899684,0.0866092052226042
18.347584,6.113480291504246,0.0863805654339619
18.349984,6.118045467362388,0.0861732314702284
18.352368,6.116464571354421,0.0860341609159138
18.354752,6.114324596839014,0.085926759742363
18.357148,6.108180420830773,0.0858580989124422
18.359536,6.104829741501866,0.085772049993004
18.36192,6.099616731053403,0.0856974008310962
18.364316,6.095195116537857,0.0856243232105224
18.3667,6.095197012395726,0.0854902402882058
18.369084,6.097201009000012,0.0853372410463282
18.371488,6.099856631910356,0.0851951015186655
18.373876,6.099439218887645,0.0850852558932775
18.376256,6.097811101051433,0.0849956364229961
18.378652,6.098836710267699,0.0848975221088131
18.38104,6.101073024297461,0.0847791082969647
18.383424,6.106894230939479,0.0846460468353567
18.38582,6.11415845982047,0.0845245026870889
18.388208,6.125287120567437,0.0843746522823938
18.390588,6.140699522060958,0.084172800227615
18.392984,6.153970053181201,0.0839977866823593
18.395376,6.170313620234499,0.0837919313268035
18.397756,6.188379748780494,0.0835839500896121
18.400156,6.211660783632821,0.0833211128465904
18.40254,6.230006451432535,0.0830998961532123
18.404924,6.247560723299334,0.0828754099280119
18.40732,6.268747109606626,0.0825968011822351
18.409708,6.293797927779895,0.0822914585450458
18.412092,6.322852947445994,0.0819556948580036
18.414488,6.350417723044876,0.08165725575635
18.416876,6.377842729016896,0.0813683555020046
18.41926,6.4016828423766645,0.0810938246716614
18.421656,6.425383186109571,0.0808267072306594
18.424044,6.449502838723059,0.0805374501816376
18.426424,6.470968764284075,0.080258012499965
18.428824,6.492294920218228,0.0799865180220427
18.431212,6.51497155059274,0.0796918897805193
18.433592,6.539278194661333,0.0793605326533133
18.435992,6.56107088130431,0.0790318940060088
18.43838,6.579930301641093,0.0787237338615893
18.44076,6.597998326044957,0.0784127577162633
18.44316,6.61606635044882,0.078103936659052
18.445548,6.629758086307513,0.0778029472147667
18.447932,6.64037678623315,0.077530798293842
18.450328,6.651275025412509,0.0772430244231676
18.45272,6.668179566831116,0.0769111391117931
18.455104,6.6726521948906425,0.0766912506052803
18.4575,6.674191556643975,0.0764913034668649
18.459888,6.668793450598278,0.0763410805495925
18.462272,6.660741617500106,0.0761961346695929
18.464672,6.651758618842155,0.0760553117183921
18.467056,6.6457088864904,0.0758954892258565
18.46944,6.639798923765504,0.0757288423783055
18.471836,6.637753392906584,0.0755399994888049
18.474224,6.634636926861024,0.0753616299476179
18.476604,6.635804201562017,0.0751421865816504
18.479008,6.635109145143455,0.0749311586247163
18.481396,6.634134549471174,0.0747347258228515
18.483776,6.631949248985391,0.0745549629319126
18.486176,6.63455954592536,0.0743511237516406
18.488564,6.642384749171663,0.0741050236254455
18.490948,6.651141117977744,0.0738571443010942
18.493344,6.66855751607555,0.0735683033064858
18.495732,6.6850427486135775,0.0732827578894053
18.498116,6.705392413017578,0.0729781870157146
18.500512,6.722669041488524,0.0727000649685729
18.502904,6.750095943318415,0.0723490189578264
18.505284,6.783668917014417,0.0719577024735444
18.50768,6.821246092203252,0.0715402272250006
18.510068,6.864829569631336,0.0710883790425131
18.512452,6.91041514780584,0.0706270262866081
18.514848,6.952927690047288,0.0701904086374365
18.517236,6.996650937102232,0.0697407783406612
18.51962,7.037161378597263,0.069322703815079
18.522016,7.081676021585126,0.0688837015505731
18.524404,7.118554348639661,0.0685165407924462
18.526788,7.154082201253834,0.0681715244992427
18.529188,7.188539118681372,0.0678384326189261
18.531576,7.223787432041826,0.067508572730993
18.533956,7.259175515029142,0.0671778099527394
18.536356,7.291071253202819,0.066890000700847
18.538744,7.32189605618986,0.0666132458171552
18.541128,7.3457833913778705,0.0663757175565253
18.543524,7.371672827312299,0.0661280193995763
18.545912,7.394628996940531,0.0658947453381879
18.548296,7.418516332128543,0.0656611464496418
18.550692,7.4433348328763325,0.0654292657664979
18.55308,7.460936326571373,0.0652444214784574
18.55546,7.481471086572608,0.0650496008037956
18.55786,7.495859774707732,0.0648918667447743
18.560248,7.509317297283079,0.0647374504220173
18.562628,7.524637150977983,0.0645792093550554
18.565028,7.536883968739831,0.0644388257979141
18.56742,7.552343592061594,0.0642763691919259
18.5698,7.561796913144107,0.0641431790944677
18.572196,7.578746780533089,0.063956854880742
18.574584,7.599840619041765,0.063746872462277
18.576968,7.617349564938188,0.0635388207790927
18.579368,7.6383508556482465,0.0632987077997034
18.581756,7.655347944865472,0.063078604238494
18.58414,7.669691307030222,0.0628581837638686
18.586536,7.680310006955859,0.0626446829421654
18.588928,7.6892061453888,0.0624283388035049
18.591312,7.697171118261963,0.0622144711410177
18.593708,7.708348896695042,0.0619793234106209
18.596096,7.712589207329091,0.0617724106225361
18.59848,7.708960884604333,0.0615962489189904
18.60088,7.70868513706635,0.0613923377586889
18.603268,7.700400986542701,0.0612243166514064
18.605652,7.694258706392329,0.0610412711899068
18.608048,7.6862540951224,0.0608614324186601
18.610436,7.676666691986636,0.0606734416088724
18.61282,7.671223259970565,0.0604621907303171
18.615216,7.659121899409186,0.0602669959231279
18.617604,7.651444049221221,0.0600370470187421
18.619988,7.639110371234363,0.059814939997856
18.622384,7.626125066941448,0.0595839887322976
18.624776,7.617143964141367,0.0593358767272335
18.62716,7.602808185408094,0.0591219121968241
18.629556,7.590754046674957,0.0588886384017596
18.631944,7.582843879061515,0.0586338196261468
18.634328,7.581079783314182,0.0583499676023777
18.636724,7.587044551298798,0.0580470180681881
18.639112,7.593288858537133,0.057733768726323
18.641492,7.596460129842414,0.0574355177130674
18.643892,7.606988177827303,0.0570965954753848
18.64628,7.622870901745386,0.056724738586344
18.64866,7.639405251969527,0.0563652027708966
18.65106,7.659431947007301,0.0559737945194486
18.653448,7.680529577231716,0.0555775687041669
18.655828,7.703769077829409,0.0551700131883915
18.658228,7.7270085784271005,0.0547628420379009
18.660616,7.74503317271846,0.0543819791635063
18.663,7.766922198875792,0.0539914856166838
18.6654,7.789323081712324,0.0536194775964303
18.667788,7.8102337204816354,0.0532693505038694
18.670172,7.8277917840641695,0.052944581523268
18.672568,7.841066106900152,0.0526439798229138
18.674952,7.854619968989853,0.0523313336047726
18.677332,7.864029859959862,0.052037435382211
18.679736,7.869435549437037,0.0517573959273643
18.682124,7.869626332607878,0.0515024638632517
18.684504,7.863019417606551,0.051262861247905
18.6869,7.855993193724645,0.0510392886932934
18.689284,7.852831401708711,0.0508092037537631
18.691664,7.846317034506001,0.0506018772029472
18.694068,7.838172653609211,0.0504215608643183
18.696456,7.827095006406227,0.0502476414415246
18.698832,7.81652921588244,0.0500888360469456
18.701236,7.804892490172014,0.049935524341935
18.703624,7.790042958901673,0.0497982442451016
18.706004,7.776915989124028,0.0496654399405809
18.708408,7.768724386398996,0.0495209108548067
18.710792,7.7613241796068815,0.0493814841247965
18.713172,7.748848836135296,0.0492583416934797
18.715576,7.738375593410126,0.0491293088482425
