Time,Force,Position
18.730012,2.35987882192848,0.1746184931079756
18.732408,2.4276970754446143,0.1738527027193263
18.734796,2.4883002177658686,0.1733673131551082
18.73718,2.535729168481234,0.1733597997192293
18.739576,2.580646057628856,0.1731565998131091
18.741964,2.622491806701291,0.1728637925105428
18.74436,2.662337350885178,0.1723891679016282
18.746756,2.697109654247463,0.1719182257286583
18.74914,2.726389407907564,0.171481717195885
18.75152,2.7521314907836545,0.1710831162377584
18.753924,2.776385225450396,0.1705111540291201
18.756312,2.7963098934002084,0.1700291062523549
18.758692,2.8167010920588447,0.1693926820397417
18.761096,2.833414850306612,0.1688101125355133
18.763484,2.8506876870618187,0.1681562368573756
18.765864,2.860883286391137,0.1678388806326383
18.76826,2.877597044638904,0.1672472583991271
18.770648,2.89961825699162,0.166462660226027
18.773028,2.926435066770088,0.1654848519983352
18.775424,2.9573958476682503,0.1642739436028024
18.777812,2.9847717359541592,0.1632117185908616
18.780192,3.00562946532162,0.1624411151889812
18.782588,3.028209756181776,0.1616313600613798
18.784976,3.0571684363335216,0.1605877922960925
18.787356000000003,3.080632670925213,0.1598581269802702
18.78976,3.0982303729045144,0.1593870958900944
18.792148,3.1138259741374,0.1590197535119971
18.794528,3.129561344997145,0.1586464730630297
18.796928,3.1443655502971115,0.1582995782220063
18.799316,3.15851812929102,0.1579464576334995
18.8017,3.1722513994043484,0.1576517997871526
18.804096,3.186915835077456,0.157338083561822
18.806484,3.200229796310204,0.1571149630932171
18.808864,3.2175479590357847,0.1567373789199545
18.811264,3.232352164335752,0.1564212976558839
18.813652,3.2565152470617447,0.1557049996751993
18.816032,3.2801664731085407,0.1549909639636176
18.818432,3.300232806543083,0.1543869272245509
18.82082,3.31736587367143,0.1539049946686503
18.8232,3.3342194015460564,0.1534615351545209
18.825604,3.3520040949804617,0.1529865897454073
18.827988,3.372861824347922,0.1523953911506172
18.830372,3.388272329983573,0.1519570930979465
18.832768,3.4021000437533875,0.1515570167799088
18.835156,3.4160675271500622,0.1511320388190289
18.837536,3.4309661761065158,0.1506692268965607
18.839936,3.4457250554361085,0.1502287878543183
18.84232,3.4575506684595063,0.1498932177934455
18.844704,3.468724655176846,0.1495464059183896
18.8471,3.482180281894323,0.1490960784889149
18.849488,3.492982181559326,0.1487115161734164
18.851872,3.500711045291273,0.1484510768278495
18.854268,3.5088592179038005,0.148144253717252
18.856652,3.5137945849564125,0.1479736826777722
18.859036,3.523385779807916,0.1476702783404276
18.86382,3.5287857817114827,0.1476101732204308
18.8686,3.535349266600305,0.1475763504584192
18.870988,3.5402374118246733,0.1474996840006283
18.873384,3.5469878881685992,0.147373712191639
18.87578,3.5508050982063297,0.1473389414252021
18.878168,3.56062861048331,0.1471093828551865
18.880548,3.5683102523870147,0.1469616977883708
18.882944,3.580415404664133,0.1466441537011042
18.885332,3.593451722501029,0.1462990463847444
18.887712,3.604206400337788,0.1460464759789599
18.890108,3.618685740413661,0.1456982680139264
18.892496,3.637960677915285,0.1452153584052455
18.894876,3.6553732842973528,0.1447876803206283
18.897272,3.676790092172254,0.1442337567596057
18.89966,3.699277835233794,0.1436426776234523
18.902044,3.7226967438551126,0.1430388001002492
18.90444,3.7482575228497073,0.1423648132452716
18.906824,3.767951769231913,0.1418657421624393
18.909224,3.784992288561643,0.1414145682654748
18.957008,3.7762888291574126,0.1411804734898138
18.959388,3.7775467557991536,0.1410574887984977
18.961784,3.7809465528141737,0.1408645864259843
18.964172,3.7862086809487487,0.1406307680624443
18.966564,3.794404075389519,0.1403192280544337
18.968972,3.807534836882902,0.1398761276534383
18.971356,3.821876303189784,0.1393917518712784
18.97374,3.841292906176138,0.1387594218150653
18.976136,3.8630836969612456,0.1381009561338232
18.978524,3.884594948492634,0.1374623934661837
18.980908,3.901962228904328,0.1369513502815917
18.983308,3.918118804502523,0.1364884388308671
18.985696,3.933344214540939,0.1360411468951516
18.988076,3.944705192713382,0.135694595570917
18.990472,3.9566252493932654,0.1352972868545821
19.0263,3.962444560177414,0.1351151166601323
19.028684,3.961932703498216,0.1350956047444391
19.031068,3.96607667461791,0.1349816751083943
19.033464,3.973945307976717,0.1347921134094263
19.035852,3.984467668388,0.1345571422178595
19.038248,3.991497683985645,0.134443138470621
19.040644,4.002811440329844,0.1342055673335878
19.043032,4.009841455927491,0.134093370518524
19.045412,4.017570319659438,0.1339186974927634
19.047812,4.032888277496472,0.1335851371112263
19.0502,4.047275069773726,0.1332676713467897
19.05258,4.063384423543679,0.1329175740483213
19.05498,4.080424942873409,0.1325453630946422
19.057368,4.101329894069113,0.1320877354338404
19.059748,4.13140673123574,0.131457428213334
19.062144,4.1622749643352845,0.1308281483954275
19.064532,4.193934593367747,0.1301943511790871
19.066916,4.228667258333265,0.1294726847040746
19.069312,4.256322685872895,0.128930461927308
19.0717,4.284489970091722,0.1284109453491654
19.07408,4.3026467505784645,0.1281471588398932
19.076476,4.319453056624848,0.1279485545065584
19.078864,4.333326096365036,0.127820077230138
19.081248,4.345197035358809,0.1277399275934856
19.083644,4.361211945472274,0.1275601520739992
19.086032,4.382022453011491,0.1272826425951418
19.088416,4.395615953497959,0.1271844787595598
19.09082,4.413632964357841,0.1269582504867285
19.093208,4.432581140777503,0.1267210315962162
19.095592,4.443800453465215,0.1266420860948662
19.097988,4.459955133205542,0.1264599434790049
19.100376,4.479462388132643,0.1261834226392586
19.10276,4.5020426789928,0.1258392766540142
19.105156,4.525414365785875,0.1255019104445308
19.107544,4.544269994406919,0.1252401523068198
19.109928,4.560611665602349,0.1250026046346579
19.112332,4.577232876051498,0.1247449856764257
19.11472,4.594925021687286,0.1244652365026327
19.1171,4.6219760447491005,0.1239779984157856
19.119496,4.6482356718779965,0.123495609478274
19.121884,4.679710205313224,0.1228889838622691
19.124268,4.703735414270228,0.1223969827079224
19.126664,4.727108996921172,0.1218996659126692
19.129052,4.749691183639198,0.1214039127474475
19.131436,4.766546607371694,0.1210163999757647
19.133832,4.77916551218588,0.1206711108446685
19.13622,4.796207927373479,0.120209424517799
19.1386,4.812179407374439,0.1197790446978897
19.140996,4.824798312188625,0.1194366759804474
19.143384,4.846217015921395,0.1189370794392114
19.145764,4.859906855922219,0.1185732586879668
19.14816,4.871594595176626,0.1182517012226784
19.150548,4.880488837751699,0.1179752378960494
19.152932,4.883004691035182,0.1177854694733776
19.155328,4.880724946892913,0.1176744123711218
19.157716,4.88137846905684,0.1175116815879235
19.1601,4.883242696034267,0.1173157678441634
19.164884,4.871885509577561,0.1172081565019128
19.167268,4.86560156394246,0.1171712028905042
19.169664,4.85810691349386,0.1171674040969508
19.172048,4.860762536404203,0.116972845848408
19.174432,4.863557928941407,0.1167683956687231
19.176828,4.8692865877848055,0.1165161096722857
19.179216,4.872873376254929,0.1163077472898752
19.181596,4.882047158083721,0.1160244030748944
19.183996,4.891360709539375,0.1157337907128059
19.186384,4.895738893942415,0.1155246580940752
19.188768,4.902678257599312,0.1152393248541649
19.191164,4.902168296777984,0.1150567015538804
19.193556,4.906873242262989,0.1147702499123315
19.195936,4.910367482934493,0.114515998174797
19.198336,4.912651018792499,0.1142941241581697
19.200724,4.91772805132984,0.1140330484597328
19.203104,4.927460911666074,0.1137059821314222
19.2055,4.935051901629031,0.1134271594589379
19.207888,4.93943008603207,0.1132180996300085
19.210272,4.946881306368166,0.1129488313996183
19.212676,4.956474397077539,0.1126358381814455
19.215064,4.965415861480855,0.1123185331067686
19.217448,4.975288491443949,0.1119897615016273
19.219844,4.976593639913934,0.1118409038337342
19.222232,4.979621349876615,0.1116789314252879
19.224612,4.982788829466156,0.1115088634837456
19.227012,4.992893776854727,0.1112279597009874
19.2294,4.998994522750464,0.1110159997593289
19.23178,5.003744794205843,0.110845655526221
19.234176,5.015152994206528,0.1105850402561859
19.236564,5.0242795542070775,0.1103772837306067
19.238948,5.036991006819879,0.1101347515156674
19.241344,5.050214316111879,0.1099131610272091
19.243732,5.067721366150434,0.1096110588015013
19.246116,5.0873702865622645,0.1092676576990386
19.248512,5.106879437347234,0.1089343337338963
19.2509,5.127459523318843,0.1085840717465575
19.253284,5.152043810783286,0.1081772251266651
19.25568,5.175417393434231,0.1077954704258412
19.258068,5.199722141644953,0.1074051668476843
19.260452,5.218951753176203,0.1070967044025711
19.26286,5.233897623960899,0.1068685487515404
19.265248,5.2471209332529,0.106652727524364
19.267632,5.264767752918314,0.1063439028867142
19.270028,5.277479205531116,0.1061078861390136
19.272416,5.28925949258414,0.1058858320938191
19.2748,5.297175347771191,0.1057184713274701
19.277196,5.302297706278906,0.1055814787969191
19.279584,5.309561935159898,0.1054056642072295
19.281968,5.318456177734971,0.1051774553355027
19.284364,5.332285787362655,0.1048830384668279
19.286752,5.345184231430561,0.1046014155942798
19.289132,5.356220344378909,0.1043408061609096
19.291532,5.366325291767479,0.1040944287733865
19.29392,5.377780713596409,0.1038149622069279
19.2963,5.389375905052199,0.1035268570585895
19.2987,5.401390405388569,0.1032163641850524
19.301088,5.40767814273941,0.1029707097615291
19.303472,5.416247520090387,0.1026793854600158
19.305868,5.424956667068224,0.1023812062436506
19.308256,5.439811885912173,0.1019950019988186
19.31064,5.462675507741787,0.1015055740045955
19.31304,5.488332626250739,0.1009918323981661
19.315428,5.513989744759689,0.1004827185830784
19.317808,5.541788733641917,0.0999334801704734
19.320204,5.565723290658172,0.0994272974260958
19.322592,5.588866451741509,0.0989214640479715
19.324972,5.619226619877596,0.0983148605756244
19.327376,5.642649320214652,0.0977920736376896
19.329764,5.6587152438720985,0.0973851807690178
19.332144,5.669054404544015,0.0970408286995083
19.334544,5.676460298909738,0.0967301169986429
19.336932,5.686287602902457,0.0963703071076935
19.339316,5.690760230961984,0.096094922672822
19.341712,5.691740514207874,0.0958882310882822
19.3441,5.690858466334207,0.0956975681415705
19.346484,5.686763612900626,0.0955576556565697
19.348884,5.681458054653546,0.0954424943761621
19.351272,5.678434136406603,0.0952851340959166
19.353656,5.674339282973021,0.0951446509152287
19.363224,5.607442715727318,0.095120452692385
19.365612,5.592034105949538,0.0950805090571154
19.367992,5.582212489530427,0.0949946624149026
19.370388,5.574253204230872,0.0948932959513541
19.372776,5.561730638931043,0.0948707564043791
19.37516,5.560149742923075,0.0947262895559689
19.377556,5.562573048407943,0.0945355382934061
19.379944,5.565927519452588,0.0943365396174836
19.382324,5.570213156057012,0.0941289718273311
19.384724,5.575150418967492,0.0939332786855281
19.387112,5.5842316529976666,0.0936826345765592
19.389496,5.59573429665484,0.0933847269347157
19.391892,5.609890667364487,0.093072791395736
19.39428,5.623767498820414,0.0927760933178014
19.39666,5.643930171769313,0.0923947735645197
19.39906,5.66353376621077,0.0920514242351907
19.401448,5.684068526212005,0.0917024864829732
19.403828,5.709398883638992,0.0913091815017951
19.406228,5.742458104797927,0.0908432211168749
19.408616,5.77495824744942,0.0904146814641207
19.411,5.8043853541678585,0.0900256324599522
19.413396,5.833532921632576,0.0896586627483111
19.415784,5.858816057231319,0.0893291030727397
19.418168,5.885681984695899,0.0890063224641133
19.420564,5.906821149174949,0.0887260846387891
19.422956,5.924607738467223,0.088504673865895
19.425336,5.943465262946136,0.088271465120662
19.427736,5.965116284104384,0.0880202872248592
19.430124,5.9907715067554665,0.0877301061607935
19.432508,6.010420427167297,0.0875016157018978
19.434904,6.033002613885323,0.0872506069392029
19.437296,6.056515966163127,0.0869974794456558
19.439676,6.083521663254568,0.0866935749421312
19.442076,6.113600396279065,0.0863575837304051
19.444464,6.14339959004984,0.0860439605826884
19.446848,6.169474121581502,0.0857531155730575
19.449244,6.195548653113164,0.0854643798575907
19.451632,6.220552249458188,0.0851909923522955
19.454016,6.240480709123739,0.0849694059316548
19.456416,6.26175964322965,0.0847228110730392
19.458804,6.287973944388172,0.0844371889995682
19.461188,6.313117310360056,0.0841663737016108
19.463584,6.339471381145439,0.0838758706774896
19.465976,6.359167523385513,0.0836287155969553
19.468356,6.393809536410283,0.0832549417255786
19.470756,6.420862455329967,0.0829285736200266
19.473144,6.443911172756817,0.0826384251324063
19.475532,6.467099659810526,0.0823445088841673
19.477932,6.487494650184901,0.0820688633510645
19.48032,6.510031510932554,0.0817663894194581
19.4827,6.526841608694676,0.081503495505921
19.4851,6.540299131270023,0.0812850636524463
19.487488,6.551335244218372,0.0811080858043556
19.489868,6.561579961233803,0.0809303481314487
19.492268,6.56768070712954,0.080793163962985
19.494656,6.57885658970475,0.0806123203402546
19.497036,6.587238975600624,0.0804454438081964
19.499436,6.598042771123495,0.0802435294514288
19.501824,6.612338911460002,0.0799944763690602
19.504204,6.621420145490179,0.0797954918077667
19.5066,6.6269164869081,0.0796093618764346
19.508992,6.631761202019964,0.0794144847121921
19.511372,6.639259644184303,0.0792146292421928
19.513772,6.65504602858803,0.0789405150109066
19.51616,6.659890743699894,0.078749690200047
19.518552,6.675816897730481,0.0784746339023566
19.520944,6.692813986947707,0.0781875592057085
19.523328,6.706877809858736,0.0779205640167706
19.525708,6.720941632769766,0.077654342692028
19.528112,6.740080592360269,0.0773508034423166
19.530504,6.763223753443605,0.0770193393002168
19.532888,6.788508784900218,0.0766667952456509
19.535284,6.810860550050636,0.0763335316436612
19.537672,6.833212315201054,0.0760025600815774
19.540056,6.856123158858914,0.075644705196485
19.54246,6.873958865837301,0.0753270588348469
19.544848,6.895798774308522,0.0749821876940679
19.547232,6.914425877219827,0.0746710363862928
19.549636,6.931050879384714,0.0743762455275427
19.552024,6.952751018229074,0.0740437599199513
19.554408,6.972169517073297,0.0737376009653731
19.556804,6.990656850357742,0.0734354720617204
19.559188,7.005699060656795,0.0731364075601545
19.561576,7.015526364649514,0.072882644396622
19.563972,7.030568574948566,0.0725874655859551
19.566356,7.039604483008367,0.0723348551385282
19.56874,7.05357575812078,0.0720554046171053
19.571144,7.0715512347260265,0.0717524634502097
19.573528,7.088316006517774,0.071465120154772
19.575912,7.098934706443411,0.0712228471064895
19.578316,7.10340733450294,0.071023464724506
19.580704,7.106017631442909,0.0708303328060869
19.583088,7.1107697987561576,0.0706188219664476
19.585492,7.1144510308827655,0.0704170589889461
19.58788,7.11943551562149,0.0702342850811721
19.590264,7.130566072226325,0.070010061973627
19.59266,7.144490125510496,0.0697805131353111
19.595048,7.158414178794666,0.0695512890958213
19.597432,7.172850088758032,0.0693383629765899
19.599836,7.183281797228567,0.0691489759656542
19.60222,7.197857476818795,0.0689307920396332
19.604616,7.214295487528579,0.0687078452807291
19.607012,7.232176520477341,0.0684982340139308
19.6094,7.254992920478713,0.0682651511717511
19.611796,7.270732083054197,0.0680749699976998
19.614192,7.280325173763569,0.0679230909799068
19.61658,7.287124767793608,0.0677806734508619
19.618976,7.29071155626373,0.0676645825544022
19.621372,7.298162776599825,0.0675329521819008
19.623756,7.308687032868976,0.0673819310659276
19.62616,7.328430396937294,0.0671738674386118
19.628564,7.34817376100561,0.0669655427353829
19.630952,7.366054793954372,0.0667628526818588
19.633348,7.3851465317166305,0.0665469613166618
19.635752,7.404797347986332,0.0663084607106997
19.638136,7.419373027576558,0.0661011635610212
19.640532,7.425940304181119,0.065936286288225
19.642936,7.432647350412542,0.0657658075104422
19.64532,7.436560899964627,0.0656018037642838
19.64772,7.44261631988999,0.0654212848596441
19.650112,7.447600804628715,0.0652499197887776
19.652508,7.4524455197405794,0.065085038423764
19.654908,7.458780478919663,0.0648958661195822
19.657292,7.457107035113078,0.0647466045584407
19.659688,7.460368958359106,0.0645748437149632
19.662084,7.475923025337355,0.0643323476008188
19.664472,7.490266387502106,0.0641044310359402
19.666864,7.50302695780102,0.0638686448906643
19.66926,7.514484275487819,0.063615959194757
19.671648,7.525010427614839,0.0633660704509952
19.674044,7.52939050787575,0.0631520984011312
19.676444,7.54005642962963,0.0629008386537687
19.678832,7.551513747316429,0.0626534927396613
19.681212,7.56190012981659,0.0624144740874302
19.683616,7.569353246010555,0.0621864422022135
19.686,7.578156836644879,0.0619400941780901
19.68838,7.587379736159783,0.0616749536751486
19.690776,7.595019843808852,0.0614018018355392
19.693164,7.605081361084918,0.0611024681085335
19.69556,7.616493352801343,0.0607859366502101
19.697956,7.626043013398212,0.0604730663127478
19.70034,7.637874313995216,0.06014266904589
19.702724,7.643699312352973,0.0598377295261658
19.705128,7.653808051457282,0.0595031018398314
19.707512,7.662845855374952,0.0591763638834082
19.709896,7.663735486680094,0.0588909628008395
19.712292,7.661971390932763,0.0586031652463121
19.714676,7.659276129625653,0.05831511170412
19.71706,7.65136596201221,0.0580551905826476
19.719456,7.641453693652351,0.0578028181397369
19.721844,7.636756331598823,0.0575226299298701
19.724220000000003,7.626844063238964,0.0572722286137123
19.726616,7.617211334132825,0.0570106615359402
19.729004,7.6046453387204895,0.0567570176779554
19.731396,7.593941674427712,0.056500412121566
19.7338,7.581747766067715,0.0562666576579779
19.736188,7.574489224760331,0.0560160920538316
19.738568,7.568533936065062,0.0557850770314645
19.740972,7.566303309608907,0.0555513498858606
19.74336,7.562442669458672,0.0553464031157842
19.74574,7.558442259681577,0.0551464916614354
19.748136,7.548575317292091,0.0549627327654374
19.750524,7.543643741955218,0.0547630150166772
19.752904,7.540854036991622,0.054551291550962
19.7553,7.54127713758794,0.0543218907198073
19.757688,7.543842108557537,0.0540797864273487
19.760068,7.550411281019966,0.0538238361475985
19.762468,7.561776050908147,0.053559315141826
19.764852,7.57914712303558,0.0532746482001212
19.767236,7.601593331842484,0.0529719073676103
19.769632,7.616822533596639,0.0527016661463697
19.77202,7.625765893857824,0.0524599368151588
19.774404,7.631636218185953,0.0522303046064876
19.776808,7.640439808820277,0.0519929997436109
19.779192,7.650174565014379,0.0517559206986373
19.781572,7.662330730835479,0.0514965016193842
19.783972,7.671274091096662,0.0512557353796044
19.786356,7.6823593217311235,0.0510040818796726
19.788736,7.69023174680567,0.0507719088311861
19.791132,7.699454646320575,0.0505238371502508
19.79352,7.708677545835479,0.0502753744355491
19.7959,7.721485337962636,0.0500306711328984
19.798296,7.732942655649436,0.0498031165610129
19.800684,7.738625988522461,0.0496200442501156
