Time,Force,Position
41.358324,2.920622380614226,0.1677232373634194
41.360724,3.090525021903189,0.165266742740841
41.363112,3.2484641763997626,0.1633885479604475
41.365508,3.4017021771270715,0.1619443944890145
41.367904,3.5493078585253355,0.1607390645979081
41.370292,3.692167060183961,0.1594985691546877
41.372676,3.825299089079961,0.1581335295953168
41.375072,3.940370677003573,0.1568772248092609
41.37746,4.036775523619115,0.1559537650748258
41.37984,4.1252210849351005,0.1550422637333597
41.382236,4.2073827006159865,0.1542396855882976
41.384624,4.288335507341242,0.1533005949225709
41.387004,4.364262295073138,0.1523001127719885
41.389408,4.438470313028074,0.1509899983876439
41.391792,4.502067214488851,0.1495515875837382
41.461076,4.688120743802401,0.1490203488636327
41.463468,4.691937953840131,0.1489920090983305
41.465848,4.69859588238544,0.1488440709740918
41.468248,4.706604285371107,0.1486443467982328
41.470632,4.716475019476331,0.1484100925923756
41.473016,4.725507135820393,0.1482433979972401
41.475412,4.7351908784705135,0.1480799953792831
41.4778,4.746225095560995,0.1478618196109565
41.480184,4.749949757800107,0.1477841489177111
41.48258,4.7505088363075485,0.1477383717074954
41.484968,4.7549795685092064,0.1475429182535999
41.487364,4.762243797390197,0.1472918107504152
41.48976,4.771090818137026,0.1470257994530618
41.492148,4.784453897055887,0.1466733796889366
41.494532,4.800610472654082,0.1462638055904712
41.496928,4.821981954558609,0.145710243154668
41.499316,4.839628774224023,0.1452361614725679
41.501696,4.858253981277459,0.1446838430289743
41.504096,4.869801950905005,0.1443098639350579
41.506484,4.881210150905692,0.1439567150378228
41.508864,4.893829055719877,0.1435662463095846
41.51126,4.90737912609384,0.1431612761351573
41.513652,4.91748407348241,0.1428092745393894
41.516032,4.9221417971391705,0.1425533859936013
41.518428,4.92172438411646,0.1424201748634662
41.520816,4.9233090718401655,0.1422402012549983
41.5232,4.927966795496927,0.1419863169304831
41.525596,4.93034287915355,0.1417990967272248
41.527984,4.940215509116644,0.1414074413637626
41.530368,4.946643016094344,0.1410625122268151
41.532764,4.949345860832931,0.1407906770453675
41.535152,4.950605683332543,0.1405242150037015
41.537536,4.9470699084064025,0.1403571548847526
41.539932,4.945676003853539,0.1401334868445491
41.54232,4.945353034487313,0.1398829136975679
41.5447,4.942236568441753,0.1396844822276203
41.5471,4.937537310530356,0.1394979340891484
41.549484,4.931767117432321,0.1393395616190532
41.551868,4.930001125827121,0.1390886778546571
41.56144,4.8900630338446165,0.1390508831593191
41.563828,4.882103748545061,0.1390073081975439
41.566208,4.8782884343652,0.1388610294028913
41.568608,4.877825695372115,0.1386207979099838
41.570996,4.874662007498311,0.1384799759943399
41.57338,4.878296017796678,0.1382005216800316
41.575776,4.878577452908267,0.1380150202445233
41.578168,4.883235176565028,0.1377666725105632
41.580552,4.890826166527985,0.1374574252308282
41.582948,4.894924811677304,0.1372516201554778
41.585336,4.9028878886925975,0.1369646822738162
41.587716,4.908709095334614,0.1367368102182211
41.590116,4.913459366789992,0.1365387179826641
41.592504,4.917790329364789,0.1363718187073608
41.594884,4.923843853432282,0.1361807183724025
41.59728,4.933110183059691,0.1359111234496021
41.599668,4.946520483806794,0.1355496285911975
41.602048,4.964354294927312,0.1350743152984498
41.604444,4.983538580488188,0.1345460996352595
41.606832,5.006307758661318,0.1339644069272633
41.609216,5.027866232020949,0.1334230498626979
41.611612,5.050076331686637,0.1328897380874264
41.614,5.072426200979187,0.132354506055069
41.616384,5.090492329525182,0.1319307675560934
41.61878,5.108837997324898,0.1314854259134131
41.621168,5.123179463631779,0.1311270956387745
41.623552,5.142316527364411,0.1306888119367605
41.625952,5.161593360723905,0.1302435916893001
41.62834,5.178309014829541,0.1298777746905622
41.63072,5.199820266360928,0.1294280026612947
41.633116,5.221331517892316,0.1289782306320272
41.635504,5.241632064610204,0.1285647100699489
41.637888,5.259790740954816,0.1282015932853127
41.640284,5.282372927672842,0.1277341880866178
41.642672,5.3069572151372855,0.1272283540800357
41.645056,5.326838452974593,0.1268533002268017
41.647452,5.3415047845055685,0.1265928261937629
41.649844,5.350025044170435,0.1264567025639234
41.652224,5.360407634954857,0.1262929667708152
41.654624,5.370138599433222,0.1261256762717507
41.657012,5.381080268725084,0.1259261959091961
41.659392,5.393232642830446,0.1256962295929007
41.661792,5.406316182495585,0.1254575982921904
41.66418,5.419399722160724,0.12521896699148
41.66656,5.432483261825865,0.1249803356907696
41.668956,5.4457065711178645,0.124732464641018
41.671344,5.4539945133572525,0.1245715306957282
41.673728,5.461491059663723,0.124415127082417
41.676124,5.474621821157105,0.1241307315383343
41.678512,5.484167690038234,0.1238891807486815
41.680896,5.498788695598836,0.1235614163662539
41.683292,5.513689240413158,0.1232151969821597
41.68568,5.527658619667703,0.1228788154201182
41.688064,5.5372044885488325,0.1226410690981847
41.69046,5.548752458176379,0.1223728133195361
41.692848,5.563653002990701,0.1220315306353955
41.695228,5.58041587892458,0.1216650400884804
41.697628,5.601043186724433,0.1212374621162193
41.700016,5.623672595270702,0.1207823572784567
41.702396,5.64616223419011,0.1203402188891735
41.704796,5.666370233109383,0.1199497826433489
41.707184,5.685087987961436,0.1196104396726717
41.709564,5.699522002066935,0.119356048074017
41.71196,5.713956016172433,0.1191016564753622
41.714348,5.730392131024348,0.1188166440468436
41.716732,5.750692677742237,0.1184808644372803
41.719128,5.774997425952961,0.1180844392493756
41.72152,5.802607527522216,0.1176739912981794
41.723904,5.8276564498376136,0.1173372708742789
41.7263,5.8537763073396505,0.1169803283175496
41.728688,5.874681258535354,0.1167177704676466
41.731072,5.896377605663975,0.1164541357018147
41.733468,5.922450241337768,0.1161537963051463
41.735856,5.953458244064173,0.1157859192446007
41.73824,5.9812534412306615,0.1154789138710986
41.740636,6.006906768023874,0.1152115855352612
41.743024,6.032839634070806,0.1149292585103744
41.745408,6.058492960864019,0.1146645151497572
41.747804,6.0827958132168725,0.11443933485437
41.750192,6.105608421502507,0.1142573103007878
41.752572,6.132285461654115,0.1140274298133826
41.754972,6.155517378820331,0.1138195936152927
41.75736,6.177818130426767,0.1136185445091581
41.79082,6.270502106518932,0.113554553423253
41.795588,6.2672439749886415,0.1135229567417415
41.797988,6.263473986779155,0.1134770062176014
41.800376,6.255327710024497,0.1134625013563861
41.802756,6.25211680032245,0.1133847427868639
41.805152,6.254540105807317,0.1132047670594401
41.80754,6.252447353120154,0.1130640652387171
41.809924,6.251705074873348,0.1128912086205304
41.81232,6.253523975880399,0.1126601182388271
41.814708,6.257112660208391,0.1123712409222245
41.817088,6.266056020469576,0.1119959858001637
41.819492,6.278072416663815,0.1115749329079387
41.82188,6.285432985059163,0.1112023362998194
41.82426,6.2950751934546485,0.1107880144016192
41.82666,6.301132509237881,0.1104021260301677
41.829048,6.306910285767392,0.1100342347919633
41.831428,6.31576109822996,0.1096228008618068
41.833824,6.327405407371861,0.1091851486066176
41.836212,6.33518528464779,0.1087927265878217
41.838592,6.3421737659908,0.1084030574652656
41.840992,6.34343548434828,0.1080742710249355
41.84338,6.3507035049450105,0.1076694036159381
41.84576,6.358483382220939,0.1072792593072335
41.848156,6.367194425056647,0.106878937915575
41.850544,6.376045237519215,0.1064746781240762
41.852924,6.382754179608504,0.1061070771594936
41.85532,6.389602891324655,0.1057297498307369
41.857708,6.391656005615053,0.1054027437808208
41.860092,6.392777954345673,0.1050842403174018
41.862488,6.39683316938249,0.1047342025922903
41.864876,6.399957218859527,0.1043949794010798
41.86726,6.4050833690829805,0.1040337550274978
41.869664,6.41300301598577,0.1036484694935335
41.872052,6.41999149732878,0.1032728039062113
41.874436,6.430704640910904,0.1028648862919617
41.876832,6.437553352627054,0.1024953882883775
41.87922,6.443610668410287,0.1021276223483551
41.8816,6.448364731581402,0.1017474955083106
41.884,6.454981125872076,0.1013513037282071
41.886388,6.460247045722389,0.1009850871272853
41.888768,6.471099958931373,0.1005721286006729
41.891164,6.477808901020664,0.1002143826557846
41.893552,6.48665971348323,0.0998286239322513
41.895936,6.4970933178116335,0.0994431252292994
41.898332,6.504733425460702,0.0990816145150455
41.900724,6.507158626803437,0.0987852589436349
41.903104,6.512237555198649,0.0984739866468822
41.9055,6.521180915459833,0.0981254285045231
41.907888,6.530636132400214,0.0977917161494268
41.910272,6.535807608594042,0.0975175894696619
41.912668,6.538417905534012,0.0972953405408919
41.915056,6.536884231354289,0.0971243793678114
41.917436,6.534279621987927,0.0969682343869644
41.919832,6.530324538181206,0.0968411627287604
41.92222,6.526229684747623,0.0967216523788373
41.9246,6.525579954299436,0.0965881667133317
41.926996,6.525581850157304,0.0964625786597351
41.929384,6.523813962694234,0.0963879459471647
41.931768,6.521766535977444,0.096327963488517
41.934164,6.520929814074151,0.0962462401007485
41.936552,6.519161926611081,0.0961717519282344
41.938936,6.520187535827347,0.0960768318792086
41.941332,6.518931505043475,0.0960175304811096
41.943724,6.517955013513323,0.0959439562421061
41.946104,6.518281774595287,0.09588583442563
41.948504,6.522333197916362,0.0958002196881968
41.950892,6.524382520491022,0.095735453966197
41.953272,6.526803930118021,0.095693246415003
41.955672,6.530296274931657,0.0956373074728413
41.95806,6.536442346797767,0.0955683495137641
41.96044,6.544730289037155,0.0954715925080958
41.96284,6.555951497582736,0.0953474071127168
41.965228,6.569035037247876,0.0952108129549384
41.967612,6.583049742472794,0.0950672313924876
41.970012,6.597995613257489,0.0949184559599226
41.9724,6.615362893669183,0.0947300447719456
41.974784,6.63072807333446,0.0945619319130305
41.97718,6.650237224119431,0.0943477791873687
41.979568,6.671608706023959,0.0941217811767286
41.981952,6.6967048501676,0.0938737225509214
41.984348,6.726596591736992,0.0935935766449548
41.98674,6.752903440694132,0.0933320110226996
41.98912,6.782423095211187,0.0930344601951475
41.991516,6.809940648981825,0.0927568362445484
41.993904,6.838157050886764,0.0924472307210117
41.996284,6.869074401672421,0.0920877176705551
41.998688,6.908279694697467,0.09164859749342
42.001076,6.947112900670174,0.0911919572416605
42.00346,6.988227746643018,0.0907101426051432
42.005856,7.032043541496582,0.0901834111730615
42.008244,7.077070041163641,0.0896432203250473
42.010624,7.123307245644202,0.0890898073017838
42.01302,7.165028391952731,0.0885569966309521
42.015408,7.2113128182615345,0.0879712859996644
42.017792,7.254152121584944,0.0873954673620248
42.020188,7.294337697855881,0.0868349987333839
42.02258,7.336944683753813,0.0862406635749516
42.02496,7.376897942599273,0.0856603894614226
42.027356,7.411683516966642,0.0850899136588788
42.029748,7.439671393161843,0.0845681221403664
42.032128,7.455134808199345,0.0841284719110466
42.034528,7.472320784729543,0.0836848627311449
42.036916,7.486433725326686,0.0832711169722394
42.039296,7.501757370737327,0.0828401944788891
42.041696,7.516801476894249,0.082424429755181
42.044084,7.53077464786453,0.0820231592002794
42.046464,7.534737315102729,0.0817006565548182
42.048864,7.53683765122137,0.081387422442042
42.051252,7.534933785847178,0.0811048384325897
42.053632,7.530888050099708,0.080844416802813
42.056032,7.52712185360596,0.0805732503826443
42.05842,7.520422390806017,0.0803205289953215
42.0608,7.515585259125629,0.0800586489905875
42.063196,7.50539345151205,0.0798473476758626
42.065584,7.501859572443778,0.0796035417408861
42.067968,7.494973118188732,0.0793943691977427
42.070364,7.484873858373769,0.0792142263104342
42.072752,7.473563893745307,0.0790494518019347
42.075136,7.469703253595071,0.078854450163703
42.077532,7.470917750124309,0.0786227519276538
42.07992,7.477719240012216,0.0783658940068139
42.082304,7.484660499526983,0.0781033242240779
42.0847,7.485735226429361,0.0778737087766602
42.087088,7.488532514824432,0.0776434324560428
42.089472,7.488396536913312,0.0774303597513435
42.091868,7.484488674934833,0.0772706519370673
42.094256,7.484305475195467,0.0770955531171223
42.09664,7.482632031388883,0.0769479467194368
42.099036,7.480539278701719,0.0768182810729663
42.101424,7.47402301564114,0.0767340164010359
42.103804,7.459079040714313,0.0767227237877947
42.106212,7.444926461720405,0.07671347581069
42.1086,7.434498544965609,0.0766887012503184
42.11338,7.409358970709464,0.0766773540197932
42.115768,7.398651514700948,0.0766640404777679
42.118148,7.393810591304822,0.0766166302871358
42.120548,7.3900406030953345,0.0765594598544796
42.122936,7.382266413393014,0.0765284949000979
42.12532,7.371698727011357,0.0765075604792369
42.127716,7.366485716562894,0.0764394477078356
42.130108,7.360201770927793,0.0763805152105884
42.132492,7.36593042977119,0.0762456439533633
42.134892,7.369796757495034,0.0761180303605771
42.13728,7.374594250778656,0.0759866946303155
42.13966,7.3862366640626895,0.0757830402264228
42.14206,7.396156515854026,0.07558035493468
42.144448,7.408218238018641,0.0753586974474826
42.146832,7.4247034705566675,0.0750956491301584
42.149232,7.447754083841387,0.0747725273079795
42.15162,7.478673330484915,0.0744031969836528
42.154004,7.5106635123150784,0.0740262200039427
42.1564,7.53906880153299,0.0736588914227297
42.158788,7.564680594071567,0.0733010892084471
42.161172,7.59350519217006,0.0729151462299683
42.163572,7.619815832842938,0.072530313631167
42.16596,7.641191106463203,0.0721752406824138
42.168344,7.662706149710329,0.0718154782043624
42.17074,7.685571667397813,0.0714369738335898
42.173128,7.70708671064494,0.0710780143423486
42.175512,7.723386847585732,0.0707596091399341
42.177908,7.744762121205999,0.0704120394517073
42.1803,7.756266660721041,0.0701173690338412
42.18268,7.767910969862942,0.0698176701124361
42.18508,7.779834818258564,0.0695062645556638
42.187468,7.787614695534493,0.0692252989940366
42.189852,7.795534342437282,0.0689384576327891
42.192252,7.80508400303415,0.0686219078302671
42.19464,7.808627361391768,0.0683378711630575
42.197024,7.807095583069914,0.0680837398549153
42.19942,7.803329386576165,0.0678147850947609
42.201808,7.796909463029943,0.0675470373809202
42.204192,7.790210000229997,0.0672899229763364
42.206588,7.788725443736386,0.0669993243616128
42.208976,7.786030182429276,0.0667219920558295
42.21136,7.783055381868445,0.0664560081514111
42.21376,7.778358019814918,0.0661876741573541
42.216148,7.77352088813453,0.06592500739508
42.218536,7.76453978533445,0.0656871843264988
42.220932,7.761053128094422,0.0654055118954677
42.223324,7.758916945294752,0.0651048362006807
42.225704,7.752124934696192,0.0648155271223941
42.228104,7.749337125590465,0.0645058340729971
42.2305,7.745198842044379,0.0642145423620429
42.232888,7.743854055177629,0.063917938168835
42.235284,7.741158793870519,0.0636396564673571
42.237676,7.738044223682829,0.0633774664069396
42.240064,7.733299639801059,0.0631452552134632
42.24246,7.730557156665705,0.0629027563982528
42.244848,7.728606069463271,0.062663202604909
42.247236,7.7278184652460915,0.0624479756389402
42.249632,7.7328973936413,0.0622120240690162
42.252024,7.740909588342706,0.0619659271061958
42.254408,7.744638042297558,0.0617496939742542
42.256808,7.750368596998827,0.0615248757471685
42.259196,7.756890547633013,0.0613044248134017
42.261584,7.76899949162587,0.0610747143084938
42.263984,7.783901932298061,0.0608416980362544
42.266372,7.804670905582643,0.0605891435630413
42.268768,7.821807764426729,0.0603756017338515
42.271176,7.836383444016957,0.0601919387842418
42.273564,7.849049570659385,0.0600471147530135
42.275964,7.858363122115037,0.0599280963994198
42.27836,7.870098083197687,0.0597848108996319
42.280748,7.882484670586395,0.0596522800170893
42.283148,7.896081962788601,0.0595076089856812
42.285548,7.911681355737225,0.0593548930768652
42.28794,7.927932374991906,0.0592117735208273
42.290344,7.947908056485702,0.0590641835530067
42.292752,7.973610500965026,0.0589046289724838
42.29514,7.998521549511433,0.0587414885459857
42.29754,8.017798382870927,0.058623154570253
42.299936,8.036144050670643,0.0585071580891101
42.302332,8.057143445522831,0.0583930201355904
42.304728,8.076000970001745,0.058292170857321
42.307116,8.0929961633611,0.0581940234826355
42.309512,8.10798925597404,0.0581043956695482
42.311908,8.119909312653924,0.0580292469807135
42.3143,8.12968749896053,0.0579674500947772
42.316696,8.135601253401164,0.0579149905472377
42.319092,8.147661079707907,0.0578353077952205
42.32148,8.16270139414909,0.0577118209087992
42.323864,8.188031751576078,0.0575426274679593
42.32626,8.214805131242041,0.0573885727766894
42.328648,8.23878501422867,0.0572385964004277
42.331028,8.263556293148216,0.0570934326947785
42.333428,8.290329672814181,0.0569425408957289
42.335816,8.317522361360725,0.0567770662546179
42.338212,8.340710848414435,0.0566262965014995
42.340608,8.358032802855755,0.056492225157005
42.342996,8.376565462110573,0.0563479210713557
42.345376,8.398590466179028,0.056176273835683
42.347776,8.422617570993898,0.0559995733828614
42.350164,8.445201653569795,0.0558106617212345
42.352548,8.471138311332467,0.0556004217571507
42.354948,8.498145904281778,0.0553847364314142
42.357336,8.524781410178747,0.0551515465963119
42.359716,8.55211576421002,0.0548947422918961
42.362116,8.578658722308377,0.0546346664282573
42.364504,8.614420788205898,0.0543398922171098
42.366888,8.650322623730279,0.0540447939828313
42.369284,8.689669582240054,0.0537601841473944
42.371672,8.72100813776416,0.053503246000728
42.374056,8.748761800676014,0.0532449588718266
42.376456,8.774792902095172,0.0529829725199538
42.378844,8.801243312394911,0.0527082811848924
42.381228,8.823457203776337,0.0524233687903426
42.383624,8.845159238478567,0.0521262382473159
42.386012,8.872355718740849,0.0518009807506037
42.388396,8.90197360863013,0.0514570370514415
42.390796,8.929449628146132,0.0511239998248863
42.393184,8.953061215796161,0.050797951036434
