Time,Force,Position
21.210384,2.5005017075351117,0.1852464641316163
21.21278,2.645538626248041,0.1839390747792288
21.215176,2.780242071862662,0.1826606506629244
21.217564,2.9129453125887346,0.1812077594456303
21.219944,3.0461623058518743,0.1796868838685278
21.222348,3.1795209645997438,0.1778798019687308
21.224736,3.31218456692905,0.1757740942415821
21.227116,3.435819844630032,0.1736100287075303
21.229512,3.5447925825157776,0.1717876095732497
21.2319,3.636913688384765,0.1705560766287262
21.23428,3.716651998580783,0.1695737779017434
21.236684,3.787964492768422,0.1688032578795006
21.239068,3.854715602813656,0.1680754296041167
21.241448,3.918769555693911,0.1671098467950982
21.243848,3.9675093424528702,0.1662532583895626
21.246232,3.999584488650176,0.1656121561165748
21.25578,4.030911669027066,0.1653618539659478
21.258176,4.0479483966410585,0.1652543224917383
21.260564,4.073645153546776,0.1648600514815471
21.262944,4.103952412281011,0.1641946083375504
21.279688,4.168372764639995,0.1640457390919547
21.282076,4.185551157738716,0.1637466356939101
21.284456,4.203615390426841,0.1633022430458513
21.286852,4.218514039383294,0.1629073866958356
21.28924,4.230152660951589,0.1627033836856966
21.291624,4.248913845916146,0.162396811427374
21.29402,4.27484481610521,0.1619300013394031
21.296404,4.302126260734632,0.1613916255606038
21.298788,4.327220509020403,0.16080850935441
21.301192,4.353340366522438,0.1600642520634432
21.30358,4.377784884360023,0.1593106231117026
21.30596,4.401577775891547,0.1585782101430171
21.30836,4.424811588915631,0.1579012808689595
21.310744,4.446787475297974,0.1573468541702308
21.313128,4.4772836213451805,0.156579077145905
21.315524,4.510900025153686,0.1556410895244946
21.317908,4.538185261498847,0.1547728883880814
21.320288,4.564214467060135,0.1538386688719317
21.322692,4.584005052956696,0.1530415570376753
21.32508,4.601886085905457,0.1523682841754116
21.32746,4.628147608892223,0.151497339832254
21.32986,4.64677281594566,0.150891349176049
21.332248,4.660881964827064,0.150382229228655
21.334628,4.673455543670876,0.1498263003430172
21.337032,4.682211912476956,0.1493036841391141
21.33942,4.691667129417338,0.1487286461287642
21.341804,4.69390533930497,0.1483606441340566
21.439764,4.493009862152556,0.1480296592286051
21.442144,4.508930328609536,0.1479232758591818
21.444548,4.52778406137271,0.1477465218319749
21.446936,4.544495923762608,0.1476318028391231
21.449316,4.561999182085423,0.1475116423903901
21.451716,4.584996885968291,0.1472278660687671
21.4541,4.612138560970853,0.146836170740166
21.456484,4.641142567092972,0.1464026241348157
21.45888,4.671077738774868,0.1459543215460892
21.461264,4.703015011203184,0.1454703688019938
21.463644,4.739375794004912,0.1448456370205155
21.466052,4.778809612739694,0.1441574578284609
21.46844,4.819174597034257,0.1434673451933616
21.47082,4.855023523156788,0.1428637942380166
21.473216,4.894364794092954,0.1421576174499495
21.475604,4.935336078723201,0.1413776049163433
21.477984,4.973933175554691,0.1406142839879867
21.480388,5.0072228182812335,0.1399485286418355
21.482776,5.040931769888358,0.1392607877629048
21.485156,5.074548173696863,0.1385328493779959
21.487552,5.10872365601281,0.1377669673002391
21.48994,5.141316346462921,0.1370367884741894
21.492324,5.171255309860556,0.1363483847143072
21.49472,5.204826387698688,0.1355523992433614
21.497104,5.236163047364927,0.1347675243709256
21.499484,5.261772944045634,0.1340971851284929
21.501892,5.283518408860369,0.1335056553314453
21.504276,5.303029455503209,0.1329183626805304
21.50666,5.321237249533933,0.1323256226911676
21.509064,5.33306665427307,0.1318332939674082
21.511452,5.344244432706148,0.1313386065136172
21.513836,5.349695448153697,0.1309473367443676
21.516232,5.350630405429213,0.1306218024106225
21.51862,5.350773966771812,0.1302994846635797
21.521,5.350126132181491,0.1299851539645989
21.5234,5.348686901658253,0.1296761815321761
21.525784,5.352183038187627,0.1292764268323371
21.528168,5.357541505836559,0.128848769168654
21.530564,5.358895771992657,0.1284981357604875
21.532952,5.358247937402338,0.1281861345669706
21.535332,5.358391498744938,0.1278716990849801
21.537736,5.352249218594566,0.1276892482858838
21.540124,5.349040204750389,0.1274557344615252
21.542508,5.339824888666961,0.127333332042201
21.544904,5.330469802956672,0.127220003609036
21.547292,5.3228372787390805,0.1270884420003223
21.549672,5.318138020827685,0.1269058078889717
21.552072,5.319025756274957,0.1266422501000162
21.55446,5.321636053214927,0.1263629441761287
21.55684,5.326900077207371,0.1260516865466457
21.559236,5.330953396386319,0.1257730685346017
21.561624,5.335798111498184,0.1254889904112923
21.564008,5.341294452916105,0.1252091969057473
21.566408,5.349444521386502,0.1248977436834428
21.568796,5.353310849110345,0.1246800438168945
21.57118,5.3571771768341865,0.1244628541793975
21.573576,5.353966267132141,0.1243788744935574
21.575964,5.348613487056817,0.124341161971297
21.578344,5.348196074034106,0.124216954098214
21.58074,5.351223783996788,0.1240594348649854
21.583128,5.351597766906993,0.1239324041899126
21.618964,5.330139424777458,0.1238293879392457
21.621344,5.336238274815324,0.1237659652741596
21.62374,5.345270391159387,0.1236539661570362
21.626132,5.351089701943534,0.1236108813619173
21.628512,5.355186451234985,0.1235848416260648
21.630908,5.361797157952051,0.1235398808070354
21.633296,5.370549735042394,0.1234528084668667
21.63568,5.387310715118403,0.1232310033794118
21.638076,5.400207263328439,0.1230703214819486
21.640464,5.415664990792333,0.1228410865750759
21.642844,5.439410660495616,0.1224624972785381
21.645248,5.470373337251647,0.1219516572759895
21.64764,5.49933391326126,0.1214719870641196
21.65002,5.528853567778317,0.1209567207389558
21.652416,5.557861365616175,0.1204251011951246
21.654804,5.585146601961335,0.1199121126307102
21.657188,5.609498572000301,0.1194473101436898
21.659592,5.630265649427012,0.1190215897277746
21.66198,5.658249733906474,0.1184729931722435
21.664364,5.691308955065408,0.1178405501254022
21.66676,5.722785384358507,0.1172182329156473
21.669148,5.752539252158908,0.1166215951519103
21.671528,5.777497522533556,0.1160897000331692
21.673924,5.804877202535204,0.1155036785559973
21.676312,5.829323616230655,0.1149593852160731
21.678692,5.851256072500495,0.1144333539084167
21.6811,5.867321996157941,0.1139932987866455
21.683484,5.874727890523662,0.1136717204937886
21.685868,5.881342388956467,0.1133518544544911
21.688264,5.884744081829356,0.1130919510593224
21.690656,5.884421112463131,0.1128777840215545
21.69304,5.8793025456711545,0.1127249715967254
21.695436,5.879259115558649,0.1124946499279244
21.697824,5.879727542125342,0.1122801290128739
21.700208,5.88298946537137,0.1120355719375923
21.702604,5.88639115824426,0.1117828500737489
21.704992,5.889932620744007,0.1115210356606754
21.707376,5.897198745482869,0.1112188509830258
21.709772,5.899669272795978,0.1109786672379049
21.71216,5.899486073056614,0.1107609813397939
21.714544,5.900094269250167,0.1105424416621204
21.71694,5.896977803204607,0.1103624019338316
21.719328,5.900938574584936,0.1100832613244395
21.721712,5.900895144472431,0.1098587383784642
21.724108,5.903133354360064,0.1095900622785732
21.726496,5.903229693874421,0.1093553933746416
21.728876,5.905979760441252,0.1090992289050532
21.731276,5.91538775555339,0.1087674506259349
21.73366,5.924516211411808,0.108451082967538
21.736044,5.9348553720837245,0.108108037439556
21.73844,5.943192432009225,0.1077936599620524
21.740828,5.956464858987339,0.1074165448521608
21.743208,5.965733084472616,0.1070962094459773
21.745604,5.973278748465198,0.106786486594885
21.747996,5.978962081338223,0.1064971254308963
21.750376,5.988649615704082,0.1061583533094187
21.752772,6.001922042682194,0.1057939234755695
21.75516,6.010538641861414,0.1054739215289814
21.757544,6.0187359321600535,0.1051788354935805
21.759944,6.026374143951253,0.1049165349053443
21.762332,6.0312188590631175,0.1046805762674149
21.764712,6.036715200481039,0.1044509482733278
21.767108,6.041000837085461,0.1042497632496038
21.7695,6.048219739996081,0.1040146807725995
21.77188,6.054879564399259,0.1038119832636512
21.77428,6.070339187721022,0.1035108081452945
21.776668,6.087800911789203,0.1031864757785281
21.779052,6.102189599924327,0.1029056329627844
21.781448,6.121932963992644,0.1025471819103445
21.783836,6.143398889553658,0.1021828886988701
21.78622,6.170172269219622,0.1017900461846462
21.78862,6.191870512206112,0.1014622726784056
21.791008,6.214360151125521,0.1011338720996316
21.793388,6.235639085231432,0.1008266964188234
21.795788,6.253285904896846,0.1005878550442206
21.798176,6.266648983815706,0.1004151833261254
21.80056,6.280012062734566,0.1002454464155771
21.802956,6.298962135012097,0.1000296391004596
21.805344,6.318843372849405,0.0998066530705429
21.807728,6.340214854753932,0.099546623627982
21.810124,6.368244265203768,0.0992287132527603
21.812512,6.399346711586659,0.0988745786891943
21.814896,6.427236352409635,0.0985685707132736
21.817292,6.453775518792251,0.0982936929129998
21.81968,6.482596325175005,0.0979833800194168
21.822064,6.5036882678258126,0.0977505188715992
21.82446,6.5239888145437,0.0975199925302155
21.826848,6.546571001261726,0.0972552893763039
21.829228,6.564078051300282,0.0970504857149283
21.831628,6.579862539846139,0.0968537979261579
21.834016,6.588337473540631,0.0967053461326087
21.836396,6.600025212795037,0.0965149943656024
21.838796,6.615856923169137,0.0962785068098182
21.841184,6.638905640595988,0.0959623489776436
21.843568,6.6705218395159465,0.0955379676619062
21.845964,6.701206872876125,0.0951193001384685
21.848352,6.727236078437413,0.0947351831690361
21.850736,6.749820161013309,0.0943658173096797
21.853132,6.771752617283147,0.0939901396832706
21.85552,6.795407635045681,0.0936132571547681
21.857904,6.811333789076268,0.0933023260921233
21.8603,6.826049238293357,0.0930135443631225
21.862688,6.83811096045797,0.0927346552662284
21.865068,6.849800595570247,0.0924340202543316
21.867468,6.86349233142894,0.0921183721327313
21.869856,6.8809087295267455,0.0917789658902809
21.87224,6.902329329117386,0.091407492559543
21.874636,6.918535022401692,0.0910925300471315
21.877024,6.933949319753082,0.0907756170761819
21.879408,6.948292681917832,0.0904714941140263
21.881804,6.966500475948556,0.0901365632644088
21.884192,6.9852201266584775,0.089818788888771
21.886576,6.999004410315788,0.0895458140271333
21.888972,7.008784492480264,0.0893123613845635
21.89136,7.014700142778766,0.0891103302633971
21.893744,7.021826497890768,0.0888895939004203
21.89614,7.033888220055381,0.088629811039625
21.898528,7.049395065205389,0.0883635585131655
21.900912,7.065972845542034,0.0880869966522001
21.903308,7.077615258826067,0.0878502556421884
21.905696,7.094193039162712,0.0875745191369828
21.90808,7.111050358753078,0.0872871537623808
21.910476,7.133913980582694,0.0869502763396334
21.912864,7.160222725397702,0.086608403031107
21.915248,7.18066493760032,0.0863117997627028
21.917644,7.197382487563825,0.0860355177376486
21.920036,7.203018598608607,0.0858521187170651
21.92242,7.21466101189264,0.0856199476749551
21.924816,7.234683915214678,0.0853466967881266
21.927204,7.258431480775829,0.0850556436899219
21.929584,7.28096834152348,0.0847831059883873
21.931984,7.301922410405297,0.084508883449325
21.934372,7.32473881040667,0.0842256977989568
21.936752,7.344761713728707,0.0839570822884834
21.939148,7.362642746677468,0.0837112653798288
21.941536,7.384388211492203,0.0834436465838852
21.94392,7.401058539627464,0.0832185228627732
21.946316,7.415075140710252,0.0830022659514679
21.948704,7.428951972166179,0.0827936792585498
21.951088,7.444830904368524,0.0825695655229184
21.953484,7.45898727507817,0.0823495897464292
21.955872,7.472212480228039,0.0821348964616989
21.958252,7.483435584631492,0.0819368178946667
21.960648,7.493075897169108,0.0817366328009846
21.963036,7.502576440079864,0.081541436423861
21.96542,7.516081184483453,0.0813180268096479
21.967816,7.535732000753153,0.0810427857417763
21.970204,7.553800025157018,0.0807666818557524
21.972584,7.563487559522876,0.0805297480805355
21.974984,7.5715923020229,0.0802905829996565
21.977372,7.582118454149921,0.0800208923186262
21.979752,7.593575771836719,0.0797482570731509
21.982152,7.603450297657682,0.0794719538186063
21.98454,7.619982752023953,0.0791652280733762
21.98692,7.638517307136641,0.0788456733962023
21.989316,7.650114394450299,0.0785707735649744
21.991704,7.663853352137234,0.078276181515604
21.994084,7.679454640943727,0.0779757544409037
21.996484,7.691051728257387,0.0777011877120255
21.998872,7.701717650011267,0.0774301583310314
22.001252,7.713035198071205,0.0771681538231011
22.003648,7.723421580571366,0.0769099002156142
22.006036,7.730734927138471,0.076673999563752
22.00842,7.735906403332298,0.0764572940382391
22.01082,7.744290685086041,0.0762123766624215
22.013208,7.750672866093367,0.075981448679085
22.015588,7.7609194789666684,0.07573279046268
22.017988,7.76888445183983,0.0755088166494604
22.020376,7.779642921392329,0.0752749090676078
22.02276,7.788259520571549,0.0750596637737963
22.025156,7.793803083817713,0.0748666070436013
22.027544,7.797344546317462,0.074685989761433
22.029924,7.799535534376852,0.0745253714793285
22.032324,7.791855788331016,0.0744200267753157
22.034708,7.786178143031599,0.0743028616297283
22.037092,7.784784238478736,0.0741499540151915
22.039496,7.783250564299013,0.0740028154882127
22.041884,7.78078572455951,0.0738593043535717
22.044264,7.786189518178815,0.0736749396069574
22.046664,7.79280401661162,0.0734762838086844
22.049052,7.796904557618808,0.0732753185383424
22.051432,7.802867429745556,0.0730687065046776
22.053832,7.812043107432216,0.0728362631563807
22.05622,7.821358554745738,0.072597852951828
22.058604,7.828532131685982,0.0723770136901011
22.061,7.834355234185868,0.072175873814779
22.063388,7.836313904819781,0.0719931372674822
22.065772,7.84013490657325,0.0718048475153549
22.068168,7.84288497314008,0.0716253790852696
22.070556,7.846985514147268,0.0714263638343115
22.07294,7.84894418478118,0.071243290802157
22.075336,7.851973790601731,0.0710517398473093
22.077724,7.858216201982197,0.0708349732731556
22.080108,7.870604685228774,0.0705780250709841
22.082504,7.877126635862961,0.0703493407452809
22.084892,7.878293910563956,0.0701620033240484
22.087276,7.880671890078449,0.0699610715634738
22.089672,7.880116603286746,0.0697737316408698
22.092064,7.871832452763097,0.0696192677597869
22.094444,7.863408532612587,0.0694702615438128
22.09684,7.859500670634109,0.069314064250954
22.099232,7.853590707909215,0.0691685282035878
22.101612,7.848611910744098,0.0690208824427751
22.104012,7.847637315071815,0.0688527467225674
22.1064,7.847733654586169,0.0686765412747999
22.108784,7.85253304372766,0.0684528661675256
22.11118,7.857332432869151,0.0682294821386297
22.113572,7.859198555704447,0.0680184079851185
22.115952,7.860273282606824,0.0678040375680428
22.118348,7.857995434322424,0.0676180931939042
22.120736,7.85972178753086,0.0674114782087553
22.123116,7.863450241485713,0.0671955739986904
22.125516,7.867038925813705,0.0669860048046732
22.127904,7.869696444581917,0.0667792291130472
22.130284,7.876358164842964,0.0665526120717504
22.13268,7.889165956970121,0.0662907330001093
22.135068,7.9010425835375,0.066032112881074
22.137448,7.915992246037935,0.0657564639532898
22.139848,7.932944009284786,0.0654701413054607
22.142232,7.953899974024472,0.0651672944718251
22.144616,7.968058240591987,0.064889515393933
22.147012,7.985429312719419,0.0645905581036165
22.1494,7.997865017794239,0.0643125730877507
22.151784,8.006156751749366,0.0640598565416077
22.154184,8.014588255331352,0.0638022395163977
22.156572,8.018736018166786,0.0635748296177183
22.158956,8.020881680255801,0.063356058297928
22.161352,8.02866155753173,0.0630916184321252
22.16374,8.036581204434519,0.0628216553487466
22.166124,8.048644822457003,0.062528321490746
22.16852,8.061919145292984,0.0622245127798703
22.170908,8.07347090663627,0.0619203681536753
22.173288,8.085162437606414,0.0616123165224555
22.175688,8.099787234882754,0.0612964483246271
22.178076,8.11040783066626,0.0609969710158844
22.180456,8.120097260889988,0.0607007565607475
22.182856,8.130717856673495,0.0604041566444313
22.185244,8.141338452457001,0.0601089767700386
22.187624,8.159036285666398,0.0597866621689193
22.190024,8.171798751823182,0.0594831103702552
22.192412,8.190707289846078,0.0591513085889695
22.194792,8.204540691189498,0.0588414954487799
22.197188,8.220096654025618,0.0585330304525771
22.199576,8.23393005536904,0.0582207960664037
22.201956,8.248694622272241,0.0579085931126382
22.204356,8.26331941954858,0.0576012384397192
22.206744,8.281017252757977,0.0572803188873873
22.209124,8.29322064040732,0.0569974432007908
22.21152,8.30635519361644,0.0567139157561943
22.213908,8.319349977198701,0.0564368253291834
22.216292,8.330342660034546,0.0561683296426565
22.218696,8.339193472497115,0.0559119585522342
22.221084,8.346181953840125,0.0556579945490125
22.223464,8.34902646406344,0.0554237202435717
22.225864,8.358808442085786,0.0551689458112362
22.228252,8.365657153801937,0.0549218875788054
22.230636,8.37050376477167,0.0546818551903254
22.233032,8.373348274994989,0.0544487123421595
22.23542,8.366042511859359,0.05425361885861
22.237804,8.357805583163954,0.0540585407006271
22.2402,8.348357949655048,0.0538746239225388
22.242588,8.343985452825615,0.0536722761347695
22.244972,8.343245070436678,0.0534385950970522
22.247368,8.346508889540575,0.053192388013579
22.249756,8.348841543084694,0.0529473535101292
22.25214,8.352384901442312,0.0526918433308067
22.254536,8.354065928680372,0.0524376745182232
22.256924,8.35788882629171,0.052172331723359
