Time,Force,Position
43.616884,2.7867799538182223,0.1830451704694441
43.619268,2.9473313011126354,0.1787285846388132
43.621664,3.1042071038540477,0.1744076201366935
43.624056,3.249306411258174,0.1705803293644643
43.62644,3.3822571362726785,0.1673767893652479
43.62884,3.499427164457064,0.1648570795769175
43.631228,3.6009090436099465,0.1629609140298698
43.633612,3.697317681941227,0.1611479312378851
43.636008,3.79214542426454,0.1592736516701086
43.638396,3.881807377967633,0.1573551531907049
43.64078,3.954617699653968,0.1557958499697166
43.643176,4.011694546338428,0.154407756361297
43.693364,4.106743230940003,0.1540112550409841
43.695752,4.112515319895907,0.1539834292982429
43.698136,4.117775552172614,0.1539392188609868
43.700536,4.132394661875346,0.1535959826641693
43.702924,4.144452592324221,0.1533692725338362
43.705308,4.154880509079017,0.1532342887292224
43.710096,4.168100026655278,0.1532265046715012
43.71248,4.177457008223436,0.1531243144520749
43.714876,4.188164464231952,0.1529555395602152
43.717264,4.20315566098702,0.1526419739041395
43.719648,4.216936152928592,0.1523854737367534
43.722044,4.23830573897525,0.1519376184414068
43.724432,4.2612581168877455,0.1514784098427533
43.726816,4.282487933307543,0.1510458862671742
43.729216,4.307210094540977,0.1504827836248697
43.731604,4.334772974281989,0.1497809077057477
43.733988,4.359402587716806,0.1491666909965569
43.736384,4.381378474099147,0.1486125747125729
43.738772,4.398930850108075,0.1482094001423418
43.741152,4.417554161303643,0.1477740725700263
43.743552,4.434315141379652,0.1473869763308193
43.74594,4.4533577614558,0.1469271962400839
43.74832,4.4637403522402215,0.1466884655866261
43.75072,4.474682021532084,0.1464020357769891
43.753108,4.484832294891028,0.1461245596357463
43.755488,4.497915834556167,0.145775273334326
43.757888,4.511278913475028,0.1454025930116859
43.760276,4.529065502767302,0.1448934090965957
43.762656,4.548993962432854,0.1443198308153765
43.765056,4.565057990232432,0.1438415418599029
43.767444,4.578608060606395,0.1434014655660064
43.769824,4.588153929487524,0.1430694183128319
43.772224,4.592764431316041,0.142857114880778
43.774612,4.602589839450893,0.1425028490843745
43.776996,4.610552916466187,0.1421901825343647
43.779392,4.617445058294841,0.1419098077495852
43.781784,4.627410236056552,0.1415530862886779
43.784168,4.639377514564679,0.1411505927387246
43.786564,4.659632735312194,0.1405393155513953
43.788952,4.681890056806124,0.1398908851175926
43.791336,4.702285047180499,0.1392755549578594
43.793732,4.716813504942484,0.1387912644621819
43.796124,4.736137560130223,0.1382089712339915
43.798504,4.752109040131182,0.137722448897153
43.8009,4.766869815318644,0.1372739963362182
43.803292,4.7794887201328295,0.1368866450571204
43.805676,4.791548546439574,0.1365444765237009
43.808072,4.798533236066847,0.1363269270358643
43.81046,4.803515824947702,0.1361558892954424
43.853472,4.815107224687752,0.1360470071217319
43.870188,4.794672595916612,0.1360131913925444
43.872584,4.795278896252297,0.1359099736766277
43.874976,4.797747527707537,0.1357743235098587
43.877356,4.803428964722693,0.1355560417212042
43.879756,4.806688992110852,0.1354140742087405
43.882144,4.818236961738398,0.1350747713990379
43.884528,4.831647262485501,0.1346999883698185
43.886924,4.843567319165384,0.1343873557801661
43.889312,4.852274570285353,0.1341545881503106
43.891696,4.865777418831073,0.133827622929414
43.894096,4.879280267376794,0.133503628610331
43.896484,4.890501475922377,0.1332475232108064
43.898864,4.902886167453215,0.1330154981830981
43.90126,4.917133190103611,0.1327525827006662
43.903648,4.931380212754006,0.1324942448752016
43.906032,4.944975609098343,0.1322321276393004
43.908432,4.964205220629594,0.1318200263329032
43.91082,4.98064133548151,0.1314568940910895
43.91322,4.994423723280949,0.1311311566901588
43.915616,5.010347981453668,0.1307553513609212
43.918008,5.03055598037294,0.1302773569369918
43.920388,5.047970482612876,0.1298511698794794
43.922788,5.063941962613837,0.1294277825127095
43.925176,5.077119945935464,0.129048572326739
43.927556,5.096071914070863,0.1285181813834654
43.929956,5.110740141459707,0.1280937880257436
43.932344,5.1266190736620505,0.1276369514772755
43.934728,5.143708710677893,0.1271470342300727
43.937124,5.166944419559846,0.1265313802557477
43.939512,5.18473290470999,0.1259916006353115
43.941896,5.2015902243003564,0.125468364478681
43.944296,5.217935687211524,0.1249281745096744
43.946684,5.232977897510577,0.1243797209513475
43.949068,5.248951273369407,0.1238233966513102
43.951464,5.262270922175762,0.1233008359268431
43.953852,5.275450801355257,0.1227892950287611
43.956236,5.286069501280895,0.122359776551086
43.958632,5.299761237139588,0.1218737679824918
43.961024,5.314244368931199,0.1213835025720661
43.963404,5.328308191842228,0.1209258240943033
43.965804,5.339019439566483,0.1205472397767306
43.968192,5.351453248783435,0.120155438745375
43.970576,5.3633279794929445,0.1198025183627601
43.972972,5.381860638747762,0.1193559753788701
43.975364,5.395178391696248,0.1190146771776601
43.977744,5.406633813525176,0.1186962990168166
43.980144,5.419811796846804,0.1183670624542558
43.982532,5.434852111287986,0.118017976990595
43.984912,5.449892425729169,0.1176756826676714
43.987312,5.470799272782743,0.1172471165609085
43.989704,5.491706119836316,0.1168194536390316
43.992088,5.516337629129001,0.1163502608525053
43.994484,5.543483095847302,0.1158712375446761
43.996872,5.567415757005686,0.1154545471649027
43.999256,5.588927008537074,0.1150919057307768
44.001652,5.610018951187881,0.1147559404217022
44.004044,5.627106692345855,0.1144809363040355
44.006424,5.642704189436609,0.1142563342607438
44.008824,5.659372621714002,0.1140125453336361
44.011212,5.6740389532449775,0.1137998344393992
44.013596,5.6928492558956485,0.1135173563253455
44.015992,5.708726292240123,0.1132782238818458
44.018384,5.726884968584736,0.1129921738974528
44.020764,5.739037342690097,0.1128010559796007
44.023164,5.750910177541736,0.1126265430145495
44.025552,5.767578609819129,0.1123898260006185
44.027936,5.777449343924353,0.1122460820708872
44.030336,5.783455646163603,0.1121551917384765
44.044676,5.795186815530514,0.1121365195316386
44.047064,5.801844744075823,0.1120579380531555
44.049448,5.808921981501712,0.1119537881562567
44.051844,5.818141089300878,0.1118107117757056
44.054232,5.825917174861068,0.1116625101614686
44.056616,5.833693260421259,0.1115153489456579
44.059012,5.8434714467278654,0.1113393149474356
44.0614,5.850316366728277,0.111203503726847
44.063784,5.858092452288469,0.1110573716876358
44.06618,5.861724566728965,0.1109766719718389
44.068572,5.865636220423181,0.1108785929634291
44.070952,5.871689744490674,0.110743448558
44.073352,5.873227210386137,0.1106502747079373
44.07574,5.879839812961072,0.1104809101266853
44.078128,5.885800789229949,0.1103036521132264
44.080528,5.887105937699934,0.1101767549023379
44.082916,5.890041099863998,0.1099973756581577
44.085304,5.886318333482755,0.1098968626595483
44.087704,5.882455797474651,0.1098047356259809
44.090096,5.879943735906905,0.1096767481634035
44.09248,5.869702810607213,0.1096463396473971
44.094876,5.859461885307521,0.109614850368758
44.097268,5.852293995940883,0.1095363182132853
44.099656,5.850341012880579,0.1093760217390533
44.102052,5.848248260193413,0.1092237089127186
44.10444,5.841499679707358,0.1091190922845219
44.106824,5.8362413432885205,0.1089713548661764
44.109224,5.8300518413099045,0.1088328945360225
44.111612,5.830287950451121,0.1085898086353598
44.114,5.835087339592611,0.1082607257554877
44.116396,5.842028599107378,0.1078974821806894
44.118788,5.847387066756308,0.1075366640112264
44.121184,5.8544680958979365,0.1071651005376939
44.123588,5.860757729106646,0.106795924903833
44.12598,5.867838758248273,0.106424465921538
44.128376,5.879855154442513,0.1059915852762111
44.130776,5.888798514703697,0.1056023096572775
44.133164,5.901606306830854,0.1051680004936503
44.135564,5.921910645264482,0.1046206769151386
44.137964,5.940352652578554,0.1040902731853916
44.140352,5.964800962131875,0.1034785742386023
44.142752,5.988457875752278,0.1028737845006981
44.145156,6.008390127133569,0.1023086680798353
44.147544,6.023247241835386,0.1018152225774223
44.149944,6.042388097283757,0.1012604774692698
44.152336,6.06739548534452,0.1006392463773091
44.154724,6.086396571166032,0.1000915053993628
44.157124,6.1044664914277655,0.0995494891136262
44.15952,6.109452872024359,0.0991715008155076
44.16192,6.1110866774341766,0.0988513963252041
44.164316,6.107645346164523,0.0985947005430508
44.166708,6.102993310081368,0.0983612639125947
44.169104,6.099551978811714,0.0981039715592847
44.171504,6.099695540154313,0.0978246273045671
44.173892,6.103843302989746,0.097499464449004
44.176292,6.10692013063854,0.0971920960847113
44.178692,6.114140929407028,0.0968314503452052
44.18108,6.119219857802238,0.0965019296676169
44.183464,6.1130775776518655,0.0963102071398705
44.18586,6.109589024553968,0.0961037075287887
44.188252,6.1048897666425725,0.0959203987924038
44.190636,6.095906767984622,0.0957972653022384
44.193036,6.087435626005869,0.0956898625575537
44.195424,6.082037519960171,0.0955448289968621
44.197808,6.073938465033756,0.0954607920934378
44.20022,6.065559870853619,0.0953918522164309
44.202608,6.0609059389125965,0.0952945014380695
44.204992,6.060116438837549,0.0951613229536655
44.207392,6.068918133614003,0.0949408917643768
44.20978,6.080373555442934,0.0947075469245653
44.212168,6.097555740257393,0.094422993135212
44.214588,6.117391652124328,0.0941244451612058
44.21698,6.135737319924043,0.0938652544573093
44.21936,6.149287390298007,0.0936512749856456
44.221756,6.160555820671832,0.0934763653785654
44.224144,6.17061354623216,0.0933241805081656
44.226524,6.180112193285047,0.0932040818589216
44.228924,6.193894581084487,0.0930288453670195
44.231312,6.215405832615875,0.0927847781971357
44.233692,6.237056853774123,0.0925353258320896
44.236092,6.260430436425067,0.0922818247277423
44.23848,6.290881256501901,0.0919544658937032
44.24086,6.322682551019094,0.0916004458418336
44.24326,6.350479644043452,0.0912885989800358
44.245644,6.375623010015335,0.0909873911233747
44.248028,6.399043814494523,0.0906938975246842
44.250424,6.424326950093267,0.0903898740714111
44.252812,6.44453494901254,0.0901389355723903
44.255196,6.461018285692698,0.0899144531275522
44.257592,6.473637190506883,0.0897218396550004
44.25998,6.488677504948066,0.0894917107509391
44.26236,6.507070394576023,0.0892184121400642
44.26476,6.525882593084562,0.0889238506500594
44.267148,6.545625957152879,0.0886233598423392
44.269528,6.564857464541999,0.0883086701405078
44.271924,6.581435244878643,0.0880027895189615
44.274316,6.593496967043256,0.0877186874071748
44.276696,6.600343782901538,0.0874935088158608
44.279096,6.604676641334204,0.0872727938749053
44.281484,6.609009499766871,0.0870531579761758
44.283868,6.611759566333701,0.0868314016837658
44.286264,6.60850333066128,0.0866645441077438
44.288652,6.604036390175362,0.0865173266067736
44.291036,6.602362946368777,0.0863536493362846
44.293432,6.604833473681887,0.0861474757306978
44.29582,6.609306101741414,0.0859246940747505
44.2982,6.613266873121742,0.0856878809121597
44.3006,6.625515586741459,0.0853696988816587
44.302988,6.642048041107731,0.0850060818866401
44.305368,6.664214710660914,0.0845714526415894
44.307768,6.681166473907767,0.0841926450867486
44.310156,6.693974266034925,0.0838569499321797
44.31254,6.707852993348721,0.0835113533478481
44.314936,6.720940324729599,0.0831638182449873
44.317328,6.732956720923839,0.0828280796606028
44.319712,6.750699880103608,0.0824583615028723
44.322108,6.770305370402936,0.0820772690997996
44.3245,6.792844127008457,0.0816749867531766
44.32688,6.812170078054063,0.0813058611057443
44.32928,6.8285627627934735,0.0809576712980892
44.331668,6.842953346786468,0.0806250900232068
44.334052,6.860556736339377,0.0802583502650207
44.336452,6.877228960332508,0.0798961271402385
44.33884,6.895111889139137,0.0795186788923476
44.34122,6.908990616452934,0.0791737617345418
44.34362,6.920587703766593,0.0788595776137683
44.346012,6.928552676639756,0.0785987240555967
44.348396,6.928089937646671,0.0784207373346354
44.350792,6.924926249772868,0.0782920712062456
44.35318,6.915988577085292,0.0782374385501358
44.355564,6.9087734658904125,0.0781808707786194
44.35796,6.90356045544195,0.078109290240438
44.360352,6.895134639433571,0.0780696907565897
44.362732,6.890433485664304,0.0780134341384006
44.365132,6.888246289320653,0.0779580023426978
44.36752,6.883265596297665,0.0779146983480546
44.369904,6.882009565513793,0.0778555648307646
44.3723,6.879682599543283,0.0778068789839274
44.374688,6.885224266931579,0.077707927825418
44.377072,6.89355943099921,0.0775973154810667
44.379468,6.906690192492592,0.0774615619732436
44.381856,6.919681184359115,0.0773334153542664
44.38424,6.935465672904973,0.0771945337448923
44.386636,6.949899687010472,0.0770796315851576
44.389028,6.967127197795305,0.0769537420950624
44.391408,6.98356331264722,0.076825127814461
44.393804,7.005354103432328,0.0766469258149342
44.396196,7.033710274964127,0.0764031854695324
44.398576,7.06169435944359,0.0761388931064779
44.400976,7.093962184669605,0.0758347551320585
44.403364,7.1265095491493415,0.0755198407933649
44.40576,7.154121546576467,0.0752356498587975
44.40816,7.187600076615982,0.0749191338066665
44.410548,7.218005570722441,0.0746281147940772
44.412928,7.249901308896119,0.0743127742611706
44.415328,7.281797047069798,0.0739987707162432
44.417716,7.312109993377641,0.0736826940452027
44.420096,7.344052953379563,0.0733348603870738
44.422496,7.370269150395955,0.0730163610288721
44.424884,7.397556282598984,0.072691044957607
44.427268,7.42204991812268,0.0723777388757703
44.429668,7.445472618459736,0.0720747505713178
44.432056,7.467172757304096,0.0717735324434817
44.43444,7.489571744282758,0.0714447172192557
44.436836,7.513181436074918,0.0711036250095102
44.439228,7.538001832680577,0.070748316235727
44.441608,7.558957797420263,0.070412614599716
44.444008,7.576700956600032,0.0701057376585222
44.446396,7.59523551171272,0.0698033738868686
44.44878,7.611116339772933,0.0695046325228089
44.451176,7.625274606340449,0.0692062354267081
44.453564,7.640364038467744,0.0689030920880674
44.455948,7.6517288083559265,0.0686127230608717
44.458344,7.661510786378272,0.0683154425074966
44.460732,7.664867153280786,0.0680685779162253
44.463116,7.668735376862498,0.0678368723584185
44.465516,7.671532665257573,0.0676140929733088
44.467904,7.671768774398789,0.0674253044911921
44.470288,7.67479838021934,0.0672295841451586
44.472684,7.672101223054359,0.0670538310611808
44.475072,7.668333130702742,0.0668860542774877
44.477452,7.663494103164487,0.0667262365892998
44.479852,7.660517406745785,0.06656202456502
44.48224,7.654839761446368,0.0664367969518866
44.48462,7.646228849840755,0.066324175323166
44.48702,7.63747816860828,0.0662170225592723
44.489408,7.632452149614921,0.0661010429317723
44.491792,7.628217526554479,0.0659886042566875
44.494192,7.62198080274762,0.0658861083220446
44.49658,7.615464539687041,0.0657945898352729
44.498964,7.610531068492299,0.0657099933824244
44.50136,7.6116038995368065,0.0655961243941044
44.503748,7.612676730581313,0.06548236928428
44.506136,7.616682827932018,0.0653569175066184
44.508532,7.625252205282995,0.0651894102042942
44.510924,7.633449495581635,0.0650018819033401
44.513304,7.643509116999832,0.064811276587675
44.515712,7.653568738418028,0.0646201590332918
44.518104,7.660695093530029,0.0644410754414475
44.520488,7.676481477933755,0.0642340895314401
44.522884,7.694269963083899,0.064018170086156
44.525276,7.713408922674401,0.0637838371323644
44.527664,7.72975438558557,0.0635561327435555
44.530064,7.746519157377317,0.0633112534184874
44.532452,7.764866721034903,0.0630741368874423
44.53484,7.784797076558323,0.0628454671666057
44.53724,7.799000669096214,0.0626337103037696
44.539628,7.813344031260965,0.0624174222930563
44.542016,7.830620659731912,0.0621910932733296
44.544412,7.850039158576134,0.0619509655326307
44.5468,7.867735095927661,0.0617092886150811
44.549188,7.880635435853436,0.0614831545966948
44.551588,7.890602509473015,0.0612669260561942
44.553976,7.899638417532817,0.0610532196844808
44.556364,7.909605491152395,0.060839597175117
44.55876,7.919572564771976,0.060626612838173
44.561148,7.927025680965941,0.0604080904794346
44.56354,7.936108810853986,0.0601613818873072
44.565948,7.94533171036889,0.0599089787675271
44.568336,7.950969717271541,0.0596592040245214
44.570736,7.95874959454747,0.0593979290178646
44.573132,7.9665294718233985,0.0591372369857901
44.575524,7.976311449845744,0.0588693042626768
44.57792,7.9870245934278685,0.0586002927715729
44.58032,7.996294714771015,0.0583181498609079
44.582708,8.001188547568992,0.0580311538683029
44.585108,8.008224250740245,0.0577302168303948
44.587504,8.01553949316522,0.0574200411543282
44.5899,8.01899030372422,0.0571197969121898
44.592296,8.019228308723305,0.0568384430467468
44.5947,8.01946631372239,0.0565566356682146
44.5971,8.020775253908115,0.0562684625588264
44.599508,8.029161431519727,0.0559530825690392
44.6019,8.038199235437396,0.0556480488427561
44.6043,8.04015980192918,0.0553699394956108
44.606696,8.040118267674544,0.0550985519883127
44.609084,8.038586489352687,0.0548483602303685
44.611484,8.036635402150253,0.0546141711949604
44.613884,8.034684314947818,0.0543795510462818
44.616272,8.028449486998829,0.0541687445617476
44.618652,8.018489996810727,0.0539613443956291
44.621052,8.010392837742181,0.0537528391029982
44.62344,7.9992226427405795,0.0535564862062633
44.625824,7.987121282179199,0.0533604107116188
44.62822,7.9770220223642365,0.0531576073970166
44.630612,7.972929064788525,0.0529356290736222
44.632992,7.97083820795923,0.0527075086261527
44.635392,7.963532444823603,0.0525019681798662
44.63778,7.957577156128333,0.052279602065704
44.640164,7.955905608179619,0.0520346717965582
44.642564,7.954094290604044,0.0517944620966522
44.644952,7.95214320340161,0.0515595896400826
44.647336,7.942695569892704,0.0513639970296446
44.649744,7.930594209331323,0.0511640229550743
44.652132,7.925430316568972,0.0509452110773862
44.654516,7.921988985299318,0.0507304258331597
44.656912,7.920549754776079,0.0505092823769514
44.6593,7.917899819439343,0.0502986759797337
