Time,Force,Position
22.34494,3.707479099666057,0.1611196654590635
22.347324,3.71530051119662,0.160941295177958
22.349728,3.72428540571244,0.1607848331341887
22.352116,3.733782156907458,0.16064638886977
22.354496,3.748633584035668,0.1602992777188231
22.356892,3.771912723030126,0.1596196699456173
22.35928,3.792166047919772,0.1589935173244157
22.36166,3.808694710570304,0.1584762409128901
22.364056,3.820520323593701,0.158170872990472
22.366444,3.84216944889408,0.1576248949421659
22.368828,3.864470200500516,0.1570795480757641
22.371224,3.8874698002412535,0.1564634535372371
22.373612,3.911308017743152,0.1557627925226442
22.375992,3.930909716326741,0.1551517583336565
22.378392,3.95107049341777,0.1544694453513987
22.38078,3.969229169762381,0.1538640349745917
22.38316,3.987108306853273,0.1532839238665768
22.385556,4.0034971998769455,0.1527882565743256
22.387944,4.022027963273895,0.1522032001978479
22.39034,4.034180337379256,0.1517887210138098
22.392736,4.046240163686,0.1513217326328891
22.395124,4.049128104021821,0.1511016114331975
22.397508,4.051876274730782,0.1508965853577369
22.399904,4.057278172492219,0.1506344529012195
22.402292,4.062260761373073,0.1504154709752992
22.404676,4.06673149357473,0.1501831441110191
22.407072,4.069479664283692,0.1499851274285259
22.409456,4.072135287194035,0.149728220049451
22.41184,4.074279053425182,0.1494523318344438
22.414236,4.074560488536772,0.1492276404029662
22.416624,4.0764247155141975,0.1489845727303098
22.419004,4.080243821409797,0.1487554431390627
22.421408,4.083643618424817,0.1485667470074202
22.423796,4.088533659507054,0.1483030398893523
22.426176,4.097847210962707,0.147888351554348
22.428576,4.110233798351414,0.147390537211745
22.430964,4.123551551299901,0.1468694503351886
22.433348,4.139662800927722,0.1462857972746552
22.435744,4.158427777608017,0.1456552762124252
22.438132,4.181196955781147,0.1449098412104691
22.440516,4.1988909972748045,0.1443090770309788
22.442912,4.216445269141602,0.1437161059155134
22.445304,4.232276979515703,0.1431527996625159
22.447684,4.245407741009085,0.1427133167146512
22.45008,4.257699884741307,0.1423506900029378
22.452468,4.271807137764841,0.142023024081394
22.454852,4.281910189295543,0.1418010512946641
22.457248,4.294666967878719,0.1415305281701866
22.459636,4.3094258472083125,0.1412041626261614
22.488308,4.406480424272043,0.1410064052816599
22.490692,4.419747163676547,0.140965758840984
22.493088,4.436319256439584,0.1408858756480469
22.495476,4.457035320322315,0.1406970419720143
22.49786,4.482314664205321,0.1403677380340105
22.500256,4.502426323610236,0.1401160138351299
22.502648,4.53040661637396,0.1396832402965188
22.505028,4.55438270764485,0.1393472311819343
22.507428,4.577287863729102,0.139042069121413
22.509816,4.606059552425743,0.1386101255346054
22.5122,4.630035643696633,0.1382827679380636
22.514592,4.651358007915049,0.1379943730549015
22.51698,4.678966213626435,0.1375500763788468
22.519364,4.70205836116579,0.1371774429587408
22.521756,4.7207742201599725,0.1368689801235871
22.524144,4.744704985460489,0.1364193374540143
22.526528,4.766913189268308,0.1359994596301987
22.528924,4.7852569612101545,0.1356615437709513
22.531312,4.80509097721922,0.1352653703704608
22.533692,4.825344302108864,0.1348355764979045
22.536092,4.834795727333508,0.1346461927962944
22.53848,4.843315986998372,0.1344771086620792
22.54086,4.852535094797539,0.1342558357999842
22.543256,4.861382115544367,0.1340131707299087
22.545644,4.865433538865444,0.1338663533645674
22.548024,4.871487062932939,0.1336753618400201
22.550424,4.873024528828401,0.13355675764383
22.552812,4.880847836216835,0.1332898500382812
22.555196,4.890673244351684,0.1329818679846926
22.557592,4.895051428754725,0.1327605572272004
22.55998,4.904924058717818,0.1324015466105336
22.56236,4.918149263867687,0.1319540178021761
22.564764,4.92257467009897,0.1316777910386296
22.567148,4.933797774502422,0.1312739804351399
22.569532,4.948605771518128,0.130816702688045
22.571928,4.960899811108218,0.1303864145553042
22.574316,4.972821763645971,0.1299314087962032
22.576696,4.988655369877942,0.1293477010713058
22.579092,5.000624544243938,0.1288369238419085
22.581476,5.011662553050157,0.1283413598963866
22.583872,5.030708964842043,0.127676976764107
22.586272,5.047893045514372,0.1270441518050508
22.588656,5.061212694320727,0.1264867000184305
22.591036,5.0666637097682745,0.1260788826847506
22.59344,5.071043790029185,0.1256941211971263
22.595828,5.071419668797261,0.125388603823459
22.598208,5.071376238684756,0.1251140998780726
22.600612,5.067049067825698,0.1249439308412639
22.603,5.061418644354523,0.1247617208471093
22.60538,5.054065659390653,0.1245979199853651
22.607776,5.038844041067975,0.1245834930575325
22.610164,5.024553588305075,0.1245514044071828
22.614944,4.996205000204752,0.1245269987046987
22.617332,4.981402690762654,0.1244765030586296
22.619712,4.968322942813253,0.1244068444490964
22.622108,4.95603459079677,0.124331846051681
22.624496,4.943047390645986,0.1243059265326794
22.62688,4.934576248667232,0.1242202900584721
22.629276,4.927827668181177,0.1241169869422107
22.631664,4.921079087695119,0.1240132989432404
22.634044,4.910977932022288,0.1239915545643803
22.636444,4.903810042655652,0.1239181068789224
22.638832,4.901297981087906,0.1237757910207698
22.641216,4.903861056199631,0.123534446996893
22.643612,4.912011124670029,0.1232090736117058
22.646,4.919881653886705,0.1229021306437526
22.64838,4.9285435790363,0.1225920644761665
22.65078,4.935435720864955,0.1223575000331971
22.653164,4.94763531679856,0.1220604034281843
22.655548,4.967284237210391,0.1216527021444317
22.657944,4.985442913555002,0.121304527326704
22.660332,5.0066746258326695,0.1208922776862369
22.662716,5.027067720349176,0.1205415716592562
22.665112,5.047832901918019,0.1202235934477223
22.6675,5.066595982740446,0.1199433763667143
22.66988,5.084939754682292,0.1196959520504681
22.672284,5.102072821810639,0.1194829841285959
22.674672,5.117343557819429,0.1193003592231497
22.677052,5.1323347545745,0.1191390377528615
22.679456,5.143042210583016,0.1190694328714267
22.681844,5.160826904017421,0.1188674404458275
22.684228,5.175398791891911,0.1187355918069816
22.686624,5.192903946072595,0.1185573867710599
22.689012,5.207987690626282,0.1184473183136394
22.691392,5.225213305553246,0.1182972403929559
22.693788,5.248864531600042,0.1180203219567415
22.696176,5.268651325780864,0.1177986300659129
22.69856,5.2916509255216,0.117511750262186
22.700956,5.310925863023226,0.1172757009629236
22.703344,5.326196599032016,0.1171099883563488
22.705724,5.339744773548111,0.1169585070025864
22.708128,5.355295048810622,0.1167765183965788
22.710516,5.370333467393935,0.1165765649406161
22.712896,5.383369785230832,0.1164107636512225
22.715292,5.398128664560425,0.1162303265636429
22.71768,5.414098248703517,0.1160213558252121
22.720064,5.430998998406387,0.1158006688942103
22.72246,5.443616007362703,0.1156627812508717
22.724848,5.456512555572738,0.1155072534904255
22.727228,5.4756949452757455,0.1152363926077295
22.729624,5.496088039792252,0.1149434524919816
22.732012,5.517691839122256,0.1146198319542483
22.734396,5.539575177705981,0.1142857538869305
22.7368,5.561877825170288,0.1139270830872154
22.739188,5.579245105581981,0.1136446586629138
22.741568,5.590466314127564,0.1134660046769107
22.743972,5.606902428979479,0.1131980382668522
22.74636,5.623478313458255,0.1129252381142941
22.74874,5.642056298683447,0.1126230233043371
22.75114,5.657049391296387,0.1123507355300618
22.753528,5.675255289469241,0.112021975171208
22.755908,5.690947230216482,0.1117109127704901
22.758304,5.707849875777221,0.1113717898584146
22.760692,5.7253115998454005,0.1109983369014215
22.763076,5.745194733540579,0.1105741757665515
22.765472,5.762424140183281,0.1101739423154314
22.767856,5.780072855706566,0.1097501213525631
22.770236,5.802145081603262,0.1092401798164328
22.77264,5.82514847305974,0.1087247676448918
22.775028,5.844147663023382,0.108272330716884
22.777408,5.8591426514941904,0.1078808094714433
22.779812,5.875860201457695,0.1074806946493998
22.782196,5.88643167955509,0.1071716190320208
22.784576,5.896723618398764,0.1068809871989296
22.786976,5.9070155572424365,0.1065891052796529
22.789364,5.918238661645891,0.1062871342166627
22.791744,5.929461766049343,0.1059886974619836
22.79414,5.939613935266156,0.1057102656613524
22.796528,5.946693068549914,0.1054752846002591
22.798908,5.961501065565619,0.1051509217328213
22.801308,5.975889753700744,0.1048548960483237
22.803696,5.989719363328429,0.104592139362214
22.806076,6.0092757359416415,0.1042737829834559
22.80848,6.030414900420693,0.1039571104844589
22.810868,6.048481028966687,0.1036856215952917
22.813252,6.06705901419188,0.1034292364848467
22.815648,6.084426294603572,0.1031984822164763
22.818036,6.103516136507962,0.1029622064906681
22.820416,6.121674812852573,0.1027365542001383
22.822816,6.137831388450771,0.1025343509946633
22.825204,6.154919129608745,0.1023249963111324
22.827584,6.1716347837143815,0.1020951544988137
22.829984,6.192354639312851,0.1018161128227156
22.832368,6.211212163791763,0.1015532854999811
22.834748,6.233142724203732,0.1012518980750108
22.837148,6.256283989429199,0.1009283328571389
22.839532,6.277283384281389,0.1006384424092584
22.841916,6.296140908760302,0.1003799235147399
22.844312,6.321284274732186,0.1000378131515297
22.8467,6.343634144024734,0.0997243757823582
22.84908,6.364121682197727,0.0994276761756871
22.851484,6.386751090743995,0.0991019742584186
22.853868,6.400580700371679,0.0988694451776466
22.856252,6.411477043693167,0.0986674368715665
22.858648,6.422093847760936,0.0984804595476795
22.861036,6.4342008958959225,0.0982568392786381
22.86342,6.447798188098129,0.0979972383372334
22.865824,6.457810587688084,0.0977608342331746
22.868212,6.467031591345121,0.0975251404994563
22.870592,6.478114926121712,0.0972741285386499
22.872992,6.489338030525165,0.097017227081526
22.87538,6.497999955674759,0.0968120510708489
22.87776,6.507732816010992,0.0965941190518022
22.880156,6.516953819668027,0.0963603014607711
22.882544,6.526314592951922,0.0961216742615899
22.884924,6.53460443104918,0.0958980726064071
22.887324,6.545315678773434,0.095633330559472
22.889712,6.558588105751546,0.0953194490358033
22.892092,6.567716561609964,0.0950568079500588
22.894492,6.5739117511621865,0.0948210288847603
22.896876,6.579455314408352,0.0945772618276239
22.899256,6.580482819482485,0.0943588981855125
22.90166,6.585514526049452,0.0940994130701341
22.904048,6.592688102989697,0.0938126897386323
22.906428,6.599629362504464,0.0934963901636539
22.908828,6.603357816459316,0.0932211065636501
22.911212,6.603733695227393,0.092993998207666
22.913592,6.603969804368608,0.0927736133662417
22.915988,6.603414517576907,0.092552364809598
22.918376,6.602347374106008,0.0923156781296788
22.92076,6.598486733955772,0.0920979368306538
22.923156,6.595185172312978,0.0918507192036344
22.925544,6.587227782871292,0.0916350155266412
22.92794,6.582855286041859,0.0914011393887634
22.930336,6.577411854025788,0.0911814977537021
22.932724,6.575181227569633,0.0909229892148692
22.935104,6.566664759620506,0.0907359973562685
22.9375,6.554004320551685,0.0905939977074765
22.939888,6.5425545862963626,0.090431430210954
22.942272,6.536040219093653,0.0902248111833263
22.944668,6.528734455958026,0.0900161667341431
22.947052,6.523151254315095,0.0898017324984831
22.949436,6.515705721552606,0.0895990556572646
22.95184,6.507608562484059,0.0893879840464835
22.954228,6.502025360841127,0.0891738207791745
22.956608,6.500586130317891,0.0889155772136562
22.959004,6.502359705354568,0.0886188043199658
22.961396,6.507485855578023,0.088277940347598
22.963776,6.513403401734393,0.087938646102642
22.966172,6.52318537975674,0.087572447463815
22.96856,6.534829688898643,0.0871948436288205
22.970944,6.549127725093019,0.0868096578814356
22.97334,6.566219257966732,0.0864071924904961
22.975728,6.57944635897447,0.0860340277195061
22.978108,6.585735992183179,0.0857170347846396
22.980508,6.58480861833914,0.0854729652011418
22.982896,6.587233819681876,0.0851825381708776
22.985276,6.5955255536370005,0.0848458224777049
22.987672,6.598602381285795,0.0845634120064624
22.99006,6.597023381135698,0.0843087245352702
22.99244,6.597027172851436,0.0840570092452717
22.994844,6.597030964567175,0.0838046791960932
22.997236,6.59875731777561,0.0835490023855375
22.999616,6.5991331965436855,0.0833198660383086
23.002012,6.595644643445788,0.0831188853203733
23.0044,6.591364694414973,0.0829167904483544
23.006784,6.586944975757297,0.0827221849244248
23.00918,6.579032912285985,0.0825774829177146
23.011568,6.569118748068256,0.0824491978659095
23.013952,6.555712239036891,0.0823703192095562
23.016348,6.540955255565168,0.0823170295671615
23.01874,6.523265005787248,0.0822846956836319
23.02112,6.508368252688666,0.0822371640016281
23.023524,6.497335931456055,0.0821634689179313
23.025912,6.494032473955393,0.0820377125976978
23.028296,6.494733217947562,0.0818781285175939
23.030692,6.501160724925263,0.0816846820822178
23.03308,6.502652864850351,0.0815289364017821
23.035464,6.514295278134384,0.0812870269798632
23.03786,6.528451648844031,0.0810454142245776
23.040248,6.542608019553677,0.0808041951473043
23.042628,6.561048131009879,0.0805199927499784
23.045028,6.578696846533163,0.0802346740593107
23.047416,6.598347662802864,0.0799345297208456
23.049796,6.61986081019212,0.0796250358690374
23.052196,6.63867300870066,0.0793655810857182
23.054584,6.655203567209061,0.0791354236398754
23.056964,6.675738327210296,0.0788758124245102
23.059364,6.698926814264007,0.0786097988399482
23.061752,6.721603444638519,0.0783275396175167
23.064132,6.742697283147195,0.0780381975648745
23.066528,6.762859956096094,0.0777521527851857
23.068916,6.777156096432601,0.0775064249203783
23.071296,6.787587804903135,0.0772853630533141
23.073696,6.79722811744075,0.0770633484385438
23.076084,6.807147969232087,0.0768283719525193
23.078464,6.8110615187841725,0.0766404205555759
23.08086,6.815766464269177,0.076454311313257
23.083248,6.810321136395236,0.0763498925187888
23.085632,6.805806974081073,0.076241748354551
23.088028,6.804505617326828,0.0761022329361595
23.090416,6.801714016505363,0.0759937846440472
23.0928,6.800784746803455,0.0758780956423788
23.095196,6.799715707474685,0.0757692604407623
23.09758,6.802650869638749,0.0756336494956489
23.09996,6.808147211056672,0.0754585937793721
23.10236,6.814994026914952,0.0752603579829035
23.104748,6.818907576467037,0.075080430639289
23.107132,6.824031830832622,0.0748851335236982
23.109536,6.832089351504401,0.0746738163075668
23.111924,6.846944570348349,0.0744266721177753
23.114308,6.86645561699119,0.074163322155885
23.116708,6.889831095500004,0.0738793064054823
23.119096,6.916000070688153,0.0735851157872952
23.12148,6.941098110689662,0.0733020577821145
23.123876,6.970851978490064,0.0730067633716423
23.126264,6.999395141476966,0.0727258271518717
23.128644,7.033013441143342,0.0724121829292447
23.131044,7.072638043048968,0.0720591573819025
23.133432,7.107467047528841,0.0717286234027909
23.135812,7.13801231126216,0.0714387892988233
23.138208,7.170559675741897,0.071140529494045
23.140596,7.1991028387288,0.0708678489182378
23.14298,7.227506232088842,0.0706026241822634
23.14538,7.252045193582913,0.070358904696038
23.147768,7.273371349517067,0.0701429226295236
23.150152,7.296699606197636,0.0699168282080902
23.152548,7.3210987980648445,0.0696828487344905
23.154936,7.342704493252718,0.0694588203053027
23.15732,7.362168318067316,0.0692541383102037
23.159716,7.378698876575718,0.0690662812614699
23.162104,7.394717578404921,0.068865557403768
23.164488,7.412226524301344,0.0686405349888814
23.166884,7.432017110197904,0.0683951417317445
23.169272,7.453018400907965,0.0681367375997637
23.171656,7.465359662326297,0.0679131941525443
23.174052,7.481193268558268,0.0676533087867146
23.176444,7.492231277364487,0.067413012348671
23.178824,7.502477890237787,0.0671708913391181
23.181224,7.517799639790559,0.0669000519863613
23.183612,7.535403029343469,0.0666078763605561
23.185992,7.5435549936717345,0.0663437803407523
23.188392,7.557061633933193,0.0660407672210175
23.19078,7.570196187142313,0.0657180299105678
23.193164,7.579466308485462,0.0654084923968925
23.195564,7.591949235388525,0.0650751664925625
23.197948,7.599496795238976,0.0647642124499821
23.200332,7.604390628036953,0.0644539647176426
23.202732,7.612357496767985,0.06412707068418
23.20512,7.618601804006322,0.0637980151682356
23.2075,7.620050513818906,0.0634838926938861
23.2099,7.616284317325157,0.0632026569249868
23.212288,7.610096711204411,0.0629490307849401
23.214672,7.599904903590831,0.0627149254923541
23.217068,7.588921700044334,0.0624769917446884
23.219456,7.582594324296727,0.0622290653928557
23.22184,7.574125078175843,0.06199605760503
23.224236,7.567657932801376,0.0617537866744428
23.226624,7.562261722613547,0.0615050201244708
23.229004,7.557936447612358,0.0612505525746464
23.231408,7.551469302237891,0.0610104683872363
23.2338,7.553522416528288,0.0607497677151837
23.23618,7.550220854885495,0.0605252757357937
23.238576,7.54663975398898,0.0603120168168899
23.240964,7.549716581637774,0.0600826377369656
23.243344,7.552653639659708,0.0598596904146935
23.245744,7.560526064734252,0.0596185564536333
23.248132,7.572123152047912,0.0593725208270261
23.250512,7.579576268241876,0.0591490550714129
23.252912,7.58782078036876,0.0589292263630047
23.2553,7.601792055481173,0.0586956892839005
23.25768,7.6199073017132815,0.058440077100857
23.26008,7.638022547945388,0.0581848220220252
23.262468,7.657068959737273,0.0579286684161578
23.264852,7.6735541922753026,0.0577026807260742
23.267248,7.690179194440191,0.0574722434290175
23.269636,7.711460024403969,0.0572374147471856
23.27202,7.730598983994473,0.0570166994733256
23.27442,7.745314433211561,0.0568285453572109
23.276808,7.751881709816122,0.0566767611460104
23.279188,7.76031131754024,0.0565229201380585
23.281584,7.765016263025244,0.056374107119839
23.283968,7.772794244443303,0.0562111008549808
23.286352,7.779780829928445,0.0560438671079501
23.288748,7.785184623547749,0.055869039569881
23.291136,7.789657251607276,0.0556956538843442
23.29352,7.793990110039943,0.0555288111937137
23.295916,7.794318766979776,0.0553764665952508
23.298304,7.799443021345361,0.0552147506350293
23.300688,7.809642412390417,0.0550338430565709
23.303084,7.820912738622112,0.0548484829444083
23.305472,7.8312518992940285,0.054664740141212
23.307852,7.839868498473249,0.0544770164811737
23.310248,7.847134623212111,0.0543057323307631
23.312636,7.859895193511027,0.0540998668694534
23.315016,7.872795533436802,0.0538898588005546
23.317412,7.882902376683241,0.0536834944462455
23.3198,7.89286945030282,0.0534819576995218
23.322184,7.904326767989619,0.0532583212247014
23.32458,7.921930157542529,0.0530091066787825
23.326968,7.938881920789379,0.0527509324794901
23.329352,7.954762748849594,0.052498118562404
23.331748,7.968781245790248,0.0522469998026343
23.334136,7.983311599410103,0.0520112221605825
23.33652,7.995420543402961,0.0517979859731162
23.33892,8.006458552209178,0.0515905742425067
23.341308,8.014842833962922,0.0513800779209129
