Time,Force,Position
23.396644,3.3659126321647026,0.1666307798462003
23.399032,3.433640233740089,0.1659413534163265
23.401412,3.487122708522949,0.1656642819262012
23.403808,3.54130592729798,0.1650669544296014
23.4062,3.589811500773592,0.1643782890077086
23.40858,3.631056637083952,0.163626663974907
23.410984,3.6628994658557783,0.16292600470019
23.413371999999995,3.690228132313445,0.1621638253292835
23.415752,3.707780508322372,0.1616176319839156
23.418148,3.719094264666573,0.1612625396782342
23.420536,3.730500568809389,0.1609758973882507
23.422916,3.74372198224352,0.1607186200636411
23.42532,3.76211108015574,0.160346474541427
23.427708,3.777706681388625,0.1600536692634114
23.430088,3.791067864449616,0.1597821901190158
23.432484,3.799121593405657,0.1596437254006882
23.434872,3.8116913805337296,0.159385850954498
23.437252,3.832781427326667,0.1588765678036865
23.439656,3.851170525238888,0.1585202051453572
23.442044,3.875286386136637,0.157998045556671
23.444424,3.899402247034387,0.1574801504277593
23.446819999999995,3.9291523231190495,0.1567246463987566
23.449208,3.958530312151376,0.1559282525367247
23.451588,3.978317106332198,0.1554330508015925
23.453987999999995,3.9968931956995206,0.1549990203031723
23.456372,4.015841372119181,0.1545999560736026
23.458756,4.034370239658261,0.1542455404774052
23.461152,4.050245380144867,0.1539593650367323
23.46354,4.069892404698829,0.1535032451542689
23.46592,4.092100608506649,0.1529432285415851
23.468316,4.113145329329211,0.1523686151899362
23.470704,4.133398654218857,0.1518154597353598
23.473088,4.152720813548725,0.1512983172967142
23.475484,4.176838570304343,0.1506581066580065
23.477868,4.203749823739298,0.1499529504608195
23.480252,4.23294271717439,0.1491553439724681
23.482648,4.25897002687781,0.1484064269650064
23.485036,4.280341508782337,0.1477870545275993
23.487432,4.300642055500226,0.1472020948470619
23.489828,4.320663062964394,0.1466587758845176
23.492216,4.34119592710776,0.1461349311025645
23.494596,4.360937395318209,0.1456291109105031
23.497,4.384543295394631,0.1450345599147448
23.499388,4.414015728083443,0.1442911504037992
23.501768,4.441486060025838,0.1435980338799369
23.504164,4.471749888647568,0.1428558847094608
23.506552,4.503736278761995,0.1420904740059812
23.508936,4.538376395928895,0.1412900313488594
23.511332,4.571805808282298,0.140546964526577
23.51372,4.598157983209812,0.1399892798124781
23.516104,4.625441323697103,0.1394193079610178
23.628412,4.57233093596658,0.1392062930509706
23.630792,4.56716514734636,0.1391031510797312
23.633188,4.5669347257787525,0.1388920118499475
23.635576,4.576435268689508,0.1384796672665131
23.637956,4.58765837309296,0.1380424943602021
23.640352,4.602885678989246,0.1375116352962969
23.64274,4.621697877497786,0.1369250221239034
23.64512,4.642791716006462,0.1362669913261533
23.647524,4.664956489701776,0.1355804228371395
23.649912,4.690985695263065,0.1348158544091518
23.652292,4.71301069933152,0.1341399267497837
23.654688,4.735687329706033,0.1334686547275131
23.657076,4.750914635602318,0.1329332672697074
23.659456,4.767073107058383,0.1323799881725897
23.661852,4.780158542581392,0.1318999037286155
23.66424,4.797760036276432,0.1313524688636523
23.66662,4.815501299598332,0.1307955342516461
23.669016,4.830029757360317,0.1303299717975081
23.671403999999995,4.843347510308803,0.1299063149169322
23.673784,4.861088773630704,0.1293620410949587
23.676184,4.875245144340352,0.1288738303242194
23.678572,4.880461946504553,0.128577687381283
23.680968,4.887680849415172,0.1282431107841563
23.683364,4.887962284526762,0.1280536339850702
23.685752,4.887592093332293,0.1278578614873467
23.688132,4.887361671764684,0.127652300028783
23.690528,4.884197983890881,0.1275031858674046
23.692916,4.879823591203579,0.1273902451562333
23.697696,4.864649194709144,0.1273183261987869
23.700084,4.859715723514401,0.1272476271122804
23.702464,4.85385108675988,0.1271921594225095
23.704864,4.854644378550667,0.12701864753322
23.707252,4.852364634408398,0.126912168509575
23.721584,4.816895378769683,0.1267665499077066
23.723964,4.811774916119837,0.1267649979732792
23.726364,4.810658654962825,0.1266813732104114
23.728752,4.808191919365454,0.1266452268262251
23.731132,4.806935888581582,0.1265727597508631
23.733532,4.8103356855966,0.1264272779025616
23.735916,4.811593612238341,0.1263323442433545
23.738296,4.814853639626501,0.1261977500972074
23.740692,4.821838329253772,0.1260059331415849
23.743084,4.834549781866575,0.1257206321524583
23.74548,4.853127767091767,0.1253323131735408
23.747876,4.873987392317097,0.1248946863302895
23.750264,4.898851219035261,0.1243859297554654
23.752644,4.925577376872981,0.1238625784085843
23.75504,4.960172168069509,0.1232073941717127
23.757428,4.9959776640795335,0.1225228701611961
23.759808,5.0316433904627,0.1218448957614676
23.762204,5.068659591286225,0.1211268062983779
23.764592,5.106327418415807,0.1204113245955985
23.766972,5.1474403685307815,0.1196673472004
23.769368,5.189344714578676,0.118918666216122
23.771756,5.227244859133736,0.1182517713610842
23.774152,5.268218039621852,0.117536688854324
23.776548,5.30732888899041,0.1168516827424942
23.778936,5.346020429478388,0.1161968960861512
23.781316,5.380847538100394,0.1156125545830117
23.783724,5.419678848215232,0.114964963275413
23.786112,5.456368287956793,0.1143612623745081
23.788492,5.488401899899462,0.113820729060645
23.790887999999995,5.517642015162798,0.1133288431545342
23.793276,5.54073605856002,0.1129479728099716
23.795656,5.558754965277772,0.1126576023681406
23.798055999999995,5.573700836062468,0.1124231302611468
23.800444,5.586784375727607,0.1122161899133575
23.802824,5.595212087593857,0.1120672550217361
23.805223999999995,5.602429094646605,0.1119476599037596
23.807608,5.616443799871525,0.1117388090993827
23.809988,5.631389670656219,0.1115225000644466
23.812388,5.651829987000968,0.1112069498304261
23.814776,5.6698961155469645,0.1108986271666899
23.81716,5.689824575212515,0.1105719654530626
23.81956,5.711103509318425,0.110210847205149
23.821944,5.733173839357254,0.109857051519382
23.824324,5.75752580939622,0.1094619723211386
23.82672,5.782948714621824,0.1090495263352742
23.829108,5.807160915033929,0.1086624242053545
23.831492,5.829091475445898,0.1083236622381429
23.833888,5.854234841417782,0.1079330324873101
23.836276,5.88231147369586,0.1075052527255332
23.838656,5.905452738921327,0.1071402509445842
23.84106,5.93301751452021,0.1066961847311067
23.843448,5.961513455678869,0.106241507794016
23.845828,5.98921800090461,0.1057872545138731
23.848228,6.015572071689992,0.1053713642844838
23.850616,6.043508934341211,0.1049565924207426
23.852996,6.07158556661929,0.1045340104884225
23.855392,6.090722630351923,0.1042301088943853
23.85778,6.106786658151501,0.1039712895016741
23.86016,6.118566945204527,0.103785170102128
23.862556,6.132069793750247,0.1035911654667796
23.864944,6.14478124636305,0.1033994735655922
23.867328,6.156421763789213,0.1032254466115709
23.869724,6.160985043789489,0.10314349195781
23.872112,6.161124813416349,0.1031355221887891
23.874496,6.161544122296929,0.1031117188849977
23.876892,6.165316006364285,0.1030311822074772
23.87928,6.166434163379167,0.1029677354857925
23.88166,6.163408349274353,0.1029617222023561
23.884056,6.160382535169541,0.1029555697950937
23.886448,6.160569526624644,0.1029005166537698
23.888828,6.160756518079746,0.102845894863189
23.891224,6.158010243228655,0.1028237837281127
23.893612,6.15712629949712,0.1027850788947511
23.895996,6.154519794272891,0.1027550426220304
23.898396,6.149119792369324,0.1027497836738894
23.90078,6.145582121585315,0.102727904515
23.903164,6.14525725636122,0.1026576349861001
23.915116,6.110110970088727,0.1026049291235306
23.9175,6.101545384453488,0.1026018451142153
23.919896,6.096984000311084,0.1025490251379973
23.92468,6.082087247212499,0.1025488669731347
23.927076,6.077246323816373,0.1025116145852644
23.929464,6.0777600763534405,0.1023932831143581
23.931848,6.075340562584312,0.1023075233843049
23.934244,6.07464361030788,0.102213488962715
23.936632,6.069802686911754,0.1021756787202413
23.939012,6.072039000941517,0.1020497394917946
23.941412,6.073204379784642,0.1019399703046854
23.943796,6.071716031575293,0.1018458481572009
23.94618,6.073440488925859,0.1017039305326704
23.948576,6.074233780716646,0.1015708146070663
23.950964,6.077308712507572,0.1013991866173382
23.953348,6.08359644985841,0.1011813399239681
23.955744,6.092957223142306,0.1009236901307786
23.958132,6.106461967545897,0.1006119993183486
23.960516,6.126112783815596,0.1002259088499408
23.962912,6.148696866391491,0.0998084312763223
23.965304,6.168766991541772,0.0993983660403046
23.967684,6.186602698520159,0.098982422670681
23.970084,6.204717944752266,0.0985498901282384
23.972472,6.22059877281248,0.0981089530294305
23.974852,6.234197960872556,0.097707886462595
23.977252,6.241651077066521,0.0973837587877004
23.97964,6.25338793400704,0.0969996688085968
23.982024,6.260608732775529,0.0966449417837084
23.98442,6.266898365984238,0.0962946135216552
23.986808,6.266669840274499,0.0959977594832058
23.989192,6.268071328258838,0.0956557542824934
23.991588,6.276270514415349,0.0952470519783467
23.99398,6.278463398332606,0.0949045481311171
23.99636,6.277071389637613,0.0945827199052789
23.99876,6.270464474636285,0.0943279524213992
24.001148,6.262786624448321,0.0940888021475113
24.003528,6.255760400566413,0.093858034385692
24.005928,6.246871845564949,0.0936414608964216
24.008316,6.2326286146302925,0.0934971236800871
24.010696,6.221737958882412,0.0933024449318087
24.013092,6.216853605373781,0.0930461814315128
24.01548,6.212620878171208,0.0927979803895758
24.017864,6.210390251715053,0.0925296110549803
24.02026,6.209742417124733,0.0922627000031165
24.022648,6.210025748094192,0.0919891256905745
24.025028,6.214453050183344,0.0916670734442608
24.027428,6.217949186712718,0.0913537843886677
24.029816,6.222888345481069,0.0910483014388694
24.032196,6.232902640928892,0.0906890035729439
24.034596,6.246222289735249,0.0903262093773239
24.036984,6.256049593727968,0.0900198801164844
24.039364,6.262664092160772,0.0897563560157613
24.04176,6.27221185689977,0.0894645642418766
24.044148,6.283482183131466,0.0891661481567852
24.046528,6.299687876415772,0.0888212420263777
24.048928,6.312960303393885,0.0885027305053912
24.051316,6.325441334439079,0.0881842281546157
24.0537,6.336571891043914,0.0878944003220959
24.056096,6.348773382835388,0.087590565024348
24.058488,6.354549263507032,0.0873699085757973
24.060868,6.353759763431982,0.0872382385192955
24.063268,6.350548853729936,0.0871479963434301
24.065656,6.345847699960671,0.0870934786544282
24.06804,6.341006776564544,0.0870463320174029
24.070436,6.337097018728197,0.0869931840076439
24.075204,6.3303937642125145,0.0869574344961346
24.0776,6.331372151600536,0.086906502551203
24.079988,6.334864496414173,0.0868539458842622
24.082372,6.339427776414448,0.0867891200098958
24.084768,6.347855488280695,0.0866952895488607
24.087156,6.357493904960441,0.0865821956277123
24.08954,6.372859084625717,0.0864312580102601
24.091936,6.395021962463163,0.0862320724929268
24.094324,6.417184840300608,0.0860358078637965
24.096708,6.446936812243141,0.0857947069506203
24.099104,6.47841134567837,0.0855526520194524
24.101492,6.5114686709794345,0.0853135488205091
24.103876,6.546388327400057,0.0850663970430886
24.106272,6.582518688634178,0.084798584348325
24.10866,6.622793020987992,0.0844893783321322
24.11104,6.668282259648138,0.0841279675037266
24.11344,6.716844534241341,0.0837402101903313
24.115828,6.76754867920782,0.0833316822894766
24.118212,6.81718188898766,0.082936520296213
24.120608,6.863369975782108,0.0825504072309856
24.122996,6.910908537016915,0.0821392822193808
24.12538,6.95351173119911,0.0817707787499002
24.127776,6.990527932022634,0.0814349007557204
24.130164,7.024750636166824,0.0811146771153365
24.132544,7.059904505870793,0.080793944733154
24.13494,7.094918605947899,0.0804823386741546
24.137332,7.1232747774797005,0.0802117615646074
24.139712,7.143902085279552,0.079992640868695
24.142108,7.159454256399933,0.079814687482239
24.144496,7.165275463041949,0.0797002776119111
24.14688,7.170305273751048,0.0795844756853068
24.149276,7.1751027670346685,0.0794410258117195
24.151664,7.178037929198734,0.0793065500787521
24.154048,7.184977292855631,0.0791433607443354
24.156444,7.190194095019832,0.0789827939411716
24.158832,7.19275717013156,0.0788290600860612
24.161212,7.190943956698115,0.0786829946787136
24.163608,7.19034144807817,0.0785215708997669
24.165996,7.190158248338804,0.0783415505513406
24.16838,7.193839480465413,0.0781408663780653
24.170776,7.19873141740552,0.0779252520798672
24.173164,7.206696390278681,0.0776869678475066
24.175548,7.216523694271402,0.0774415959020619
24.177948,7.228213329383677,0.0771891999092903
24.180336,7.236318071883701,0.0769462718998155
24.182716,7.242700252891026,0.076704718726104
24.185116,7.25094476501791,0.0764555479198617
24.187504,7.262122543450989,0.0761895821264055
24.189888,7.279586163377037,0.0758722565842844
24.192284,7.306408660729114,0.0754822461216999
24.194672,7.331229057334774,0.0751061887636253
24.197052,7.35791178505999,0.0747261368010798
24.199452,7.384874052038926,0.0743351388426286
24.201836,7.408111656778748,0.0739603935553413
24.20422,7.43269973595893,0.0735667866364487
24.206616,7.460221081445307,0.0731613872704232
24.209008,7.490396153984157,0.0727533668996383
24.211388,7.517358420963093,0.072375834300361
24.213788,7.546043249434725,0.0720007150147556
24.216176,7.569932480480607,0.0716483842241689
24.21856,7.59088844522029,0.0713124493056226
24.220956,7.607700438840282,0.0710062883068174
24.223344,7.626142446154352,0.0706708895870473
24.225728,7.643001661602588,0.0703302728337643
24.228136,7.6629339129838785,0.0699715167030516
24.230524,7.685799430671363,0.0696005038531168
24.232908,7.709084257239429,0.0692134320211143
24.235308,7.731298148620855,0.068836018514891
24.237692,7.750439004069228,0.0684807017578329
24.240076,7.761152147651352,0.0681871659612537
24.242472,7.771865291233476,0.0678931153700147
24.24486,7.777782837389849,0.0676173372988612
24.247244,7.780767117240026,0.0673539838855225
24.24964,7.784123484142539,0.067110783290891
24.252028,7.783987506231418,0.0669032699974781
24.254412,7.775703355707769,0.0667429351224639
24.256808,7.766488039624341,0.0665849885447165
24.259196,7.753408291674939,0.0664415077527065
24.261576,7.738466212605981,0.0663026542196289
24.263976,7.726457399843218,0.0661506927573756
24.266364,7.716171148573152,0.0659996871771081
24.268748,7.7090977028630014,0.0658245858076338
24.271144,7.69424817159266,0.0657158323367988
24.273532,7.684194237748071,0.0655901540585137
24.275916,7.669856563156927,0.0654954809444527
24.278316,7.65151468707295,0.0654202347687586
24.280704,7.635686768414589,0.065349414732199
24.283084,7.619998619383087,0.065272684879615
24.28548,7.603239535164946,0.0652032359036766
24.287868,7.590903961320221,0.0650972549743669
24.290251999999995,7.581641423408548,0.0649739503144629
24.292648,7.578105648482408,0.0648331518952859
24.295036,7.580156866914939,0.0646808255490237
24.297419999999995,7.584909034228187,0.0644919374041184
24.299816,7.589661201541433,0.0643020907134957
24.302204,7.6033529374001265,0.0640726931041063
24.304587999999995,7.617975838818597,0.0638422964557352
24.306984,7.637673876916541,0.0635852948955385
24.309372,7.657371915014484,0.0633290512094121
24.311755999999995,7.676790413858708,0.0630853954029896
24.314152,7.6946261208370945,0.0628349153330543
24.31654,7.709388791882426,0.0626011347208952
24.318924,7.733650109980642,0.0623072001575048
24.321324,7.753767456959167,0.062039358353269
24.323712,7.776166443937829,0.061751416481497
24.326092,7.801358927595825,0.061458479351531
24.328488,7.820824648268291,0.0611816767640341
24.330876,7.83735710263456,0.0609147691089392
24.333256,7.856310966627828,0.0606235654788095
24.335652,7.8728434209941,0.0603583195969699
24.33804,7.886442609054177,0.0601043311343716
24.340424,7.8961773652482785,0.0598631134931917
24.34282,7.905260495136323,0.059614648690592
24.345208,7.909268488344895,0.0593897675731453
24.347588,7.920773027859937,0.0591192107301157
24.349984,7.925619638829671,0.0588640000715935
24.352371999999995,7.928883457933569,0.0586010265858646
24.354756,7.935220312970522,0.058326001106043
24.357152,7.939974376141638,0.058042521624512
24.35954,7.942354251514,0.0577465251114437
24.36192,7.943663191699724,0.0574562256776589
24.36432,7.949395642258861,0.0571356252402537
24.366708,7.950332495392248,0.0568271951279251
24.369088,7.948895160726879,0.0565049980293965
24.371484,7.947457826061512,0.0561830830526434
24.373872,7.944577469157168,0.0558473860426646
24.376256,7.944909917812739,0.0554923380340764
24.378651999999995,7.949386337588004,0.0551176253731896
24.381044,7.952512282922911,0.0547605769697745
24.383424,7.957268241951897,0.054376505317
24.385819999999995,7.96323490579438,0.0539813524704339
24.388208,7.969201569636864,0.0535856982367396
24.390588,7.971164031986516,0.0532038373554861
24.392984,7.971776019895807,0.0528354044639231
24.395372,7.9638205263119906,0.0525152801650595
24.397756,7.960800399780784,0.0521813918577321
24.400148,7.956429798809221,0.0518628689428197
24.402536,7.943119629292212,0.0515698053472534
24.404936,7.931252482014178,0.0512907004692365
24.407332,7.92161975290804,0.051030812477902
24.40972,7.916782621227653,0.0507637320238137
24.4121,7.906451043987213,0.0505298461294201
