Time,Force,Position
3.798228,5.892914400880476,0.1604306699620162
3.800571999999999,5.9100455721509535,0.1602766672088236
3.802911999999999,5.930110009727627,0.1600636330765486
3.805256,5.958974246222885,0.1596655140211857
3.807599999999999,5.989700813837702,0.1592327541006866
3.809936,6.013909222534069,0.1589246368602947
3.812268,6.039328336043935,0.1585859203891943
3.814608,6.062605579180524,0.1583000515748579
3.816951999999999,6.086953757503751,0.1579910537103177
3.819291999999999,6.115306137319813,0.1576031382668006
3.821636,6.139933854896761,0.1572789299029135
3.823979999999999,6.17126672284726,0.1567879355710987
3.826328,6.200877029305062,0.1563231413425788
3.8286599999999993,6.235050615763139,0.1557406274307184
3.831004,6.265918848862684,0.1552000083929744
3.833347999999999,6.288266822297364,0.154818504946763
3.835683999999999,6.312105039799263,0.1543831513756746
3.838023999999999,6.336362566181742,0.1539221549462014
3.840368,6.359037300698386,0.1534793364419367
3.842711999999999,6.378918538535694,0.1530879374471373
3.845063999999999,6.401221185999999,0.1526307671183585
3.847412,6.419938940852052,0.1522289779355308
3.849751999999999,6.43465249421127,0.1519079389258639
3.852108,6.446293011637434,0.1516540086116966
3.854452,6.458352837944177,0.1513761078581512
3.8567959999999992,6.47241476499734,0.1510580799200953
3.859136,6.480889698691831,0.1508309617144016
3.861476,6.4907151068266815,0.1505627752485726
3.8638239999999993,6.496396543841837,0.1503807806121744
3.866164,6.49821354899102,0.1502691620790883
3.868508,6.507107791566092,0.1500196747617324
3.870856,6.506643156715138,0.149963908146904
3.873199999999999,6.509623644849577,0.1498667288419573
3.875551999999999,6.508739701118041,0.1498367050783003
3.8778919999999992,6.510649254065841,0.1497633958503028
3.880236,6.515212534066117,0.149654519481892
3.882588,6.521498375559088,0.1495257694807556
3.884924,6.528435843358117,0.1494001780750692
3.887267999999999,6.537235642276701,0.1492475095443307
3.889616,6.5449645060086485,0.149117133320087
3.891959999999999,6.553996622352711,0.1489934140398289
3.894304,6.56554269612239,0.1488442409804222
3.896647999999999,6.581092971384901,0.1486232164614254
3.898996,6.59906465627441,0.1483448486400161
3.901328,6.613543996350281,0.1481484437420952
3.903672,6.6278835667992935,0.1479604436518072
3.90602,6.647530591353256,0.1477053452633709
3.90836,6.669179716653634,0.1474180464727253
3.9107,6.695252352327427,0.1470348295368695
3.913039999999999,6.721045448747499,0.1466679109776137
3.915388,6.739853855540299,0.1464654647932533
3.917728,6.765180421251548,0.1461642836928643
3.9200719999999993,6.788132799164043,0.1458839334137711
3.922419999999999,6.815601235248569,0.1455470306757207
3.924764,6.843721297639153,0.1452185496127131
3.927104,6.87528648301513,0.1448563654286674
3.929444,6.907782833950886,0.1444865875605957
3.931787999999999,6.941769428953863,0.1440782296288504
3.934128,6.974173232091,0.1436853111122808
3.936468,7.014026359706366,0.1431989571304659
3.938808,7.048944120269118,0.1427898018259769
3.941156,7.086143520832009,0.1423395817393712
3.943496,7.121340820648483,0.1419257613250528
3.945840000000001,7.149972739718267,0.1416375894969909
3.948176,7.185402356960217,0.141251294956523
3.950512,7.221483600508228,0.1408681031545938
3.952855999999999,7.25691321775018,0.1404865729924822
3.955195999999999,7.290200964618854,0.1401479173997238
3.957544,7.323069402606947,0.139835628656065
3.959883999999999,7.359942042087876,0.1394658576372807
3.962223999999999,7.403519831942353,0.1389680491080811
3.9645639999999993,7.447936239557995,0.1384345434070244
3.966908,7.491933338293054,0.1379249159716418
3.969248,7.530995069975503,0.1374894174356235
3.9715919999999993,7.566983765724896,0.1371045937198157
3.973936,7.597665007369338,0.1367740842643744
3.976279999999999,7.624342047520945,0.1365035815223566
3.97862,7.649808382859055,0.1362624360888521
3.980955999999999,7.67792844524964,0.1359998812774119
3.983291999999999,7.696876621669301,0.1358407929131426
3.98564,7.720108538835518,0.1356105094362439
3.987983999999999,7.737473923389343,0.135459432350842
3.990335999999999,7.754979077570028,0.1353021032313921
3.992676,7.777699138057045,0.1350622719062641
3.99502,7.795623601118311,0.1348850780525093
3.997359999999999,7.811825502686879,0.1347216541348695
3.999704,7.825373677202974,0.134583686797535
4.016116,7.851629512616131,0.1344538913225811
4.018464,7.853352074108828,0.1344401874177766
4.020811999999999,7.858799297840638,0.1343856092815083
4.023152,7.86946142787878,0.1342538741627885
4.027839999999999,7.875327960491171,0.1341793637352135
4.03018,7.879844018663201,0.134135336511867
4.032524,7.8834289112754545,0.1341017847904455
4.034863999999999,7.890878235753681,0.1340212605635768
4.037212,7.899538265045407,0.1339181977257796
4.039551999999999,7.907546668031074,0.1338126766144487
4.041891999999999,7.916905545457101,0.1336778205313535
4.04424,7.929477228443043,0.1334941007152491
4.046579999999999,7.941909141802124,0.1333163789443822
4.048924,7.95140778885501,0.1331744660657719
4.051264,7.960254809601839,0.1330291447422926
4.053611999999999,7.965516937736416,0.1329160735218414
4.055956,7.974923036990684,0.1327417144909985
4.058299999999999,7.985959149939033,0.132523533492506
4.060647999999999,7.993642687700606,0.1323629381518335
4.062984,8.000814368782981,0.1321929089053377
4.065324,8.004401157253103,0.1320563897844014
4.067667999999999,8.002540721991416,0.1319728944516671
4.070012,7.995884689303978,0.1319458120708565
4.072355999999999,7.996445663669288,0.1318163939750558
4.074695999999999,8.000219443594514,0.1316373280612747
4.077043999999999,8.00334159721368,0.1314557428594569
4.079383999999999,8.007022829340288,0.1312487347477518
4.081728,8.007119168854643,0.1310739262438786
4.084068,8.004282242062805,0.1309348304357556
4.086411999999999,7.998651818591631,0.1308244315251548
4.088752,7.993161164747316,0.1307075035474176
4.091096,7.985947949410305,0.1306029604412743
4.093435999999999,7.980736834819711,0.1304730572876065
4.095784,7.98074062653545,0.130270427241712
4.098127999999999,7.986750720490439,0.1299943152510862
4.100467999999999,7.9974166422443185,0.1296708161035705
4.102812,8.009293268811698,0.1293262846188432
4.105164,8.019959190565578,0.1290039095844487
4.107512,8.033465830827035,0.1286189640303278
4.109848,8.04883480220805,0.1282180718395095
4.112192,8.066345643962341,0.1277861192809553
4.114531999999999,8.09279605426208,0.127249487418849
4.116876,8.118455068628899,0.1267136910239399
4.119216,8.141180816689525,0.1262174074310978
4.121556,8.161113068070813,0.1257479653983563
4.123904,8.179322757959406,0.1252910140751109
4.126248,8.196042203780781,0.1248700324014451
4.128587999999999,8.21611422478893,0.1243982636906946
4.130932,8.23660555467766,0.1239072552537175
4.133272,8.26310318680564,0.1233488963637075
4.135615999999999,8.287878257440926,0.1228034980363824
4.137952,8.314515659195768,0.1222445570505052
4.1403,8.342783074644688,0.1216510301659628
4.14264,8.368396763041133,0.1210811238091578
4.144983999999999,8.387864379571468,0.1205896053942978
4.147323999999999,8.408030844236102,0.1200707467078999
4.149668,8.428337078527596,0.1195489898871554
4.152011999999999,8.44985401763259,0.1190073867120818
4.154356,8.470811878230146,0.1184933668269567
4.156704,8.486974141401948,0.1180247340711224
4.159048,8.500714994946751,0.1175951727736835
4.161391999999999,8.508449546252306,0.1172330205995303
4.163736,8.518186198304276,0.1168492326715739
4.166076,8.524710044796333,0.116506177917981
4.168419999999999,8.53388761834086,0.1161460652236511
4.170764,8.543716818191449,0.1157902995402411
4.173107999999999,8.550612751735839,0.1154622045081413
4.175447999999999,8.55708937639965,0.1151535763838503
4.177792,8.564869253675578,0.1148540870381825
4.180132,8.567014915764593,0.1146349366937102
4.18248,8.569392895279083,0.1144378764916314
4.184816,8.567626903673881,0.1142884694501724
4.187156,8.5642308983746,0.1141763609780112
4.189499999999999,8.560275814567879,0.1140877535195473
4.191848,8.556180961134297,0.1140049012210406
4.194184,8.551107720312693,0.1139631685246315
4.196524,8.546546336170287,0.1139316452557632
4.198872,8.544498909453496,0.1138903403474885
4.201207999999999,8.542171943482986,0.1138606531628275
4.203564,8.546223366804062,0.1137876405971443
4.205904,8.55693271867045,0.1136605164806805
4.208252,8.571087193522226,0.1135178055105827
4.210592,8.586684690612978,0.1133793749587044
4.212935999999999,8.604284288450152,0.1132210089274949
4.215287999999999,8.620021555167765,0.1130766853980918
4.217628,8.635479282631659,0.1129438113942777
4.219968,8.656663773081082,0.1127640899044812
4.222311999999999,8.677289185023065,0.1126079263652588
4.224656,8.700847863271244,0.1124275684396653
4.226991999999999,8.727619347079338,0.1122100952003634
4.229331999999999,8.754530600514293,0.1119867422267966
4.231676,8.786516990628721,0.11171374776893
4.234024,8.817292675929647,0.1114593320107038
4.236364,8.851141397163628,0.111175592676463
4.238704,8.887923384703809,0.1108670497023336
4.241047999999999,8.925636537803765,0.1105531019714986
4.243399999999999,8.964932482769559,0.1102408080870392
4.245747999999999,9.003297262175574,0.1099386182330346
4.248084,9.04073087602181,0.1096434791299997
4.250435999999999,9.076162389121627,0.1093702531223799
4.25278,9.106798304795698,0.109136829430036
4.25512,9.132638623044013,0.1089404773071849
4.257463999999999,9.159549876478966,0.1087345787349141
4.2598,9.189114856966391,0.1085169222514093
4.262148,9.225337765999132,0.108253971861975
4.264488,9.266775581338202,0.1079426157275737
4.26684,9.307142461490631,0.1076456769922391
4.269183999999999,9.345926549777229,0.1073495694686589
4.271523999999999,9.376981774331878,0.1071117746783073
4.273876,9.407105833326748,0.1068816150592111
4.276211999999999,9.44123409381445,0.1066196328513652
4.278559999999999,9.472009779115377,0.1063977944939372
4.280908,9.503856399602943,0.1061651520366507
4.283244,9.532629984157456,0.1059618331553788
4.285584,9.561403568711969,0.1057603762787881
4.287927999999999,9.587663195840864,0.1055660366827586
4.290272,9.60861536886481,0.1053960599003933
4.292619999999999,9.62756544114234,0.1052431764774321
4.29496,9.647306909352787,0.1050899277420587
4.297307999999999,9.665325816070538,0.1049434154008947
4.299652,9.681342622041877,0.1048126459785123
4.301992,9.70429689581224,0.1046282606264626
4.30434,9.725388838463047,0.1044564749944991
4.306676,9.741824953314966,0.1043125621777475
4.30902,9.750671974061795,0.1042185665748041
4.311363999999999,9.752581527009596,0.1041780410590324
4.313711999999999,9.751045956972002,0.1041490803572904
4.316051999999999,9.751652257307684,0.1040993293272117
4.318396,9.758264859882615,0.1040020492943601
4.320748,9.764877462457552,0.1039051248157108
4.323088,9.768696568353151,0.1038249051988723
4.325427999999999,9.77558871018181,0.1037192767987074
4.327772,9.782760391264189,0.1036041325422259
4.330112,9.78914067641364,0.1034891801134377
4.332455999999999,9.793518860816684,0.103389916607555
4.3348,9.79989914596614,0.1032754425799022
4.33714,9.809212697421792,0.1031404741349863
4.33948,9.819876723317805,0.1029859438726998
4.341823999999999,9.831099827721255,0.1028123229178125
4.344163999999999,9.843393867311343,0.1026291542001325
4.346508,9.863975849140822,0.1023775923241636
4.348851999999999,9.87803967205185,0.1021626214591265
4.351196,9.891451868656825,0.101943600195867
4.353536,9.909147806008349,0.1016857986155878
4.355876,9.927635139292793,0.1014270075551841
4.358219999999999,9.948124573323652,0.1011528263584556
4.360564,9.974340770340046,0.1008455008157675
4.362904,10.000696736983295,0.1005350258971321
4.365255999999999,10.027192473253413,0.1002222609238322
4.367604,10.052105417657687,0.0999102345347178
4.36994,10.072362534263071,0.0996217802534393
4.372283999999999,10.090245463069705,0.099335073867914
4.374628,10.10826816150319,0.0990449214923322
4.376968,10.12643062956354,0.0987496670589667
4.379311999999999,10.143010305758056,0.0984538695117733
4.381648,10.158658816392792,0.0981636127753851
4.383996,10.174586866281247,0.0978652182999186
4.386343999999999,10.189583750609923,0.0975724916378033
4.388688,10.202718303819047,0.0972896138937616
4.391031999999999,10.214130295535472,0.0970116474796127
4.393376,10.217533884266231,0.0967902303371708
4.395716,10.222799804116544,0.0965595714607346
4.398052,10.22778618471314,0.09633852496534
4.400399999999999,10.23235325642915,0.0961326417591309
4.40274,10.240272903331938,0.0958953528414971
4.405084,10.250334420608004,0.0956408315977463
4.407432,10.256531506018094,0.0954096285563043
4.409775999999999,10.259655555495131,0.0952005306985228
4.41212,10.260777504225754,0.0950051476445392
4.41446,10.263342475195351,0.0948151831290274
4.416808,10.271354669896755,0.0946041462751197
4.41916,10.279087325344443,0.0944026889596561
4.4215,10.281884613739516,0.0942311119281279
4.423843999999999,10.285473298067508,0.0940598768314491
4.426192,10.291855479074837,0.0938760459865341
4.428528,10.300239760828577,0.0936799618137915
4.430868,10.306342402582182,0.0935062169991328
4.433207999999999,10.31337620989557,0.0933288592708116
4.435556,10.32213257870165,0.0931481945294394
4.437892,10.33060940825401,0.0929765292486172
4.440235999999999,10.341367877806508,0.0927829442584629
4.442584,10.353337052172504,0.0925768658194115
4.44492,10.361581564299383,0.0923862057465677
4.447275999999999,10.365310018254236,0.0922111434891543
4.449615999999999,10.367967537022452,0.0920454185209592
4.45196,10.36783155911133,0.091891900399229
4.4543,10.365833250080652,0.0917460727921698
4.456643999999999,10.370912178475862,0.0915553102298394
4.458995999999999,10.376270646124796,0.0913557949387052
4.461335999999999,10.38046563078847,0.0911416529693508
4.46368,10.38200688839967,0.090934826942772
4.466023999999999,10.382616980451091,0.0907317602813766
4.468359999999999,10.392166641047956,0.0904770614990479
4.470696,10.403066776085184,0.09020579614683
4.473039999999999,10.411313184069936,0.0899413959625639
4.475384,10.416905865002214,0.0896843809494942
4.477724,10.424780185934631,0.0894069174179146
4.480067999999999,10.431583571680408,0.0891381808461016
4.482412,10.439457892612822,0.0888625131642939
4.48476,10.448542918358736,0.0885743922269828
4.487095999999999,10.460561210410845,0.0882727900098378
4.48944,10.471508567276317,0.0879800235316071
4.491783999999999,10.487531060821258,0.0876560785596218
4.494123999999999,10.505415885485755,0.0873241924144452
4.496468,10.522090005336755,0.0870054417746129
4.498808,10.539555521120676,0.0866878524186739
4.501151999999999,10.560885468770568,0.0863526341770153
4.503496,10.574207013434794,0.0860637776358653
4.505844,10.589251119591715,0.0857738044744138
4.508184,10.604667312800974,0.0854982506111009
4.510524,10.623156541943288,0.0852049256916857
4.512867999999999,10.641506001458742,0.0849156745972867
4.515212,10.652498684294583,0.0846768194127893
4.517555999999999,10.66335159750357,0.0844433079720088
4.519888,10.677789403324809,0.0842016291864302
4.522236,10.694741166571658,0.0839598065654643
4.524576,10.709271520191512,0.0837419442373705
4.526928,10.723522334557645,0.0835328618671919
4.529271999999999,10.732837781871163,0.0833482346813793
4.531611999999999,10.744015560304245,0.0831581308682137
4.533956,10.749978432430987,0.0830011430768669
4.536292,10.756872470117512,0.0828415243977921
4.538639999999999,10.763347198923457,0.0826952140522245
4.540984,10.775036834035737,0.0825179143681986
4.543324,10.785143677282177,0.0823379827269896
4.545676,10.79739239090189,0.0821444893557718
4.548019999999999,10.808849708588689,0.0819507884361674
4.55036,10.822588666275625,0.0817382342448881
4.5527,10.834325523216144,0.0815364382961789
4.555052,10.84848378978366,0.0813130899526677
4.5574,10.8617108907914,0.081093865483325
4.559735999999999,10.876008926985778,0.0808677177725242
4.56208,10.89393907762065,0.0806083969540384
4.564423999999999,10.912800393815305,0.0803477513295218
4.56676,10.93007891814412,0.0800853966699245
4.569108,10.94349301060696,0.0798382001321655
4.571451999999999,10.959328512696798,0.0795694985960422
4.5738,10.97572309329408,0.0792846904445622
4.576136,10.995190709824412,0.0789832135425302
4.578479999999999,11.010793894488774,0.0786969531007379
4.580828,11.028259410272693,0.0784050524459605
4.583155999999999,11.043722825310196,0.0781230197968248
4.5855,11.061747419601552,0.0778170984062196
4.58784,11.074277568332862,0.0775498767798607
4.590188,11.09146354486306,0.07727085108228
4.592523999999999,11.10650765101998,0.0770060325834954
4.594868,11.119270117176765,0.0767587305069596
4.597216,11.13547770631894,0.0765107355551758
4.599551999999999,11.149543425087838,0.0762753807833254
4.601896,11.16025656866996,0.076064078530411
4.604239999999999,11.171761108185004,0.0758554842303569
4.606588,11.183545186953769,0.0756392727344821
4.60892,11.19612066165545,0.0754259888617408
4.61126,11.205623100424072,0.0752279921526108
4.613603999999999,11.217779266245174,0.0750281923140175
4.615936,11.232868698372473,0.0748177332436801
4.618283999999999,11.247818360872904,0.0746121866488735
4.620623999999999,11.260626153000064,0.0744189959193658
4.622971999999999,11.27422534106014,0.0742281104911923
4.625311999999999,11.292620126545966,0.0740230880577335
4.627656,11.309152580912237,0.0738221330835198
4.630004,11.327547366398068,0.0736172398591276
4.632344,11.34044770632384,0.0734472035161198
4.634687999999999,11.355629686249753,0.0732613914593249
4.637032,11.364805363936412,0.0731000930227819
4.639372,11.371047775316878,0.0729486847896804
4.641712,11.375427855577788,0.0728009926957483
4.644055999999999,11.378085374346,0.0726541820576283
4.646395999999999,11.385957799420549,0.0724817313147888
4.64874,11.39583232524151,0.0723014465872199
4.651083999999999,11.401562879942778,0.0721411505953428
4.653423999999999,11.408876226509884,0.0719851792040156
4.655776,11.411905832330431,0.0718528799637224
4.65812,11.416006373337622,0.0717146802186043
4.660468,11.41424038173242,0.0715961371782054
4.662811999999999,11.41061205900766,0.0714815171569646
4.665151999999999,11.406843966656044,0.0713709549418263
4.667496,11.409873572476595,0.071239688762919
4.669839999999999,11.413974113483784,0.0711031775011107
4.672191999999999,11.417143488931192,0.0709692633875933
4.674524,11.426179396990994,0.0708171799285444
4.676872,11.434144369864155,0.0706709841126502
4.679212,11.446253313857014,0.0705063444471149
4.681555999999999,11.457431092290092,0.0703439827436511
4.683895999999999,11.473823777029503,0.0701577202931788
4.68624,11.498224864754585,0.0699432271079296
4.68858,11.528352715465196,0.0697148817235651
4.690923999999999,11.558340796548942,0.0694913883108043
4.693272,11.586466546513137,0.0692731138726797
4.695611999999999,11.615663231663964,0.0690506719220111
4.697956,11.650074823121123,0.0688058202466718
4.7003,11.682763853085593,0.06856165383513
4.702643999999999,11.720667789356389,0.0682953829015913
4.704984,11.760853365627325,0.0680164224359984
4.707328,11.80704524413751,0.0677177635251186
4.709676,11.85831225932717,0.0674024834738917
4.712024,11.907205086718074,0.0670817812986685
4.714359999999999,11.947298115190392,0.0667868772064426
4.716704,11.986599747729793,0.066491733438192
4.719052,12.02310788358986,0.066202144341228
4.721396,12.054029026091255,0.0659225081740658
4.723739999999999,12.08737157821965,0.0656268325803955
4.726084,12.120993669601765,0.0653260884580215
4.728432,12.15782856654379,0.0650125808847925
4.730767999999999,12.19494300273954,0.0646945036985498
4.733108,12.22633067594976,0.0643900168598374
4.73546,12.255344161361224,0.0640803102695778
4.737791999999999,12.283706020466632,0.0637657451171897
4.74014,12.3109969443854,0.0634569890615254
4.742479999999999,12.335634141251695,0.0631493020077336
4.744828,12.356546675878873,0.0628475619782279
4.747164,12.38160318162575,0.0625327393445815
4.749504,12.402935025133509,0.0622236486434251
4.751859999999999,12.421054063081357,0.0619290603130648
4.754192,12.437310769909644,0.0616381623775626
4.756532,12.45063421043174,0.0613555535435053
