Time,Force,Position
3.484328,3.826134901804368,0.1798456078091377
3.4866719999999995,4.074653904558728,0.1766065560228924
3.4890159999999995,4.306555488579677,0.1743299644955029
3.491356,4.5240740720391095,0.1725742335891923
3.493708,4.734798749042112,0.1707677162521549
3.4960439999999995,4.938636971790066,0.1686807430273506
3.498391999999999,5.124926610244832,0.1669189502683793
3.500743999999999,5.297112787391801,0.1653605071824687
3.5030839999999994,5.452494554350255,0.1640860310448027
3.505424,5.595076112613031,0.1628775594390374
3.507776,5.722623044008228,0.1617713465169075
3.51012,5.836393275177593,0.1606575109004495
3.512464,5.928750490187796,0.1597693379850905
3.56402,6.097296969462796,0.1592260692757165
3.566363999999999,6.108004425471312,0.159105804615699
3.5687039999999994,6.1232279396518585,0.1589160392065292
3.571051999999999,6.141896576817801,0.1586777881321024
3.573403999999999,6.161636149170379,0.1584100212729801
3.575747999999999,6.18496061413521,0.1580897039594253
3.578092,6.2077260005926,0.1578072190255458
3.580436,6.232213948542687,0.1575090383202503
3.58278,6.255630961306136,0.1572333029372195
3.585116,6.285845672241753,0.1568316554655525
3.587464,6.31564107429679,0.1564523470453282
3.589815999999999,6.344225771538328,0.1561069550114008
3.59216,6.372810468779867,0.1557639982231317
3.594504,6.39860166934207,0.1554644051345426
3.596848,6.425463805090913,0.1551374572254588
3.599195999999999,6.454188271959312,0.1547848302850343
3.6015359999999994,6.484914839574129,0.1543964859590767
3.603876,6.5185746734951415,0.1539520781985722
3.606228,6.548370075550181,0.1535787474660777
3.608572,6.573789189060048,0.1532666668466019
3.6343479999999992,6.644729596195365,0.1530573339648334
3.636691999999999,6.6521789206735935,0.1529423385757765
3.639032,6.656834748472488,0.1528702719545298
3.641367999999999,6.669359209630186,0.1526593629201393
3.643712,6.684956706720943,0.1523910720137682
3.64606,6.693896275266387,0.1522304709515219
3.6484,6.701113282319136,0.1520915900244538
3.650744,6.707027036759769,0.1519491160832543
3.653088,6.715082661573677,0.1517617436709819
3.655423999999999,6.727002718253562,0.1515103710701706
3.65776,6.742926976426281,0.1511882370684755
3.660104,6.761132874599135,0.1508142115768255
3.662444,6.788138571690577,0.1502928086939305
3.664788,6.819288239901711,0.1496958631191432
3.667132,6.849786281806788,0.1491055882280369
3.669472,6.879353158152086,0.148530231376039
3.671816,6.909059804124245,0.1479501008304068
3.674152,6.939837385283042,0.1473514197595573
3.6764959999999993,6.970614966441838,0.1467601304195381
3.678839999999999,7.003674187600772,0.146119464497186
3.681183999999999,7.039946214319624,0.1454221837058213
3.683527999999999,7.068349607679666,0.144859683960627
3.685872,7.10289907290582,0.1441944158507675
3.68822,7.130790609586665,0.1436306894805042
3.6905639999999993,7.158821915894369,0.1430679082035021
3.692912,7.1943497685085465,0.142368939318824
3.695256,7.230157160376441,0.1416599929812216
3.6976,7.266755948177255,0.140950479985293
3.69994,7.308569642284402,0.1401625126807673
3.702284,7.349452170831771,0.1393925087609154
3.704628,7.385678871580247,0.1386838222417371
3.70696,7.422045341955583,0.1379732439024764
3.709307999999999,7.451334574905031,0.1373772576286238
3.7116599999999993,7.477550771921422,0.1368347576623821
3.714003999999999,7.501625098564536,0.1363325378694171
3.716352,7.524908029274732,0.1358336720198825
3.718696,7.547399564052013,0.1353407040554602
3.72104,7.567609458829153,0.1348917405659726
3.72338,7.585025856926959,0.1344778529948184
3.725732,7.603233650957683,0.1340631673137254
3.72808,7.622232840921327,0.1336514169129864
3.730415999999999,7.645748089056999,0.1331944313428337
3.732759999999999,7.6668419275656765,0.1327925032106942
3.735108,7.690729262753687,0.1323589475498986
3.737443999999999,7.711683331635503,0.1319667645858178
3.7397839999999993,7.728074120517045,0.1316604090576743
3.7421279999999992,7.741903730144727,0.1314087477350098
3.74448,7.753731239025992,0.1311846995948172
3.746815999999999,7.758062201600787,0.1310800571275134
3.74916,7.762393164175583,0.1309758896128969
3.751508,7.771240184922411,0.1308290339337555
3.753843999999999,7.779388357534938,0.1307164515864317
3.75618,7.788747234960962,0.1305797078101054
3.758524,7.797966342760128,0.1304498162235093
3.760871999999999,7.805974745745795,0.1303431251064908
3.7632119999999993,7.818778746157213,0.1301813504003613
3.7655559999999992,7.831303207314912,0.1300332858211193
3.767899999999999,7.844107207726328,0.129871078675884
3.770236,7.858494000003583,0.1297028635989916
3.786631999999999,7.863661684481671,0.1296626315945011
3.7889719999999993,7.866222863735529,0.1296103001705101
3.7913159999999992,7.874231266721198,0.1295079498957227
3.793668,7.884381540080143,0.129372637158424
3.796003999999999,7.890248072692535,0.1293016015329173
3.798348,7.894531813439089,0.1292371628596138
3.800699999999999,7.897232762319809,0.1291785137394798
3.8030399999999993,7.902587438253003,0.1290980642589827
3.805383999999999,7.909944214932611,0.1289925186059815
3.807727999999999,7.918232157172,0.1288771064397262
3.8100679999999993,7.9223761282916945,0.1288199151919071
3.812408,7.927451264971166,0.1287534656602035
3.814752,7.935040359076253,0.1286721336227821
3.817092,7.941698287621563,0.128600316181081
3.819436,7.953151813592623,0.1284757169425447
3.821776,7.964745109190543,0.1283439240284633
3.82412,7.98485866445333,0.1281220392669973
3.826464,8.004972219716114,0.1278991652552683
3.828803999999999,8.019079472739653,0.127752002693777
3.831152,8.034909287255884,0.1275924487609361
3.8334959999999993,8.048597231398839,0.1274656293445903
3.8358399999999993,8.060143305168516,0.1273711898048072
3.83818,8.067033551139303,0.1273237283384714
3.840527999999999,8.077788228976063,0.1272342080863217
3.8428679999999993,8.096830849052209,0.1270345995529304
3.845204,8.113452059501359,0.1268786029361324
3.847552,8.136219341816618,0.1266457960510164
3.849892,8.15912639375874,0.1264089361127909
3.852231999999999,8.178960409767805,0.1262116198549216
3.854576,8.201867461709925,0.1259768068334709
3.85692,8.227987319211962,0.1256989117414002
3.859259999999999,8.255317881527498,0.1254021941613217
3.861596,8.285069853470032,0.1250679862032286
3.863943999999999,8.315752990972342,0.1247259736457462
3.866287999999999,8.345225423661153,0.1244080092827662
3.868631999999999,8.375629021909745,0.1240809978447006
3.87098,8.401376792359443,0.1237992742301624
3.87332,8.431268533928836,0.1234682749388595
3.875664,8.465304246617924,0.1230843247299277
3.878004,8.497757167441172,0.1227047856994265
3.880352,8.530210088264422,0.1223252466689253
3.8827,8.563733944274313,0.1219324053974163
3.885039999999999,8.594324533978007,0.121568030471363
3.88738,8.61825719513639,0.1212687040824743
3.889732,8.63432122293597,0.1210550023441102
3.892067999999999,8.653877595549185,0.1207870748211925
3.894408,8.663423464430315,0.1206314037500392
3.8967519999999993,8.670175836632108,0.1205005141866495
3.8991,8.680141014393818,0.1203276012846888
3.901436,8.686521299543276,0.1201816642205069
3.90378,8.68810598726698,0.1200820467271151
3.924872,8.604735562630466,0.1200046927798126
3.927211999999999,8.595565572517412,0.1199808647903794
3.929556,8.586395582404357,0.1199568131463661
3.9319,8.582160959343913,0.1198832893102292
3.934236,8.58407240814958,0.1197411472861897
3.93658,8.589988058448084,0.1195568193082251
3.938923999999999,8.594832773559947,0.119386859831597
3.941271999999999,8.609408453150175,0.1191248083003895
3.943611999999999,8.623984132740404,0.1188622249193684
3.945956,8.636697481211074,0.1186158730297603
3.948296,8.651273160801303,0.1183552055980961
3.950639999999999,8.668642337070866,0.1180721874195334
3.9529799999999993,8.681215915914676,0.1178319979306535
3.955324,8.694720660318264,0.1175835302337858
3.957664,8.71623380770752,0.1172552367821093
3.9600079999999993,8.737467415843055,0.1169382263074754
3.962348,8.764707326217842,0.1165634225061531
3.964688,8.799164243645377,0.1161127234268022
3.967024,8.833109304393714,0.1156536972943819
3.969364,8.871477875515467,0.1151431241994814
3.971707999999999,8.90891528107744,0.1146433446561016
3.974047999999999,8.942488254773442,0.1141800637156721
3.976392,8.976480537350023,0.1137028876810322
3.978732,9.008098632127853,0.1132315723755453
3.981072,9.035432986159124,0.1128119723263664
3.983408,9.064769440936812,0.1123772482446236
3.985748,9.093314499781584,0.1119455119123696
3.988091999999999,9.116272565267684,0.1115564250841899
3.9904319999999993,9.14337460187348,0.1111272674986136
3.992772,9.17233896959883,0.1106874468740046
3.995115999999999,9.200372171764403,0.1102556001618153
3.997452,9.223609776504224,0.1098595136734673
3.999792,9.25057204348316,0.1094370421525275
4.002131999999999,9.279536411208516,0.1089970118266542
4.004476,9.30063214557506,0.1086274341369114
4.006816,9.321727879941603,0.1082571766303776
4.009159999999999,9.336957081695758,0.1079381416819646
4.011504,9.34389834121052,0.1077019110559592
4.013839999999999,9.349768665538647,0.107477263816947
4.016175999999999,9.350004774679862,0.1073213423482647
4.01852,9.348238783074663,0.1071829078550106
4.020863999999999,9.34819535296216,0.1070377594254995
4.023203999999999,9.348012153222792,0.1068983402419378
4.025548,9.34619893978935,0.1067910544947788
4.027888,9.345316891915685,0.1066776819278639
4.030231999999999,9.34229297366874,0.106587178967268
4.032576,9.33791858098144,0.1065183413854528
4.034923999999999,9.33526674978683,0.106442948514134
4.037259999999999,9.330193508965229,0.106400391032529
4.039604,9.32218700183743,0.1063803876304502
4.041947999999999,9.312969789896131,0.1063765938017549
4.044287999999999,9.311481441686784,0.1063159970129847
4.046639999999999,9.308130762357877,0.1062669361921763
4.048975999999999,9.303709147842332,0.106228825535722
4.051324,9.30329173481962,0.1061573606122192
4.053667999999999,9.30780968884952,0.1060474744385568
4.056012,9.314050204372116,0.1059316161684644
4.058352,9.324434691014408,0.1057772921095085
4.060695999999999,9.336401969522534,0.1056222183614115
4.063047999999999,9.3506508880308,0.105440376400296
4.065388,9.367041676912342,0.1052373449310709
4.067735999999999,9.380499199487687,0.1050562008320364
4.070083999999999,9.395399744302011,0.1048807486441681
4.07242,9.417657065795945,0.1046370990134853
4.074763999999999,9.44433789766329,0.1043483616256728
4.077108,9.46929616803794,0.104065933457974
4.079451999999999,9.495185603972368,0.103777646787798
4.081791999999999,9.520143874347015,0.1034955685925837
4.084136,9.542448417669192,0.1032244031352852
4.086488,9.566615292110924,0.1029427388031187
4.088824,9.59292403692593,0.1026404140785423
4.091164,9.61965209062152,0.1023277413366867
4.093516,9.649173640996445,0.1020001101875174
4.095859999999999,9.680557522490924,0.1016633735062595
4.098199999999999,9.707657663238852,0.101368014961111
4.100544,9.729962206561028,0.1011056186645235
4.102895999999999,9.75440862025648,0.1008251884238967
4.105232,9.777923868392154,0.1005508717980472
4.107575999999999,9.802649821341328,0.1002631249114358
4.109932,9.82630483910386,0.0999861969016647
4.112279999999999,9.850611483172452,0.099715912628617
4.114624,9.878922328733877,0.0994163970420936
4.116967999999999,9.904579447242828,0.0991281622435135
4.119315999999999,9.925021659445449,0.0988864201321272
4.121655999999999,9.940248965341732,0.0986895428110662
4.124,9.959061163850272,0.098479394864151
4.126352,9.981086167918724,0.0982420285892751
4.128688,10.004321876800676,0.0979913175040757
4.131028,10.033284348668165,0.097709179014248
4.133368,10.063457525349143,0.0974148380088992
4.135708,10.093630702030126,0.0971220425942003
4.138047999999999,10.117378267591276,0.0968861519668674
4.140396,10.140474206846372,0.0966468634042033
4.142736,10.159985253489213,0.0964210851904903
4.145087999999999,10.183780040878608,0.0961590423587251
4.147431999999999,10.2092973897607,0.0958932740482715
4.149772,10.228948206030395,0.0956639036236846
4.152112,10.248599022300096,0.0954350204162535
4.154452,10.264664945957543,0.0952194989847941
4.1568,10.281010408868712,0.0949950643707433
4.15914,10.294702144727408,0.0947795023741893
4.161492,10.306531549466545,0.0945733660181427
4.163835999999999,10.316638392712983,0.0943709084496302
4.166175999999999,10.325953840026504,0.0941680687205326
4.168523999999999,10.335409056966885,0.0939603404452996
4.170872,10.341279381295015,0.0937656023721762
4.17322,10.346498079317088,0.0935672454546538
4.175563999999999,10.34957490696588,0.0933865697948963
4.177908,10.348275446069502,0.0932179493447765
4.180248,10.343902949240068,0.093070866577381
4.182595999999999,10.339670222037496,0.0929194663670854
4.184931999999999,10.337858904461925,0.092741538376472
4.187267999999999,10.333114320580153,0.0925801374336786
4.189607999999999,10.33530720449741,0.0923777927912296
4.191956,10.335777526921976,0.0921793995929501
4.194299999999999,10.33359412229406,0.0919881215748482
4.19664,10.333412818412564,0.091783861194408
4.198987999999999,10.33216057934443,0.0915879468344528
4.201323999999999,10.331420196955492,0.0914012850619366
4.203663999999999,10.32867771382014,0.0912267763068775
4.206008,10.326866396244569,0.0910482642358903
4.208355999999999,10.326265783482487,0.0908570680637349
4.2107,10.329529602586389,0.0906460764802871
4.213043999999999,10.33493529206356,0.0904186610623614
4.215391999999999,10.343274247846928,0.0901758566669571
4.217724,10.352823908443796,0.0899204305910541
4.220067999999999,10.355947957920836,0.0897144437486433
4.222411999999999,10.360422481838231,0.0894911898221869
4.224752,10.364477696875046,0.0892812883503448
4.227095999999999,10.37067478228514,0.0890551121050848
4.229439999999999,10.375940702135454,0.0888331933058158
4.231787999999999,10.381066852358906,0.0886160281275077
4.234127999999999,10.392199304821611,0.0883644968144655
4.236468,10.397325455045063,0.0881493124252086
4.238812,10.403103231574576,0.0879399789680973
4.241151999999999,10.411674504783424,0.0877200900281981
4.243496,10.423039274671607,0.0874901954810282
4.245836,10.437616850119705,0.0872372736392468
4.248179999999999,10.456338396687494,0.0869581732077159
4.250524,10.4787846054944,0.0866658001525829
4.252864,10.502161979861082,0.0863708761688072
4.255207999999999,10.525259814974046,0.0860861923783846
4.257556,10.545424383780812,0.0858168995138009
4.259908,10.567171744453416,0.0855516041216782
4.262251999999999,10.587708400312518,0.0852996086363199
4.264596,10.609827848037458,0.0850510429609495
4.266948,10.63916430281515,0.084758452862809
4.269287999999999,10.66715028315248,0.0844824450070341
4.271631999999999,10.698209299422867,0.0841891913793569
4.273979999999999,10.72526411420042,0.0839172301476427
4.276315999999999,10.752970555284032,0.0836516012298663
4.278664,10.783889801927556,0.0833657516486559
4.281004,10.809454372637893,0.0831183809800572
4.283355999999999,10.834879173721363,0.0828750997231321
4.285699999999999,10.860164205177975,0.0826370309684236
4.288044,10.886380402194368,0.0823972939150427
4.290383999999999,10.91287613846448,0.0821510394984659
4.292732,10.940163270667512,0.0819083938951192
4.295075999999999,10.961583870258153,0.0816920620286161
4.297423999999999,10.982213073915874,0.0814756991468644
4.29976,11.004984147946873,0.0812469856294554
4.3021,11.027755221977872,0.0810192322303589
4.304448,11.050386526382011,0.0807954549583942
4.306779999999999,11.068082463733536,0.0805943194262178
4.309124,11.084195609219227,0.0803908369212792
4.311464,11.09844642358536,0.0801936016977024
4.313812,11.10962420201844,0.0800137278243796
4.316147999999999,11.126808282690767,0.0798066627631204
4.318487999999999,11.14199026261668,0.0796098085669156
4.32084,11.164389249595342,0.0793751830374507
4.323171999999999,11.19028058138764,0.0791147255079338
4.325516,11.212819337993162,0.078879470661684
4.327856,11.23763973459882,0.0786274833870998
4.330208,11.264741771204616,0.0783590784116421
4.332544,11.291471720758077,0.0780782407279386
4.334884,11.316758648072556,0.0777918421937432
4.337231999999999,11.339112309080845,0.0775178170857315
4.339567999999999,11.358812243036658,0.0772485721667629
4.341924,11.387731284791634,0.0769362541527942
4.344264,11.417721261733252,0.0766196084427631
4.346612,11.443986576435757,0.0763138127739723
4.348952,11.470671200018842,0.0759978349919426
4.351295999999999,11.499917002855785,0.075658913792016
4.353644,11.535728186439416,0.0752813922971001
4.355983999999999,11.57340170114261,0.0749005126502715
4.358323999999999,11.611634294353244,0.0745055767550307
4.360668,11.650146426817594,0.0741039861056461
4.363003999999999,11.68400273148305,0.0737161759682643
4.365339999999999,11.719209510588868,0.0733163292830098
4.367684,11.749201383388357,0.0729442158319178
4.370027999999999,11.771184853202175,0.0726043051871794
4.372367999999999,11.792656466336794,0.072255254279159
4.374707999999999,11.81240551797872,0.0719070979215872
4.377052,11.830292238501087,0.0715636277671209
4.379392,11.847619880516016,0.0712358211307115
4.381735999999999,11.865738918463864,0.0709110377825337
4.38408,11.885860057158126,0.0705794798263385
4.386428,11.90570165659867,0.0702560338373538
4.38878,11.917115544172963,0.0699748713314271
4.391123999999999,11.92759826618748,0.0696967312648405
4.393463999999999,11.94073471525447,0.0694177799354433
4.395808,11.950658358761546,0.0691553424683098
4.398148,11.960162693388035,0.0689049454094177
4.400496,11.962310251334925,0.0686888264260269
4.402839999999999,11.962595478162248,0.0684761636062848
4.405191999999999,11.9612506912955,0.0682834480054611
4.407531999999999,11.95748449480175,0.0681083864397791
4.409876,11.950505492748087,0.0679487801610379
4.412219999999999,11.944178117000485,0.0677952430179052
4.414552,11.936779806066236,0.0676465924146983
4.416895999999999,11.932035222184467,0.0674963665638628
4.419239999999999,11.927011099048975,0.067353286781148
4.421592,11.926642803712376,0.0672029222646753
4.423935999999999,11.92957986173431,0.0670578091672023
4.426279999999999,11.930794358263544,0.0669118850142157
4.42862,11.929727214792646,0.0667799771993933
4.430963999999999,11.929171928000942,0.0666578784077197
4.433312,11.930758511582518,0.0665259166630015
4.43566,11.931553699231172,0.0663912605505766
4.438003999999999,11.928856542066194,0.0662790674700554
4.440347999999999,11.923086348968162,0.0661785197038161
4.442695999999999,11.9211805877361,0.0660686720457043
4.445028,11.915922251317264,0.0659774936356951
4.447368,11.915319742697315,0.0658792230418002
4.449711999999999,11.918302126689628,0.0657792341820904
4.452051999999999,11.923007072174627,0.0656801217880717
4.454387999999999,11.933858089525742,0.0655586352223547
4.456732,11.951646574675886,0.0654172187890063
4.459079999999999,11.965151319079476,0.0652957335969196
4.461412,11.985593531282095,0.0651548037217296
4.463755999999999,12.010971110537325,0.0650008733307676
4.466095999999999,12.03914218647189,0.064843570671338
4.468443999999999,12.061027420913486,0.0647123908502666
4.470779999999999,12.081190093862382,0.0645809219300752
4.473123999999999,12.105077429050391,0.0644447321903264
4.475471999999999,12.13296896573124,0.0642971031100382
4.477807999999999,12.159929336852308,0.0641513196527904
4.480144,12.1835371327866,0.0640237837847909
4.482487999999999,12.216084497266335,0.063872321873314
4.484832,12.251984436932846,0.0637033124376833
4.48718,12.292679974025113,0.0635257540562481
4.489523999999999,12.331093871117236,0.0633617659930419
4.491872,12.375793609702336,0.0631741034516595
4.494215999999999,12.418910556421595,0.0629827256493301
4.49656,12.46109633758108,0.0627939531544095
4.4989,12.503561657994284,0.0625989071184651
4.501243999999999,12.540812072101158,0.0624242301202792
4.503583999999999,12.572707810274837,0.0622729771623167
4.505928,12.60795612363529,0.0621048275887412
4.508268,12.638269069943131,0.0619502431454576
4.510611999999999,12.664577814758143,0.0618075592905516
4.512951999999999,12.68995539401337,0.0616666219056156
4.515296,12.71668344770896,0.0615141851442387
4.517644,12.742620105471628,0.0613599455982266
