Time,Force,Position
4.269256,6.078187542383035,0.1581559205777964
4.271595999999999,6.109798053729387,0.1577854960029748
4.273932,6.138847385821878,0.157497073784772
4.2762720000000005,6.170410675339985,0.1571798275063134
4.278611999999999,6.201554655977514,0.1568863201639395
4.280951999999999,6.237354464413932,0.1565140018730674
4.283296,6.275156373596768,0.1561032007614974
4.285636,6.315612009832076,0.1556577566772259
4.287988,6.357418120507745,0.1551757958719533
4.290324,6.395779108198022,0.1547320419866824
4.292667999999999,6.42734239771613,0.1544236138083357
4.295007999999999,6.460907787980654,0.1540794393356085
4.297355999999999,6.497546214178232,0.1536695498503191
4.2997,6.536326510749092,0.1532119425567467
4.302044,6.577528216946948,0.1526954971455311
4.304383999999999,6.618218066465604,0.152176362704839
4.306723999999999,6.655275801543766,0.1517570609012162
4.3090720000000005,6.69089051438295,0.1513434040181736
4.311411999999999,6.722268708303825,0.1509807360150523
4.313768,6.749410383306389,0.1506676685242462
4.316108,6.764958762711033,0.1505598089128135
4.318451999999999,6.77878458062298,0.1504743282658866
4.320791999999999,6.792517850736308,0.1503542327633693
4.323136,6.805971581595918,0.1502515901687784
4.325483999999999,6.822638118015443,0.1500819664408172
4.327824,6.8354402225689945,0.1499780536193847
4.3301680000000005,6.846240226376128,0.1499110886949066
4.334852,6.861601614325669,0.1498612578401933
4.337199999999999,6.872960696640246,0.1497635348717012
4.33954,6.884739087835401,0.1496410987401586
4.341887999999999,6.893072356045164,0.1495589411369992
4.344236,6.901685163508648,0.1494616836173847
4.346568,6.91150867578563,0.1493365331739355
4.351251999999999,6.920446348473207,0.1493014280304379
4.353588,6.926405428884215,0.1492393161833878
4.3559280000000005,6.93436661004164,0.1491432917663796
4.358272,6.942979417505122,0.1490490002771262
4.360616,6.953734095341882,0.1489120830734648
4.362959999999999,6.968632744298335,0.1486962045370575
4.365304,6.986883968441563,0.148413258392183
4.367647999999999,7.006857754077491,0.1481149677107703
4.369987999999999,7.026599222287939,0.1477930421961854
4.372332,7.046200920871527,0.1474821945669028
4.374675999999999,7.067664950574672,0.1471449889166986
4.3770240000000005,7.0909913113973735,0.1467831046649044
4.379363999999999,7.118042334459187,0.1463765279402789
4.381703999999999,7.147235227894281,0.145930213998101
4.384055999999999,7.175496955769593,0.1455012171027535
4.386388,7.205900554018183,0.1450351921526071
4.388736,7.235652525960716,0.1445654452198114
4.391079999999999,7.266894741970468,0.1440607329358497
4.393428,7.295623000554605,0.143582661047175
4.395768,7.32677266876574,0.1430507433649095
4.398111999999999,7.357782567350013,0.1425249923831165
4.400468,7.388792465934287,0.1420047592884016
4.402808,7.42101306933206,0.1414655004732386
4.405151999999999,7.454444377543331,0.140899457124821
4.407492,7.489458477620439,0.1403287291156543
4.409839999999999,7.524891886578128,0.1397401383689345
4.412179999999999,7.5524566621770095,0.1392685996484692
4.414524,7.576576314790497,0.138831209530253
4.41686,7.599764801844208,0.1384073406638116
4.4192,7.621230727405222,0.1380009773203486
4.421543999999999,7.6429761922199555,0.137582043601861
4.423888,7.663138865168854,0.1371729774234603
4.426228,7.676643609572444,0.1368511506725282
4.428571999999999,7.69201068509559,0.1365105605183465
4.43092,7.707377760618736,0.1361720424410294
4.433256,7.718740634649049,0.1358910490796801
4.435599999999999,7.733036774985557,0.1355718476425811
4.437939999999999,7.741838469762011,0.1353486071084519
4.440284,7.751152021217665,0.1351361896438194
4.442639999999999,7.760186033419597,0.1349385360237407
4.4449760000000005,7.770710289688748,0.1347032393928738
4.447324,7.783236646704316,0.134443360239777
4.449667999999999,7.790408327786691,0.1342696559394325
4.452012,7.801025131854459,0.1340700093641285
4.454355999999999,7.808568899989171,0.1339147366826055
4.4567,7.8136912584968865,0.1338068657445519
4.459035999999999,7.823097357751156,0.1336310248159677
4.461371999999999,7.834226018498122,0.1334419367188436
4.46372,7.845075139991368,0.1332665680530813
4.466063999999999,7.853922160738198,0.1331177274211802
4.468408,7.862769181485027,0.1329696729115168
4.470751999999999,7.873618302978271,0.1327957382638876
4.473091999999999,7.885258820404434,0.1326172557927645
4.475444,7.890893035591347,0.1325196961917985
4.477779999999999,7.895176776337902,0.132452591817368
4.480127999999999,7.900251913017374,0.1323816300945509
4.510612,7.8822840198436035,0.1323754437150788
4.512955999999999,7.882051702418126,0.1323520927767889
4.5153,7.882750550552427,0.1323190481511018
4.517636,7.881307528313451,0.1323187059114008
4.519976,7.882797772380671,0.1322826986107854
4.522323999999999,7.888943844246781,0.1321979126527517
4.524664,7.896160851299531,0.1320969246174686
4.527008,7.906311124658475,0.1319603471573537
4.529347999999999,7.913388362084365,0.1318661130137061
4.531692,7.924330031376227,0.1317277560939412
4.534036,7.939927528466981,0.1315417289326622
4.536379999999999,7.958970148543128,0.1313303691324536
4.538727999999999,7.976290207126579,0.1311318529426077
4.541067999999999,7.998266093508921,0.1308832752053851
4.543415999999999,8.020102210264403,0.1306425665393347
4.545755999999999,8.046733924445636,0.1303480779560381
4.548095999999999,8.069221667507177,0.1301128949222867
4.550431999999999,8.089427770568578,0.1299183656204302
4.552776,8.11070480881662,0.1297082082640077
4.555116,8.137988149303911,0.129423587078113
4.557459999999999,8.163269389044787,0.1291644359745107
4.559804,8.187479693599023,0.1289234649612859
4.562147999999999,8.207965335914146,0.1287200087562705
4.564487999999999,8.228450978229269,0.1285165525512552
4.566827999999999,8.247353828678555,0.128320049989994
4.569179999999999,8.265884592075505,0.1281089331923605
4.57152,8.282553024352898,0.1279160496659898
4.573872,8.298569830324233,0.1277210942820585
4.5762160000000005,8.317008045922565,0.1274827945182436
4.57856,8.328788332975588,0.1273144957885411
4.580904,8.337123497043219,0.1271702736777231
4.583243999999999,8.346157509245153,0.1269961075098226
4.585592,8.358124787753278,0.1267899143592334
4.587932,8.371722079955484,0.1265454598335834
4.590275999999999,8.385738681038273,0.126283730026818
4.59262,8.395751080628227,0.1260696244640192
4.59496,8.409116055404956,0.1258057724505026
4.597303999999999,8.422900339062267,0.1255245339006535
4.599644,8.438174866786794,0.1252123960034172
4.601996,8.449445193018489,0.1249480784655007
4.604343999999999,8.464859490369879,0.124633644607147
4.606679999999999,8.482275888467685,0.124299242956443
4.609024,8.502485783244826,0.1239400383908666
4.611371999999999,8.523906382835465,0.1235616483232637
4.613707999999999,8.545187212799245,0.1231898806497528
4.616047999999999,8.565257337949525,0.1228396023864518
4.618392,8.585467232726668,0.1224823948405579
4.62074,8.605397588250089,0.1221386718077749
4.623075999999999,8.626398878960146,0.1217836559356818
4.62542,8.650612975230121,0.1213855800218021
4.627768,8.673476597059738,0.1210117560233422
4.630103999999999,8.692987643702578,0.1206873080601115
4.632444,8.713569625532058,0.1203526329642443
4.634788,8.731869967361398,0.120053301184407
4.637136,8.745886568444185,0.1198082340397681
4.639467999999999,8.760322478407552,0.1195448018018701
4.641807999999999,8.770614417251227,0.1193308047189707
4.644159999999999,8.777973089788706,0.1191461543005306
4.646492,8.78090825195277,0.1190223854581975
4.648847999999999,8.783191787810777,0.11889453436705
4.662903999999999,8.721139935676938,0.1188940657609174
4.665248,8.711550636683302,0.118887956244674
4.669931999999999,8.688554828658305,0.1188775037881343
4.672276,8.67896552966467,0.1188701858281749
4.674619999999999,8.676872776977504,0.1187705465797967
4.676955999999999,8.677853060223393,0.1186375237168216
4.679295999999999,8.671616336416538,0.1185844869059083
4.68164,8.66537961260968,0.1185313855311085
4.683983999999999,8.665568499922651,0.1183999667520345
4.686328,8.66883042316868,0.1182356701927098
4.688663999999999,8.674373986414844,0.1180394359571502
4.691008,8.683921751153841,0.1178031403142576
4.693351999999999,8.696682321452755,0.1175277342874842
4.695696,8.709303122124808,0.1172576519700987
4.698039999999999,8.723786253916417,0.1169725155644683
4.700379999999999,8.743484292014358,0.1166268280623917
4.702724,8.762530703806242,0.1162785214926286
4.705067999999999,8.787862957091097,0.1158604306774212
4.707416,8.81426614556259,0.1154299508259116
4.709759999999999,8.844161678847723,0.1149508625735465
4.712104,8.871263715453518,0.1144981556873198
4.714444,8.897015277618955,0.1140699808624553
4.716787999999999,8.923837774971034,0.1136291916454292
4.719128,8.947215149337714,0.113208379826414
4.721463999999999,8.963095977397924,0.1128773804164219
4.723811999999999,8.97711447433858,0.1125614119667965
4.726151999999999,8.998629517585703,0.1121591208666149
4.728503999999999,9.022146661579244,0.1117395970591668
4.730848,9.04324239594579,0.1113590837117251
4.733191999999999,9.063127425498834,0.110998841310994
4.73554,9.085666182104353,0.1106271128194925
4.737876,9.108204938709877,0.1102586793525829
4.740224,9.129812529755617,0.1098978604589284
4.742568,9.155424322294197,0.1095029003768774
4.744911999999999,9.18331775483291,0.1090815515433281
4.747256,9.21307351849118,0.1086517197074234
4.749599999999999,9.244272304388426,0.1082281299496058
4.751935999999999,9.272258284725758,0.1078431330944652
4.754272,9.302758222488702,0.1074534418947531
4.75662,9.333118390624788,0.1070728715170207
4.758972,9.362267853947376,0.1067099748759337
4.761308,9.395421518762792,0.1063156301690755
4.763652,9.428435413951352,0.1059271959516326
4.766,9.460378373953276,0.1055502726396932
4.768336,9.493811578022417,0.1051455691829129
4.770683999999999,9.525382450971998,0.1047521069228511
4.773028,9.552669583175028,0.1044046179923692
4.775376,9.577023449071865,0.1040803171081972
4.77772,9.60058591903578,0.1037574650405881
4.780059999999999,9.62307745381306,0.1034463213105436
4.782411999999999,9.641564787097504,0.1031688060293508
4.784751999999999,9.656979084448892,0.102918973080263
4.787092,9.67225361217342,0.1026746154465595
4.789436,9.68259277284534,0.1024684846434683
4.791779999999999,9.691721228703758,0.1022791714818588
4.794112,9.695914317509564,0.1021272303820406
4.796452,9.698105305568951,0.1019913518108638
4.7988040000000005,9.696943718441563,0.1018915256678304
4.801143999999999,9.691266073142147,0.1018132386587076
4.803488,9.682515391909671,0.1017607785937785
4.805828,9.674695876236978,0.1017030054175155
4.80818,9.663803324631228,0.1016707168746211
4.810511999999999,9.65305054265234,0.1016332724760899
4.812856,9.645882653285703,0.101580083193783
4.815204,9.643230822091098,0.1015063626051862
4.817544,9.645095049068525,0.1014123821871434
4.819887999999999,9.650683938285065,0.101298555303413
4.822232,9.6574835323151,0.1011698818807989
4.824576,9.663212191158502,0.1010511532428327
4.826912,9.67201388593496,0.1009083335695033
4.829255999999999,9.684168155898186,0.1007315456937309
4.831595999999999,9.700047088100533,0.100535790642348
4.83394,9.721932322542123,0.1002986428158245
4.836283999999999,9.750615255155887,0.1000199132106213
4.838628,9.77794771332929,0.0997610251624542
4.840976,9.812077869674866,0.0994612428917199
4.843308,9.84555639971438,0.0991565253993107
4.845659999999999,9.882387504940672,0.0988178656887678
4.848008,9.923874437965852,0.0984570340880703
4.850351999999999,9.966292536550814,0.098091455839436
4.852696,10.008059008829717,0.0977225137286416
4.855039999999999,10.049965250735475,0.0973495266255139
4.857391999999999,10.094804758947436,0.0969607776920492
4.859731999999999,10.133917504173864,0.0966047647710251
4.862079999999999,10.16944535678804,0.0962653989187486
4.864436,10.202319482349742,0.0959368754720176
4.866771999999999,10.23067754973941,0.0956270657690184
4.869111999999999,10.259827013061996,0.0953188044216057
4.871464,10.29004741157122,0.0950015208507558
4.873808,10.315192673400974,0.0947213667429326
4.876156,10.336985360043952,0.0944740839690219
4.878499999999999,10.347044981462147,0.0942966348517348
4.880848,10.348304803961758,0.0941736348571078
4.883187999999999,10.339693892356149,0.0941130911329817
4.885532,10.33350439037753,0.094025128801857
4.887888,10.320377420599888,0.0939813630955374
4.890224,10.311114882688216,0.0939156114571518
4.892564,10.303063049590044,0.0938362732643294
4.894907999999999,10.292217719812536,0.0937694499513727
4.8972560000000005,10.28044122447525,0.093706695468796
4.899595999999999,10.267454024324463,0.0936571190390125
4.901935999999999,10.257400090479877,0.093590358253715
4.90428,10.24413335107537,0.0935494672956343
4.90662,10.2360815179772,0.0934698131777904
4.908963999999999,10.228681311185088,0.0933951810524499
4.911308,10.222212269952752,0.0933164896634033
4.91366,10.218536725399751,0.0932256915486116
4.915996,10.218585843085863,0.0931195375529819
4.918343999999999,10.219286587078033,0.0930186028706154
4.920688,10.223991532563035,0.0928930441442048
4.923028,10.231629744354237,0.0927514490135731
4.925371999999999,10.257426632490048,0.0924951000731417
4.927716,10.286017017305191,0.0922263422099516
4.930064,10.322755574732865,0.0919034654658096
4.9324,10.3596339017874,0.0915792024314487
4.934752,10.396791768095651,0.0912446196017783
4.937099999999999,10.430736828843994,0.0909369579258488
4.939444,10.461469084032418,0.0906554919790693
4.941787999999999,10.490059468847564,0.0903902309175
4.944132,10.52465615590196,0.0900911455305822
4.946479999999999,10.562325878889412,0.0897730556078741
4.94882,10.59706233557067,0.0894727511435676
4.951167999999999,10.633289036319145,0.0891521932801466
4.953524,10.668444801880982,0.0888422389823804
4.955867999999999,10.70374033706968,0.0885292336947953
4.958212,10.7381047066986,0.0882209454797219
4.960559999999999,10.77153791076774,0.0879173213027499
4.962895999999999,10.796590624798876,0.0876465088456547
4.96524,10.82420451808387,0.0873489946955002
4.967584,10.849024914689528,0.0870627948586502
4.969932,10.875475324989266,0.0867542715142552
4.972268,10.89205500118378,0.0865000396633886
4.9746120000000005,10.91077654775157,0.0862316923964563
4.976967999999999,10.929218555065642,0.0859741116431074
4.979312,10.943376821633157,0.0857465853040434
4.981655999999999,10.961399520066648,0.0855025478766341
4.984,10.983054332940634,0.0852253364891262
4.986348,11.007782181747675,0.0849311572618206
4.988683999999999,11.038935641674549,0.0845948306878578
4.991028,11.062360237869475,0.0842929921270944
4.99338,11.083922502944844,0.0839985887130152
4.995716,11.104553602460436,0.0837073622490174
4.998059999999999,11.121971896416111,0.0834377963073481
5.000404,11.140321355931563,0.0831666779001193
5.002744,11.156948253954322,0.0828978361138705
5.005075999999999,11.174785856790578,0.0826187185678488
5.00742,11.192623459626835,0.0823400026636766
5.009772,11.21618782544862,0.0820397951825715
5.012127999999999,11.238401716830046,0.081757061570667
5.014472,11.260755377838334,0.081470249598326
5.016816,11.277754362913427,0.0812188641613236
5.019167999999999,11.29661567910808,0.0809624865916449
5.021507999999999,11.312683498623397,0.0807152089590949
5.023856,11.326237360713098,0.0804692585893874
5.026199999999999,11.343143797989574,0.0801991626391868
5.02854,11.358048134519636,0.0799394269803267
5.030884,11.366666629556724,0.0797162202267921
5.033223999999999,11.37249162791448,0.0795014199562048
5.035568,11.37496405108546,0.0793115396916395
5.037915999999999,11.383303006868829,0.0790986348937188
5.040263999999999,11.393504293771755,0.0788814078075491
5.042612,11.405847451047958,0.0786516541064231
5.044955999999999,11.421263644257218,0.0784066002623592
5.0473,11.43374657116028,0.0781735396851759
5.049648,11.44823159880976,0.0779321574013921
5.051983999999999,11.46271662645924,0.0776918592069618
5.054328,11.47841235892222,0.0774420491244039
5.056668,11.493456465079142,0.0771881621323802
5.059016,11.50491567862381,0.0769400980438724
5.061359999999999,11.519587697728396,0.0766743635062779
5.063704,11.5345392560867,0.0764002051347593
5.066051999999999,11.549630584071863,0.0761232557385663
5.068384,11.56872611354986,0.0758308382320154
5.070736,11.5859593119083,0.075543090212684
5.073079999999999,11.603472049520462,0.0752490976516781
5.0754280000000005,11.620193391199706,0.0749536173094531
5.077764,11.639847999185148,0.0746472821248783
5.080107999999999,11.66229610384992,0.0743354336054615
5.082452,11.68195071183536,0.0740301183174077
5.084795999999999,11.696809722395043,0.0737401096516131
5.08714,11.70794407071562,0.0734589028967579
5.089483999999999,11.715865613476277,0.0731954521343463
5.091832,11.72113342918446,0.0729344774404216
5.094172,11.72840334563906,0.0726658862179534
5.09652,11.733531391720383,0.0724092549628223
5.098872,11.737448732988208,0.0721627020514251
5.101212,11.742437009442671,0.0719114132478832
5.103555999999999,11.745143645896997,0.0716756103267754
5.1059,11.749712613470878,0.0714358367711361
5.10824,11.749718301044489,0.0712264903390662
5.110579999999999,11.753448650857209,0.071009834989054
5.112928,11.75596829585643,0.0708029422622874
5.115276,11.75234186898954,0.0706221906517583
5.1176200000000005,11.752160565108046,0.0704417794251458
5.119964,11.747276211599416,0.0702946004249568
5.122308,11.744393958837202,0.0701401515632529
5.124647999999999,11.74058054051521,0.0699873820587577
5.126984,11.73583595663344,0.0698367269544731
5.129332,11.735095574244504,0.0696717865055196
5.131668,11.73901101965446,0.069498607812818
5.134012,11.746511357676669,0.0693225848162967
5.1363520000000005,11.758947062751488,0.069131153580692
5.138696,11.778692322677678,0.0689314216234757
5.141043999999999,11.797506417044085,0.0687339955481091
5.143388,11.818974238462967,0.0685358528405577
5.145735999999999,11.84030229025499,0.0683416479203631
5.148088,11.86000032835293,0.0681682744807971
5.150423999999999,11.880210223130073,0.0680042243453591
5.152768,11.899349182720574,0.0678456399479816
5.155116,11.92342350936369,0.0676723032571492
5.15746,11.945355965633526,0.0675100254558059
5.159803999999999,11.966357256343583,0.0673494593408799
5.162148,11.992293914106256,0.0671742156952363
5.164488,12.01636824074937,0.067002701843396
5.166824,12.046448869631735,0.0668114056830184
5.169167999999999,12.07611018963352,0.0666319147706799
5.171524,12.1087047759415,0.066445150625318
5.173855999999999,12.139157491876205,0.066268987949239
5.176204,12.169190898930324,0.0661048583594114
5.178547999999999,12.19601150042453,0.0659565151495639
5.180892,12.22083000117232,0.0658151139736212
5.183228,12.2407131348675,0.0656882412966193
5.185571999999999,12.25379857039051,0.0655788460956803
5.187923999999999,12.267675401846436,0.0654720060085419
5.190272,12.279969441436528,0.0653611442252474
5.192615999999999,12.293474185840116,0.0652422041665733
5.194956,12.305396138377873,0.0651189231981207
5.197308,12.32095020535612,0.0649711949331037
5.199643999999999,12.340089164946622,0.0648223080266871
5.201991999999999,12.358436728604207,0.0646721960966684
5.20434,12.37799499707529,0.0645142800287657
5.206683999999999,12.399275827039071,0.0643575993182725
5.209028,12.41934595218935,0.0642097999753528
5.211371999999999,12.439416077339631,0.0640622909556453
5.213711999999999,12.458834576183856,0.0639101403171448
5.216047999999999,12.47746167909516,0.06375605802786
5.218396,12.494366220513768,0.0636015779065702
5.220739999999999,12.512341697119012,0.0634425834332297
5.22308,12.527523677044924,0.0632872580859251
5.225424,12.540983095478142,0.063130567027346
5.227767999999999,12.5525801827918,0.0629759902965409
5.230108,12.568321241225156,0.0628068835126814
5.232448,12.585273004472006,0.0626299074120081
5.234795999999999,12.6003624365993,0.0624553951002894
5.23714,12.61330999835332,0.0622898885960639
5.239483999999999,12.623324293801144,0.0621311861939376
5.241828,12.638553495555298,0.0619542870902353
5.244168,12.64870756062998,0.0617933535217809
5.246511999999999,12.657418603465686,0.0616249964478551
