Time,Force,Position
7.566188,4.530251396369633,0.1751758853068733
7.568536,4.775423511510826,0.1720053878666195
7.570872,5.010636136463916,0.1691124090670875
7.573216,5.2257862196982,0.1669481805489958
7.575559999999999,5.420966309012299,0.1653068143534845
7.577907999999999,5.596268952204828,0.1640890872014011
7.58024,5.768734668605519,0.1627292097560782
7.582583999999999,5.935105326684081,0.1612479076607139
7.584932,6.083695083043977,0.1599334285175693
7.587268,6.211850210632731,0.1587711397105478
7.589611999999999,6.322316984301434,0.1577357371094095
7.591956,6.408809562557115,0.1569794796533791
7.594296,6.475611686146331,0.1563792462475754
7.596636,6.52831034842775,0.1557976889507131
7.598979999999999,6.56904552391678,0.1553132658389143
7.601328,6.598793704143575,0.1549808843014596
7.60366,6.618718372093388,0.154803667091723
7.606004,6.636268852244449,0.1546508046189746
7.608347999999999,6.656752598701702,0.1544489157490187
7.610692,6.684685669637185,0.1541270597134781
7.613023999999999,6.713549906132446,0.153791446068651
7.615371999999999,6.738037854082535,0.1535145364516602
7.61772,6.757777426435115,0.1532791140678474
7.620063999999999,6.777144911735358,0.1530265284013825
7.622408,6.795721001102684,0.1527780511455543
7.624751999999999,6.820023853455537,0.1524342459854561
7.627091999999999,6.840509495770658,0.1521238634066223
7.629431999999999,6.858481180660166,0.1518483530853143
7.631779999999999,6.875242160736173,0.1516035117669089
7.634131999999999,6.893818250103497,0.1513708714694767
7.636476,6.916770628015993,0.1510872429802057
7.638819999999999,6.947359321861819,0.150645557994673
7.641164,6.974502892722252,0.1502413506514446
7.643511999999999,7.002018550635023,0.1498570029161648
7.645852,7.026600942241599,0.149520674391986
7.648199999999999,7.053884282728889,0.1491136357903636
7.650544,7.080655766536985,0.1486978564172366
7.652896,7.106356315158441,0.1483067790192319
7.655236,7.131218246018735,0.1479685624320187
7.657579999999999,7.155893185423928,0.1476823268304498
7.659927999999999,7.180940211881456,0.147414820917822
7.662267999999999,7.2092000438989,0.1470869427049514
7.664616,7.239322207035901,0.1467355828677778
7.666959999999999,7.267814356478822,0.1464344725429879
7.669295999999999,7.297097901854661,0.1461253573921058
7.671635999999999,7.321493302006132,0.1458578803860929
7.673988,7.340022169545215,0.1456835581527618
7.676323999999999,7.349471698911989,0.1456612720228521
7.678663999999999,7.36022448089088,0.1456436631003366
7.681008,7.378194269922519,0.1455018109419231
7.683356,7.394441497461462,0.1453796588360511
7.685691999999999,7.40640498425385,0.1453383370202153
7.688032,7.42274475959141,0.1452505005104868
7.690379999999999,7.440295239742469,0.1451369789252867
7.692715999999999,7.46306062619986,0.1449346357188717
7.69506,7.480099249671722,0.1448128664065398
7.6974,7.496626016464384,0.1446819141418989
7.699748,7.5130130136301885,0.1445588775782375
7.702095999999999,7.524464643743379,0.1445096122854344
7.70444,7.533961394938396,0.144453062624529
7.706787999999999,7.5433655983347965,0.1443656552756214
7.709132,7.550627931357919,0.1443168949228585
7.711471999999999,7.557191416246741,0.1443042833809875
7.713816,7.566176310762562,0.1442396426665589
7.71616,7.577210527853042,0.1441066940840553
7.718496,7.588244744943522,0.1439733355982446
7.720839999999999,7.603143393899973,0.1437857879421984
7.723184,7.624979510655455,0.1434917228301042
7.725524,7.645791914052544,0.1431791199484602
7.727867999999999,7.659946388904322,0.1429600471423939
7.730212,7.670376201516987,0.1427871182721987
7.732555999999999,7.680666244502792,0.1426211636531817
7.734892,7.689885352301957,0.1424747838574353
7.737235999999999,7.697381898608427,0.1423452559979604
7.739571999999999,7.701433321929504,0.1422484221611702
7.741916,7.70669545006408,0.14212562186988
7.744256,7.716892945251268,0.1419344694406674
7.746599999999999,7.727509749319036,0.1417233952409622
7.748944,7.742969372640799,0.1414122835144529
7.751284,7.7600117878283985,0.1410939986885982
7.753627999999999,7.78171003081489,0.1407264555255738
7.755972,7.805270604920939,0.1403387107273025
7.758315999999999,7.82845909197465,0.1399353202317076
7.76066,7.849505708655082,0.1395676568256871
7.763004,7.872786743507409,0.1392001812386328
7.765355999999999,7.90007197985257,0.1387797116882653
7.767692,7.923912093212339,0.1383884459889984
7.770044,7.948171515452686,0.1379810548060525
7.772383999999999,7.973222333625952,0.137571588104319
7.774732,7.999483856612717,0.1371399235773827
7.777072,8.029097954786259,0.1366505578603509
7.779415999999999,8.060853923333077,0.1361293152949416
7.78176,8.094100135947114,0.1355752297942463
7.784096,8.132002176360043,0.1349776618702541
7.786443999999999,8.17148700863881,0.1343771174794742
7.788788,8.21404487685063,0.1337366635737225
7.791128,8.251248069129257,0.1331847933144583
7.793476,8.284307290288192,0.1326896796038275
7.795819999999999,8.312011835513934,0.1322757293372837
7.798171999999999,8.336131488127421,0.1318940645790799
7.800516,8.352382507382103,0.1316119220508247
7.802856,8.366771195517227,0.1313499811578162
7.805204,8.38260290589133,0.1310891504465088
7.807539999999999,8.401228112944764,0.1308002272994695
7.809884,8.414917952945588,0.1305728700920352
7.840847999999999,8.420317954849153,0.1305390597626345
7.843232,8.428790992685775,0.1304875447041077
7.845628,8.443270332761648,0.1303657955610284
7.848023999999999,8.459891543210798,0.130213716756052
7.850412,8.47558158810017,0.1300701138248481
7.852808,8.488478136310206,0.1299529798576518
7.855212,8.501654223773963,0.1298249798281106
7.8576,8.517903347170774,0.1296590559704548
7.860004,8.540298542433696,0.1294163013327275
7.862404,8.56776887437609,0.1291137719102817
7.864792,8.598172472624684,0.1287801140535164
7.867188,8.63122979792575,0.1284289348540398
7.869588,8.662936648786456,0.1281034245945398
7.871971999999999,8.691989772594686,0.1278003247620145
7.874376,8.723184766776193,0.1274700430428985
7.876771999999999,8.756940940211559,0.1270961509197776
7.879163999999999,8.792047588087286,0.1266949745145005
7.88156,8.825431674470314,0.1263064901004844
7.883951999999999,8.861097400853481,0.1258853113040285
7.886348,8.898113601677007,0.1254391801131572
7.888743999999999,8.929403039515,0.1250539429039351
7.891131999999999,8.955896879927243,0.1247191550522684
7.893528,8.975453252540456,0.1244592152862719
7.895923999999999,8.993938689967033,0.1242128217024724
7.898311999999999,9.017639033699938,0.1239054758061859
7.900708,9.047904758179538,0.1235139212219714
7.903103999999999,9.077099547472496,0.1231386310550137
7.905488,9.104571775272763,0.1227751524321573
7.907867999999999,9.130461211207193,0.1224190142672009
7.910276,9.154767855275784,0.122071459333049
7.912663999999999,9.1781433337846,0.1217334119368423
7.915039999999999,9.19621135818846,0.121429247730316
7.917439999999999,9.21791149703282,0.1210702902957328
7.919827999999999,9.236398830317269,0.1207489650208777
7.922207999999999,9.253163602109016,0.1204386005220429
7.924604,9.264061841288374,0.1201840076240023
7.926992,9.274308454161671,0.1199257374153603
7.929375999999999,9.284694836661831,0.1196622330036276
7.931772,9.291077017669158,0.1194391919646605
7.934156,9.296667802743569,0.1192185170600592
7.936555999999999,9.29853392557886,0.1190260747566717
7.938952,9.299468882854375,0.1188407960128933
7.94134,9.302405940876312,0.1186345077721632
7.943719999999999,9.307764408525244,0.1183915281791549
7.946116,9.306185408375145,0.1182167141323336
7.948504,9.29631846598566,0.1181330546726798
7.950884,9.282587091730202,0.1180837539702482
7.965216,9.182597352502407,0.118030408249425
7.967616,9.16737573417973,0.1180082802067207
7.969999999999999,9.152805742163109,0.1179896581783549
7.972384,9.137956210892767,0.1179826482507546
7.974779999999999,9.12562063704804,0.1179649991667812
7.977167999999999,9.113145293576457,0.1179526433776672
7.979564,9.10653648271726,0.1178869665013067
7.981959999999999,9.1015104637239,0.1178182449311026
7.984347999999999,9.10314237327585,0.1176953503007511
7.986727999999999,9.10863871469377,0.1175397645665883
7.989124,9.118139257604524,0.1173465386862608
7.991512,9.12829142682134,0.1171586493133209
7.993891999999999,9.142028488650409,0.1169485764215338
7.996292,9.161911622345588,0.1166766802724203
7.998676,9.19087409421307,0.1163194954730043
8.001059999999999,9.216763530147498,0.1159935093733945
8.003456,9.243584131641702,0.1156617568888365
8.005844,9.27068427238963,0.1153181723043588
8.008224,9.297504873883836,0.11498473153591
8.01062,9.327398511311095,0.1146229746513731
8.013008,9.361016810977471,0.1142350937723751
8.015404,9.39114276583021,0.1138952462493855
8.0178,9.423410591056228,0.1135347450592997
8.020188,9.461033092215434,0.1131150210896453
8.022568,9.498935132628366,0.112688472236026
8.024963999999999,9.536045777108376,0.1122632214516432
8.027352,9.567569428229715,0.1118788057785015
8.029736,9.598720992298722,0.111482832820846
8.032131999999999,9.62828976450189,0.1110926235006627
8.034516,9.653342478533023,0.1107298166563271
8.0369,9.676812400698324,0.1103723976343347
8.039296,9.699490926930707,0.1100182210020471
8.041684,9.724870402043804,0.1096244155669094
8.044063999999999,9.747176841223853,0.109261149329162
8.04646,9.765898387791642,0.1089213870407833
8.048852,9.786761804732713,0.1085598360811304
8.051231999999999,9.807532673875162,0.1081755916812761
8.053632,9.827651916711554,0.1077861609726634
8.05602,9.851403273988444,0.1073511871655481
8.058411999999999,9.870638573093302,0.1069409698646408
8.060808,9.887359914772547,0.1065385489446294
8.063191999999999,9.905571500519008,0.1061104415747689
8.065572,9.9199186543995,0.1057110702678866
8.067964,9.932403477160433,0.1053244964236249
8.070348,9.9363680402565,0.1049903558586614
8.072744,9.940332603352568,0.1046558091569329
8.075135999999999,9.944576705702357,0.1043103465507498
8.07752,9.943326362492089,0.1040213746816043
8.079915999999999,9.941005084095185,0.1037433011362683
8.08232,9.93840426644456,0.1034743190263396
8.084704,9.934033665472992,0.1032409690758895
8.087083999999999,9.925519093381736,0.1030438217305996
8.089488,9.911649845357283,0.1028983297045979
8.115768,9.659290882270746,0.1028498276380971
8.118164,9.648770417717332,0.102832859585085
8.120548,9.644116485776308,0.1027751421225866
8.122928,9.646492569432928,0.1026920422817034
8.125332,9.654874955328802,0.1025639304336228
8.12772,9.666702464210069,0.1024265709821547
8.130099999999999,9.682254635330448,0.1022695227675108
8.132503999999999,9.696084244958133,0.1021170131163754
8.134891999999999,9.714849221638422,0.1019297727889686
8.137272,9.737990486863891,0.1017276664944364
8.139676,9.759781277648996,0.1015447679108392
8.142059999999999,9.789021392912332,0.101320094638095
8.14444,9.815048702615751,0.1011257797219335
8.146844,9.8480134801182,0.1008816988981881
8.149232,9.88563408541954,0.1006155388025742
8.151612,9.928469597027211,0.1003060071495809
8.154008,9.975960936433776,0.0999749495393654
8.156395999999999,10.025314606959896,0.0996374406527642
8.158776,10.07494781673974,0.0992936729275141
8.161171999999999,10.126443357639134,0.0989391535643774
8.163556,10.17630888484445,0.0986164401321883
8.165936,10.221658353877736,0.098315984775364
8.168339999999999,10.260721981418056,0.0980696922924052
8.170724,10.292196514853284,0.0978667073688914
8.173108,10.32460221384829,0.0976614902599012
8.175507999999999,10.351141380230908,0.0974933315164586
8.177896,10.376749381053743,0.0973307380279145
8.18028,10.408363684115836,0.0971284957270553
8.182675999999999,10.436765181618007,0.0969539065979676
8.18506,10.462932260948286,0.0967752646706835
8.18744,10.48951864915915,0.0965821106085647
8.189836,10.514522245504171,0.0963891464941367
8.192224,10.542738647409111,0.0961696239216768
8.194604,10.568021783007858,0.095969454032077
8.197008,10.589160947486906,0.0958019273510856
8.199392,10.610160342339096,0.0956408671509321
8.201775999999999,10.624501808645975,0.0955144903731053
8.204172,10.635910008646665,0.0954058085727677
8.206555999999999,10.64610750383385,0.0953108232069599
8.208936,10.657375934207677,0.0952074555693031
8.211336,10.66454761529005,0.0951067348116291
8.21372,10.672370922678487,0.0950110051927621
8.216104,10.67954260376086,0.0949101392021009
8.218508,10.68964755114943,0.0947923589200729
8.220892,10.69481713148539,0.0947042971234719
8.223272,10.703199517381265,0.0945904581276484
8.225676,10.71186144253086,0.0944681914537748
8.22806,10.71586753988156,0.09436681834389
8.23044,10.7233659820459,0.0942315141759299
8.232844,10.731516050516298,0.0941013766277414
8.235228,10.745672421225944,0.093935255230384
8.237608,10.758757856748955,0.0937773515449807
8.240003999999999,10.770912126712185,0.0936241997621465
8.242391999999999,10.78162337443644,0.0934659379937951
8.244772,10.79117113917544,0.0932938059307433
8.247176,10.799927507981517,0.0931223713288259
8.249564,10.810174120854816,0.0929294182249668
8.251944,10.81948956816834,0.0927402225945681
8.254348,10.828153389175805,0.0925465943290856
8.256732,10.835094648690571,0.0923563905649326
8.259112,10.845760570444453,0.092150871315471
8.261508,10.854843700332497,0.0919443740322744
8.263895999999999,10.867651492459654,0.0917229162743488
8.266276,10.880738823840533,0.0914935984458316
8.26868,10.895828255967826,0.0912520432335043
8.271063999999999,10.904119989922954,0.0910444915513874
8.273444,10.911340788691442,0.0908455315666834
8.275839999999999,10.919352983392848,0.0906472550778321
8.278228,10.926294242907616,0.0904579715702862
8.280607999999999,10.931932249810268,0.0902590729764046
8.283004,10.93105209779447,0.0900863473245679
8.285392,10.934874995405806,0.0898698833713715
8.287787999999999,10.936835561897588,0.0896606828579242
8.290184,10.940798229135783,0.0894404259571667
8.292572,10.94769416268018,0.0892060825864507
8.294952,10.94979449879882,0.0889933561496291
8.297348,10.954688331596794,0.0887708276094437
8.299736,10.959070307715574,0.0885386252947953
8.302116,10.963592053461214,0.0883025161900304
8.304508,10.972677079207129,0.0880286553916799
8.306896,10.980458852340927,0.0877451525997955
8.309288,10.99145343103464,0.0874399510357339
8.311684,11.003286627489516,0.0871115219424055
8.314072,11.016610068011609,0.0867651070808138
8.316448,11.03370539260106,0.0863822347135662
8.318844,11.061882156109233,0.0859406474440766
8.321228,11.090478228497986,0.0854878087366867
8.323623999999999,11.1192140705136,0.085031662405987
8.326016,11.148089682156073,0.0845734624159426
8.3284,11.17561481935819,0.0841303694642208
8.330796,11.201789482119946,0.0837012276627157
8.333196,11.222329929694787,0.0833172875470976
8.335583999999999,11.245152017269769,0.0829159786132828
8.337964,11.26690316965811,0.0825230214860833
8.340368,11.286372682046316,0.0821497413169555
8.342751999999999,11.309846395927355,0.0817567503526914
8.345132,11.331178239435117,0.0813791650027005
8.347524,11.357026141114908,0.080992738814675
8.349912,11.381803107608064,0.0806137676465113
8.352292,11.40294795966072,0.080269684518486
8.354695999999999,11.425116525071775,0.0799449743614705
8.357084,11.44407228492291,0.0796415339658307
8.359464,11.457673368840856,0.0793720871661261
8.361868,11.464848841638972,0.0791426516854631
8.364252,11.467461034436807,0.0789484477613776
8.366632,11.465137860182036,0.0787759932291514
8.369036,11.462674916300406,0.0786076038608698
8.371419999999999,11.460351742045631,0.0784353578793068
8.3738,11.458028567790858,0.0782634853004916
8.376204,11.45956982540206,0.0780780448153173
8.378587999999999,11.46860762931973,0.0778488762401229
8.380968,11.483139878797452,0.0775849892091638
8.383372,11.494738861968978,0.0773325246748769
8.385755999999999,11.50647761476737,0.0770766580360305
8.388136,11.516493806073065,0.0768214155489975
8.390532,11.525439062192117,0.0765730160918035
8.392916,11.53480362719175,0.0763134113945335
8.395308,11.537510263646077,0.0760734821347705
8.397712,11.540868526406458,0.0758390186819222
8.4001,11.542504227674144,0.0756049351665029
8.402479999999999,11.543628072262637,0.0753617483095361
8.404884,11.545822852037762,0.0751124651422485
8.407268,11.55481532998506,0.0748406731965878
8.409647999999999,11.56860340535811,0.0745536085998813
8.412052,11.584393581477574,0.074258761378037
8.414439999999999,11.597902117596902,0.0739797202312605
8.41682,11.612713906328343,0.0737126473434303
8.419224,11.627106386179207,0.0734575304279325
8.421607999999999,11.638425830097018,0.0732166379581006
8.423988,11.649885043641683,0.0729732359735698
8.426383999999999,11.65650143793236,0.0727697486741683
8.428772,11.65869432184962,0.0725938443543497
8.431148,11.666334429498688,0.0724104493186184
8.433551999999999,11.67541755938673,0.0722350349005783
8.43594,11.688085581887028,0.0720559467927276
8.43832,11.700613834760464,0.0718809283978575
8.440716,11.7124432394996,0.0717249950448765
8.4431,11.73493477427688,0.0715381892948389
8.44548,11.761710049800708,0.0713304384984398
8.447884,11.793932549056352,0.0711164693702056
8.450272,11.830019480177969,0.0708934111816359
8.452652,11.868108512046,0.0706645700455924
8.455048,11.901122407234562,0.0704568238672519
8.457436,11.933065367236484,0.0702550458135408
8.459816,11.959653651305215,0.0700797573429419
8.462212,11.991177302426555,0.0698891812865673
8.464596,12.02032676574914,0.0696932583441959
8.466975999999999,12.050547164258369,0.0694925227377684
8.469372,12.082490124260286,0.0692920341278752
8.471756,12.11215144426207,0.0691068131915885
8.474152,12.14102136833094,0.0689195281293924
8.476556,12.170962227586443,0.068727082520818
8.47894,12.195967719789335,0.0685510959503902
8.48132,12.217528089006835,0.0683747002989234
8.483724,12.238297062291418,0.0681971987145314
8.486112,12.2578553307625,0.0680285345808683
8.488491999999999,12.278764073673944,0.0678478295154764
8.490891999999999,12.29166441359972,0.0676953683572542
8.49328,12.300420782405798,0.0675606152414058
8.495659999999999,12.305452488972769,0.067432457064583
8.498064,12.303826266994426,0.0673184582398993
8.500448,12.301129109829446,0.0672097516014169
8.502828,12.301784527851243,0.0670827575178093
8.505232,12.303790420313398,0.0669439635880495
8.50762,12.315434729455298,0.0667611870565549
8.509996,12.326287642664283,0.0665774034130174
8.5124,12.339002886992828,0.0663912283645037
8.514783999999999,12.352928836134865,0.0661975639371091
8.517164,12.36899665565018,0.0659948915405291
8.519568,12.385344014419218,0.0657855519504285
8.521956,12.405043948375033,0.0655590982038725
8.524336,12.42688575270412,0.0653240636741578
8.52674,12.445934060353876,0.0650920255202914
8.529128,12.469917735056244,0.0648476647964079
8.531507999999999,12.49297024419883,0.0646052986176739
8.533904,12.51844416296842,0.0643470770049608
8.536292,12.543918081738004,0.0640898780168581
8.538672,12.569671539761307,0.0638257677933645
8.541076,12.594633601851694,0.0635596821995135
8.54346,12.620806368755582,0.0632863821371743
8.54584,12.650564028271722,0.0630119494142775
8.548236,12.680461457414722,0.0627353369547334
8.550624,12.710079347304005,0.0624673447373167
8.553004,12.739697237193283,0.0622006704230697
8.555408,12.763169055216451,0.0619557396036784
8.557796,12.783707606933426,0.0617180739809734
8.560176,12.803314993090623,0.0614820880944583
8.562576,12.820128882568484,0.0612498661751299
8.564964,12.834289044993872,0.0610178678085291
8.567344,12.848588977046116,0.060782968893951
8.569744,12.859815873165306,0.0605581868257594
8.572128,12.868389042232025,0.0603334419351727
8.574504,12.887392023911405,0.0600742944504963
8.5769,12.902390804097951,0.0598261678281942
8.579284,12.91659818835158,0.0595758515918563
8.581664,12.929083011112512,0.0593244462172717
8.584068,12.941987142754028,0.0590641192065563
8.586452,12.95610197920904,0.0587967656615502
8.588832,12.971567290104408,0.0585192334854912
8.591228,12.983447708387526,0.0582415640017069
8.593612,12.993605565177948,0.0579623674897164
8.596008,12.999759220475536,0.0576924411584637
8.598404,12.998323781668036,0.0574307781313077
8.600788,12.99516578136784,0.0571674177399462
8.603168,12.992007781067644,0.0569038039876446
