Time,Force,Position
8.441372,6.175206639791027,0.157906201119146
8.443755999999999,6.228972445543344,0.1575544290341033
8.446152,6.267656402599846,0.157280278594237
8.44854,6.284273821333257,0.15725854887673
8.45092,6.296050316670543,0.1572436026275238
8.45332,6.311411704620082,0.1571766699610086
8.455703999999999,6.334129869249229,0.156952685656342
8.458088,6.353030823840647,0.1567590532656865
8.460484,6.374538283656297,0.1565756700168145
8.462871999999999,6.405030637987766,0.1563009593587783
8.465252,6.445486274223076,0.1558744697702626
8.467647999999999,6.487199837100129,0.1553776841708616
8.470035999999999,6.524724102887114,0.1548990158558108
8.472415999999999,6.565693491659492,0.1543761949126895
8.474815999999999,6.606336119349906,0.1539064301338769
8.477203999999999,6.6461873511074,0.1534442615681132
8.4796,6.681989055401689,0.152981982231713
8.481995999999999,6.712343535964167,0.1525947737669009
8.484383999999999,6.74479266507168,0.1522050305342843
8.486763999999999,6.785202975336615,0.1517029444468954
8.48916,6.822867010750461,0.151216661173183
8.491551999999999,6.853920339447243,0.1508094506021184
8.493936,6.883111337024466,0.150431047776709
8.496331999999999,6.917190479826058,0.1499986569883989
8.498719999999999,6.95140939225451,0.1495624565474425
8.5011,6.978645510913561,0.149181037158333
8.503499999999999,6.997920448415186,0.1489077550340793
8.505887999999999,7.0146342066629535,0.1487022494561289
8.508272,7.027855620097085,0.1485775162322785
8.510667999999999,7.042846816852157,0.1483955113203241
8.51306,7.052298242076803,0.1482545373746374
8.52022,7.059932662152264,0.1482158426897445
8.522599999999999,7.0679410651379335,0.148080436764609
8.524999999999999,7.07348273252623,0.1479276285421631
8.527388,7.081258818086421,0.1477671075465372
8.529767999999999,7.099137955177313,0.1474714581620023
8.53216,7.116877322641344,0.1471841754553294
8.534548,7.132149954508005,0.1468833874934909
8.53694,7.1412765145085535,0.1466900669406378
8.539344,7.145560255255108,0.1466080292879839
8.541732,7.1550116804797534,0.1464728685755835
8.544112,7.167583363465695,0.1462448031425667
8.546515999999999,7.177408771600547,0.1460154072994942
8.5489,7.19081907234765,0.1457460434659185
8.55128,7.203530524960452,0.1455130201363221
8.553683999999999,7.221317114252725,0.1451966404522601
8.556071999999999,7.241525113171998,0.1448236278500485
8.558451999999999,7.252653773918964,0.144601214994645
8.560856,7.267879183957381,0.1443485706161418
8.563239999999999,7.290786235899502,0.1440235450412589
8.56562,7.311319100042869,0.1437100624950572
8.568016,7.329989633066678,0.1434233449466674
8.570404,7.345307590903712,0.1432059586390256
8.572783999999999,7.363651362845557,0.1429775216321784
8.575187999999999,7.380272573294706,0.1427669025133645
8.577572,7.393728200012184,0.1425792098764022
8.579951999999999,7.407183826729662,0.1423917477303127
8.582348,7.421523397178676,0.1422334361577911
8.584731999999999,7.44638532803897,0.1419355145106192
8.587112,7.4781847266982915,0.1415326807306147
8.589507999999999,7.50733039830514,0.1411625546651241
8.591892,7.537499783270385,0.1408189682327467
8.594287999999999,7.570694982340441,0.1404684948439524
8.596684,7.598442957678686,0.1401806938347728
8.599072,7.629683277830568,0.1398249754530953
8.601452,7.65598823092984,0.1395409788053948
8.603855999999999,7.686297385521944,0.1392039695806738
8.60624,7.724614943099716,0.1387513345685205
8.60862,7.760139003998152,0.1383356619671986
8.611016,7.789796532284198,0.1380004493584057
8.613404,7.825832449861831,0.1375975608103862
8.615784,7.863870468185884,0.1371696522275069
8.618179999999999,7.9009773209501555,0.1367513942985594
8.620567999999999,7.935570216288813,0.1363524417403526
8.622948,7.967090075694418,0.1359957845007283
8.62534,7.995117590286386,0.1357065171681013
8.627728,8.024123492266373,0.1353719710953519
8.630123999999999,8.052897076820884,0.1350177381039738
8.63252,8.073010632083669,0.1347751431989564
8.634903999999999,8.09633699290637,0.1344880474772417
8.637288,8.118312879288712,0.1342311239669805
8.639683999999999,8.135772707499022,0.1340190181393974
8.642068,8.150718578283719,0.1338249462228259
8.644459999999999,8.166316075374473,0.1336331050025089
8.646856,8.180051241345671,0.133462457469252
8.649244,8.195136881757227,0.1332621244049292
8.651624,8.201562492877057,0.1331639382500605
8.654027999999998,8.20705693843711,0.1330768827105863
8.656416,8.210828822504466,0.1330026906995068
8.658795999999999,8.219024216945238,0.1328579420523994
8.661192,8.227499150639728,0.1327025282410121
8.663575999999999,8.237417106573195,0.132549056867967
8.665956,8.249057623999361,0.1323830850943501
8.668351999999999,8.262560472545081,0.1321986650184834
8.670739999999999,8.28314055851669,0.1319241166568259
8.673136,8.305071118928659,0.1316205229979408
8.675531999999999,8.32523189601969,0.1313654678526554
8.677919999999999,8.341108932364161,0.1311727960414289
8.680299999999999,8.357777364641557,0.130976239352526
8.682696,8.368020185799116,0.1308749340202206
8.68508,8.379473711770176,0.1307519547401248
8.687463999999999,8.39465189998035,0.1305928126029536
8.689867999999999,8.412483815242998,0.1304137194692472
8.692252,8.435902723864316,0.1301819845575859
8.694636,8.463977460284527,0.1299090253286889
8.697028,8.490701722264378,0.1296630606957643
8.699416,8.52729671834945,0.1293053874964467
8.701796,8.559887512941692,0.1289968500645925
8.7042,8.593269703466852,0.1286846035205484
8.706588,8.62143698768568,0.1284416865511068
8.708967999999999,8.648673106344729,0.1282117675229919
8.711364,8.672184562764663,0.1280179689800595
8.713752,8.696906723998097,0.1278049415949402
8.716132,8.723351446724227,0.1275829724684151
8.718528,8.747002672771021,0.1273894060341102
8.720915999999999,8.770514129190957,0.1272019391253554
8.7233,8.79616745598417,0.1269868768186254
8.725703999999999,8.829457098710712,0.126669333691218
8.728092,8.862374654384917,0.1263359084378141
8.730471999999999,8.893849187820146,0.1259993121081335
8.732876,8.925323721255374,0.1256640191332608
8.735263999999999,8.956006858757686,0.1253345690540542
8.737644,8.983384642901463,0.1250222378934348
8.740039999999999,9.004384037753653,0.1247625988909969
8.742427999999999,9.01751479924704,0.1245855854705578
8.744807999999999,9.03199603518078,0.1243830112813474
8.747212,9.036886076263016,0.1242727862037647
8.7496,9.043266361412474,0.1241314951482877
8.75198,9.051276660256011,0.1239539293956214
8.75438,9.064781404659598,0.1237028457215461
8.756768,9.0706970549581,0.1235202832264069
8.759148,9.074098747830991,0.1233493646745238
8.761543999999999,9.076848814397822,0.1231756709620021
8.763931999999999,9.079087024285457,0.1229938133462326
8.766312,9.078531737493751,0.1228352471591964
8.768708,9.07867529883635,0.1226483273232453
8.771096,9.07816723387289,0.1224584441310503
8.773475999999999,9.067648665177346,0.1223731487705344
8.775879999999999,9.060342902041718,0.1222479390272491
8.778267999999999,9.054387613346451,0.1220979281357517
8.780648,9.048991403158622,0.1219255621339881
8.783052,9.03987053073168,0.1217831932615978
8.78544,9.0301905797973,0.1216631508575817
8.78782,9.01743759292986,0.1215770653294365
8.79022,9.010039281995615,0.1214242523089877
8.792608,9.004643071807788,0.1212507399628716
8.794988,9.004042459045712,0.1210332083671115
8.797384,9.002370911096998,0.1208288474506856
8.799771999999999,8.999628427961644,0.1206379878183728
8.802152,8.993021512960317,0.1204828704867419
8.804556,8.991349965011604,0.1202784540213305
8.806944,8.994753553742362,0.1200196410839069
8.809327999999999,8.99680666803276,0.1197856818959489
8.811724,8.993644876016823,0.1196113134623695
8.814112,8.994207746240003,0.1194073704285945
8.816492,8.993000833142242,0.1192446071739665
8.818892,8.988720884111427,0.1191151706359637
8.82128,8.994032129932117,0.1189009458461179
8.823656,8.995990800566027,0.1187317430187764
8.826051999999999,8.997809701573079,0.1185679765298857
8.828436,8.998417897766632,0.1184230595513597
8.830832,8.998094928400409,0.1182847121974053
8.833224,8.996980563101266,0.1181476044343835
8.835612,9.0088099678404,0.1178825862962299
8.837988,9.01914912851232,0.1176487670168716
8.840384,9.027486188437818,0.1174359563208755
8.842768,9.03424045649748,0.1172266969196915
8.84516,9.042857055676702,0.1170035916346438
8.847564,9.050262950042423,0.1167987316284584
8.849948,9.058460240341065,0.1165925163371824
8.852331999999999,9.066005904333649,0.1163824061457831
8.854724,9.071269928326092,0.1162037492920375
8.857111999999999,9.07695326119912,0.1160086679231761
8.859492,9.087991270005338,0.1157512357802118
8.861896,9.098098113251778,0.115502123681542
8.864279999999999,9.112488697244771,0.115204622489282
8.86666,9.13074371310374,0.1148748172496373
8.869055999999999,9.14019893004412,0.1146232867138191
8.87144,9.15193578698464,0.1143423656947937
8.873835999999999,9.165674744671572,0.1140431495807115
8.87624,9.17955347198537,0.1137391164961959
8.878623999999999,9.199298731911556,0.1133848330505545
8.881003999999999,9.223467502211156,0.1129777166811878
8.883412,9.23762576877867,0.112667108223872
8.885796,9.252063574599909,0.1123468282074196
8.888176,9.269294877100478,0.1120091418829981
8.890571999999999,9.29076269851936,0.1116578777733221
8.892956,9.311439124005323,0.1113089578135758
8.89534,9.335048815797483,0.1109369484877002
8.897736,9.35972944277628,0.1105548993711038
8.900124,9.386924027180696,0.1101665874473984
8.902503999999999,9.414398150838826,0.1097685806031952
8.904907999999999,9.442943209683598,0.109361281270288
8.907292,9.468415232595312,0.1089844875874689
8.909671999999999,9.492816320320388,0.1086200517607902
8.912075999999999,9.515075537672187,0.1082806686083144
8.914463999999999,9.537194985397129,0.107948833051092
8.916839999999999,9.56997656316021,0.1075393141449125
8.919236,9.602338832042712,0.107147538888138
8.921619999999999,9.63642366241791,0.1067528571848572
8.924004,9.671951515032085,0.106363937881478
8.926395999999999,9.704546101340062,0.105999856483282
8.92878,9.736581609140602,0.1056593278554534
8.931175999999999,9.771550383247336,0.1052968616648623
8.933572,9.803446121421016,0.1049609912915428
8.935956,9.83026672291522,0.1046684779988608
8.938352,9.85522499328987,0.1043897583758242
8.940755999999999,9.881626285903495,0.1041164478776539
8.94314,9.90788780889026,0.1038501989406051
8.94552,9.933590253369584,0.1036047884040722
8.947923999999999,9.958221762662268,0.1033711363251443
8.950311999999998,9.982433963074373,0.103152660702121
8.952688,10.003805444978898,0.1029791280547805
8.955091999999999,10.024617848375986,0.1028246925981845
8.957479999999999,10.046361417332852,0.1026655259640649
8.981368,10.104414755547475,0.1025493469338991
8.983763999999999,10.114889894130512,0.1025133333111462
8.986151999999999,10.123502701593996,0.1024875322086649
8.988532,10.133186444244116,0.102452437041036
8.990936,10.142870186894235,0.1024177539418246
8.993319999999999,10.154695799917636,0.1023642959888312
8.9957,10.168523513687452,0.1022971770235832
8.998095999999999,10.183282393017048,0.1022254027772756
9.00048,10.202604552346916,0.102106828355208
9.00286,10.228212553169753,0.1019375167878988
9.005263999999999,10.253680784365732,0.1017735167827391
9.007648,10.279568324442293,0.101596290073141
9.010028,10.311881475638682,0.1013631354143077
9.01242,10.349828842021989,0.1010729774627268
9.014808,10.388475056539592,0.1007598011705648
9.017188,10.426329875124278,0.1004473624134379
9.019592,10.46660610333596,0.1001088142071681
9.021976,10.50315766930853,0.0997902606911018
9.024356,10.539197378601903,0.0994648729724601
9.026752,10.581662699015109,0.0990867798369702
9.029136,10.622545227562474,0.0987130534176984
9.031532,10.65798053237803,0.0983626584144881
9.033924,10.692764210887532,0.0980079744125096
9.036312,10.723031831225,0.0976719063122255
9.038692,10.749854328577078,0.0973450839829508
9.041092,10.773371472570624,0.0970237576887681
9.04348,10.79237255839214,0.0967206404969908
9.04586,10.811141326788173,0.0964003551755838
9.048264,10.826325202571956,0.0960941349101117
9.050648,10.835410228317867,0.0958057574892833
9.053028,10.844262936638303,0.0955000530023761
9.055432,10.85288332753326,0.0951773711163456
9.05782,10.86206279693566,0.0948398114850705
9.0602,10.870171331151418,0.094511481292367
9.062604,10.879350800553816,0.0941756898283136
9.064988,10.888018413277017,0.0938308578896591
9.067372,10.895894630067298,0.0934872536402878
9.069772,10.903398759805244,0.0931296717130675
9.07216,10.90610729211744,0.0927952330519592
9.07454,10.899736486257323,0.0925169932229454
9.076944,10.890711953344738,0.0922460886407487
9.079332,10.884341147484626,0.0919675625400111
9.081712,10.87582847125124,0.0917044653660144
9.084116,10.867595334271568,0.0914318841664951
9.0865,10.861224528411451,0.09115134814591
9.088884,10.85364301773784,0.0908826999758066
9.091284,10.846852902997147,0.0906140480342262
9.093672,10.838712313816096,0.0903620638281152
9.096048,10.830431955008182,0.0901140581198911
9.098452,10.82131297843911,0.0898915194666939
9.10084,10.811914462616317,0.0896776382477874
9.10322,10.800606393845724,0.0894977071289272
9.105624,10.781801778768662,0.0893735266183349
9.108012,10.76099506294518,0.0892605973203654
9.110392,10.74111951268148,0.0891436083148856
9.112788,10.723757919843392,0.0890242451215553
9.115172,10.699830946258617,0.0889563252253602
9.117552,10.675996520472456,0.0889106278117601
9.119948,10.659751188791384,0.0888316150813908
9.122336,10.65030355528248,0.0887188367182137
9.124716,10.637084037706218,0.0886468870693376
9.127112,10.626006390503235,0.0885589623360551
9.1295,10.619724340726002,0.0884489589622778
9.13188,10.61902928430744,0.0883181834554502
9.134276,10.618054688635157,0.0881961193643081
9.136664,10.620664985575129,0.0880646406655924
9.139044,10.624206448074876,0.0879297167938072
9.141448,10.62853930650754,0.0877956577891651
9.143832,10.635525891992682,0.0876560166278209
9.146212,10.64572528303774,0.0874932387394172
9.148608,10.65392257333638,0.0873415156088099
9.150996,10.659605906209404,0.0871906510527063
9.153392,10.66850204464235,0.087015827977534
9.155788,10.68247331975476,0.0868116213621121
9.158176,10.690438292627926,0.0866407074423499
9.160552,10.694026976955916,0.0864780548559217
9.162944,10.706183142777016,0.0862536260768834
9.165332,10.719177926359276,0.0860029330719431
9.167724,10.727237342888928,0.0857787372212559
9.17012,10.736507464232073,0.0855442838160842
9.172508,10.750480635202354,0.0852658681966189
9.174884,10.765524741359275,0.0849822199970176
9.17728,10.777263494157664,0.0846990730751004
9.179668,10.78392711027658,0.0844455774847754
9.18206,10.79021863934316,0.084178279597044
9.184464,10.790271548745013,0.0839236631723663
9.186848,10.79153516296036,0.0836578895812451
9.189228,10.79242669012337,0.0833781724791606
9.191631999999998,10.790804259860767,0.0830995264645659
9.19402,10.78624856329197,0.0828340497048322
9.1964,10.785836837842869,0.0825440853355212
9.1988,10.791431414633012,0.0822234062061347
9.201188,10.799959257729354,0.0818904460030039
9.203568,10.80527429526578,0.0815802094728471
9.205972,10.816595635041455,0.0812398283260587
9.20836,10.830570701869611,0.0808946935105849
9.21074,10.839191092764572,0.0805857399454549
9.213144,10.849394275525368,0.0802801397624027
9.215528,10.857595357539749,0.0799834378592333
9.217912,10.861792238061293,0.0797072785885668
9.220308,10.864638644142476,0.0794465123219133
9.222696,10.863201309477107,0.0792139633594652
9.225076,10.865348867423991,0.0789750956780831
9.227472,10.866705029437956,0.0787342275164646
9.22986,10.869504213690902,0.0785007823033548
9.232244,10.88082365760871,0.0782396124181951
9.234636,10.892934497459436,0.0779812715440589
9.237024,10.911423726601749,0.0777112345537531
9.239404,10.930564582050122,0.0774472373209867
9.241808,10.954501034924244,0.0771674542637596
9.244192,10.978949344477568,0.0768997456250877
9.246572,11.005120215523585,0.0766340606855198
9.248968,11.030359921009826,0.0763725827553962
9.251356,11.055739396122924,0.0761077080664467
9.253736,11.08069956235544,0.0758565279132603
9.256132,11.109384390827072,0.0755980450416101
9.258516,11.143144355978176,0.0753173714045995
9.260912,11.178906421875697,0.0750305935333244
9.263316,11.21946408519897,0.0747290244177679
9.265704,11.26160454038808,0.0744316808968404
9.268084,11.30760942744316,0.0741232938163839
9.270488,11.353754084125107,0.073810877104111
9.272876,11.400550367113109,0.0735070662669455
9.275256,11.451211081967084,0.0731918833846505
9.277652,11.50080086163442,0.0728836958678812
9.28004,11.549319706115115,0.0725852532509657
9.28242,11.5946257450359,0.0723054510325186
9.284816,11.630852445784376,0.07206448486621
9.2872,11.669872643212186,0.0718189339228674
9.28958,11.709032610266854,0.0715722520753091
9.291976,11.742326044709136,0.0713451176987735
9.294364,11.770404572845086,0.0711439651929406
9.296744,11.795921921727176,0.0709659135221567
9.29914,11.820088796168909,0.0708012567097939
9.301528,11.840531008371528,0.070644323111598
9.303904,11.854035752775118,0.0705122214888583
9.306312,11.864327691618792,0.0703976219349362
9.308696,11.870335889715912,0.0703057381881122
9.311076,11.875692461506974,0.0702085877880515
9.313476,11.879186702178478,0.0701150669839411
9.31586,11.880678842103563,0.0700292142245512
9.318256,11.88403331314821,0.0699399280774487
9.32066,11.882731956393965,0.0698594562317436
9.323044,11.87835756370666,0.069791627419412
9.325424,11.878266911765914,0.0697024502920318
9.327827999999998,11.874311827959191,0.06962380404993
9.330216,11.873709319339246,0.0695255605461198
9.332596,11.875388450719438,0.0694126547882137
9.335,11.874274085420296,0.069305008529237
9.337384,11.869155518628318,0.0692113592389469
9.339764,11.869112088515813,0.0690986093463799
9.34216,11.869208428030168,0.068982031198635
9.344544,11.870934781238606,0.0688454697866016
9.346924,11.877876040753376,0.0686867801262688
9.34932,11.889892436947612,0.0685096380219887
9.351704,11.9079151353811,0.0683123655632014
9.354084,11.92607760344145,0.0681116837263992
9.356488,11.948244272994636,0.067898072549738
9.358876,11.973064669600296,0.0676851441653094
9.361252,12.001097871765866,0.0674575917108334
9.363656,12.02419570687883,0.0672443429076921
9.366044,12.048364477178431,0.0670270631108154
9.368424,12.075326744157367,0.0668055785101896
9.370828,12.10457065113644,0.0665709241457667
9.373216,12.127668486249402,0.0663603050260905
9.375596,12.152628652481924,0.0661472231468243
9.378,12.17265345166183,0.0659487027840508
9.380384,12.196822221961432,0.0657348925261169
9.382764,12.221130761887892,0.0655179937368387
9.38516,12.247581172187632,0.0652918581316008
9.387548,12.273379956181312,0.0650613737776698
9.389928,12.302531315361769,0.064813648181263
9.392324,12.33233430084828,0.064572598047399
9.394712,12.357481458535904,0.0643393476853494
9.397092,12.375830918051358,0.0641221513237631
9.399488,12.392597585700976,0.0639017131642238
9.401872,12.408433087790817,0.0636825756707203
9.404268,12.42203417170876,0.06345411145924
9.406672,12.430188031894897,0.0632298454121824
9.40906,12.435408625774835,0.0630129100601492
9.41144,12.450127866707662,0.0627589653149902
9.413844,12.460331049468456,0.0625072605463487
9.416227999999998,12.467880505176778,0.0622553987139471
9.418608,12.472636464205763,0.0620068775322601
9.421012,12.480744998421525,0.0617415480942836
9.4234,12.486619114465393,0.0614657181972043
9.425784,12.49649743200209,0.0611788694614174
9.42818,12.50358225285946,0.0608961883438374
9.430568,12.513088483343823,0.0605989272188632
9.432948,12.52059261308177,0.0603073281424791
9.435344,12.52516347651352,0.0600220792518249
9.437732,12.526940843265937,0.0597400967560356
9.440112,12.528206353339154,0.0594492809966814
9.442516,12.528540697852598,0.0591589340548879
9.4449,12.531948078299092,0.0588584500284239
9.44728,12.53349312762603,0.0585599886363629
9.449676,12.534666089900634,0.0582483908349596
9.452064,12.536630448108154,0.0579400683652967
9.454444,12.53952597187545,0.0576306389908954
9.45684,12.544563366016028,0.0573133794492529
9.459228,12.545177249783189,0.0570175307676709
