Time,Force,Position
10.809196,7.121173810537525,0.1547833830691082
10.811592,7.123130585313568,0.1546764449321802
10.81398,7.122433633037136,0.1546020111078649
10.816364,7.126764595611933,0.1544771469704364
10.818764,7.135704164157378,0.1543250217852008
10.821148,7.153350983822793,0.1539939101315003
10.823532,7.162245226397867,0.1537683344474982
10.825928,7.171279238599799,0.1535333011085844
10.828316,7.176122057853794,0.153417117227446
10.830696,7.189904445653235,0.1531462439627337
10.833096,7.205084529721277,0.1528017157024819
10.835484,7.21523669893809,0.152508581833146
10.837868,7.227064207819359,0.1522388732140106
10.840264,7.237633790058884,0.1520357233104821
10.842652,7.245689414872793,0.1518580903938429
10.845032,7.255422275209027,0.151586791192469
10.847428,7.260778847000088,0.1513664833283142
10.849816,7.268789145843625,0.1511119538340285
10.852196,7.281315502859194,0.1507961065649337
10.854596,7.292957916143226,0.1504535429564165
10.856984,7.294497277896558,0.1502564584538459
10.859364,7.293847547448369,0.1501422091374321
10.86176,7.300879458903884,0.1499490381428529
10.864148,7.307492061478819,0.1497794494648471
10.866532,7.31187024588186,0.1496189878978807
10.868928,7.313175394351845,0.1495127147873548
10.871315999999998,7.320299853605976,0.1493541927442103
10.8737,7.329286643979665,0.1491696550720073
10.876096,7.3424646273012915,0.1488729019736889
10.878483999999998,7.34954376058505,0.1486436589054316
10.88088,7.350988678681895,0.1485300116842619
10.883276,7.357741050883689,0.1483563993751354
10.88566,7.36197946565987,0.1482062169423574
10.888044,7.369151146742245,0.148009863004736
10.89044,7.378697015623375,0.1477985395878871
10.892828,7.39364288640807,0.1475613578685643
10.895207999999998,7.414035980924576,0.1472564581200449
10.897608,7.432846283575247,0.1469608010445489
10.899992,7.449422168054022,0.1466740844584143
10.902372,7.465858282905936,0.1463949506818169
10.904768,7.483597650369969,0.1461204748131796
10.90716,7.5023154052220224,0.1457970578152096
10.90954,7.514654770782488,0.145554681801902
10.91194,7.527785532275869,0.1453088071728036
10.914328,7.542871172687426,0.1450706865875964
10.916708,7.560610540151457,0.1448061573274015
10.919104,7.57890898612293,0.1445159125454005
10.921492,7.602142799147014,0.1441575486329738
10.923888,7.624537994409938,0.1438460646356953
10.926284,7.651029938964311,0.1435052780041926
10.928672,7.684878660198293,0.1430452609293656
10.931052,7.714723179939442,0.1426477618786419
10.933448,7.747500965986788,0.1422127758799441
10.935836,7.785074349459884,0.1417199741485939
10.938216,7.823998207373339,0.1412016450812067
10.940616,7.862130669353876,0.1406971054661741
10.943003999999998,7.900123361707553,0.1402040580901191
10.945384,7.945285839285735,0.1396451668732022
10.947784,7.993753670222452,0.1390681874334546
10.950171999999998,8.043711745226386,0.1384575296447813
10.952552,8.092878424297403,0.1378504751801632
10.954956,8.14069462892806,0.1372790096217392
10.95734,8.190512934305135,0.1366808025127885
10.959724,8.238468908562654,0.1361047906288091
10.96212,8.289917227633806,0.1354740375445366
10.964508,8.340154841891463,0.1348729591400527
10.966888,8.38918175133562,0.1343004769241603
10.969284,8.429920718540389,0.1338477293707794
10.971672,8.467726419438963,0.1334314263166988
10.974052,8.510886796270729,0.1329446964207565
10.976448,8.546038770116827,0.1325622783514915
10.978836,8.584543319149702,0.1321288600530548
10.981232,8.618252270756825,0.131750126190714
10.983628,8.648376329751695,0.1314073681279505
10.986016,8.67421664800001,0.1311276747066073
10.988396,8.696332304009214,0.1308869057762617
10.990792,8.718587729645277,0.1306422023072742
10.99318,8.732462665243336,0.1304799509122206
10.99556,8.743544104162059,0.130345446296667
10.99796,8.756720191625815,0.1302161193343736
11.000348,8.770455357597013,0.1300629978603682
11.002728,8.782188422821793,0.1299333734237129
11.005124,8.794573114352632,0.1298077321633671
11.007511999999998,8.80709757551033,0.1296760017427689
11.009896,8.814686669615416,0.1296009136837549
11.012292,8.820553202227806,0.1295373733682382
11.014679999999998,8.82893369226581,0.1294606529771342
11.01706,8.84252908861015,0.1293172232958701
11.019456,8.857195420141124,0.129158895674755
11.021848,8.859988916820459,0.1291333242412729
11.024228,8.866646845365768,0.1290674440358055
11.026624,8.870231737978022,0.1290393298811338
11.029012,8.876749896896468,0.1289797658999908
11.031392,8.882336890255141,0.1289289087643371
11.033792,8.891136689173726,0.1288351037726708
11.03618,8.901147192905809,0.1287214728857615
11.038576,8.908084660704837,0.1286450109815833
11.040972,8.921819826676035,0.128498420320339
11.043364,8.935554992647234,0.1283518296590947
11.045744,8.945845035633036,0.1282280133904557
11.048144,8.957578100857816,0.1281057497671317
11.050532,8.970661640522957,0.1279576840842786
11.052916,8.982302157949123,0.1278093941407331
11.055312,8.998226416121838,0.1276070006160203
11.0577,9.01135717761522,0.1274281111249785
11.060084,9.025698643922103,0.1272300811534491
11.06248,9.03287032500448,0.1270857718886819
11.064872,9.03710873978066,0.1269718677677064
11.067252,9.044559960116755,0.126817241680505
11.069652,9.058948648251882,0.1265880805746354
11.07204,9.073616875640726,0.1263484558307633
11.074424,9.088564642283291,0.1260976529252632
11.07682,9.106585444858911,0.1258141505666139
11.079204,9.123814851501615,0.1255329229978519
11.081584,9.14039263183826,0.125250153907163
11.083988,9.154828541801628,0.1249946511748486
11.086376,9.172477257324912,0.1246992886458432
11.088756,9.183328274676024,0.12447044598704
11.091152,9.196460932027277,0.1242102647091304
11.09354,9.207591488632112,0.1239705878741435
11.09592,9.218070418930887,0.1237286303868787
11.098316,9.228549349229668,0.1234870742035571
11.100704,9.24103038027486,0.1232259025338133
11.103084,9.246434173894167,0.1230406813329604
11.10548,9.253979837886748,0.1228282929681862
11.107868,9.257661070013356,0.1226516280211107
11.110248,9.265858360311997,0.1224417133852532
11.112644,9.278479160984052,0.1221744840249393
11.115032,9.284302263483935,0.1219715761079092
11.117412,9.285050229304348,0.1218231631302145
11.119808,9.286077734378484,0.1216641001063057
11.122192,9.2863138435197,0.1215069528763531
11.124588,9.280823189675385,0.1214003652109421
11.126983999999998,9.27533253583107,0.1212935835430067
11.129372,9.268770946800116,0.1211996953165018
11.131752,9.2644909977693,0.1210744298471486
11.134156,9.256626156126233,0.1209729338754793
11.136544,9.255698782282192,0.1208038003684635
11.138924,9.251418833251378,0.1206786533287495
11.141328,9.249420524220705,0.1205222380125421
11.143716,9.244628718510686,0.1203875231154979
11.146096,9.241978783173952,0.1202276021923428
11.1485,9.23625581190416,0.1201002556735839
11.150888,9.234676811754063,0.1199276136538749
11.153268,9.232026876417324,0.1197672165816017
11.155664,9.2331016033197,0.1195777362083598
11.158052,9.235526804662436,0.119365386405841
11.160432,9.2316661645122,0.1192232569517419
11.162836,9.232601121787718,0.1190396429566359
11.16522,9.241684251675764,0.1187724940402142
11.167604,9.24927713749659,0.1185349113899947
11.17,9.257521649623474,0.11830122122752
11.172384,9.267488723243051,0.1180585566107286
11.174767999999998,9.281320228728603,0.1177836114263292
11.177164,9.29314963346774,0.1175277161631235
11.179552,9.30297693746046,0.1172917232256497
11.181932,9.315457968505656,0.1170404901795283
11.184328,9.32235200619218,0.1168318640401547
11.186716,9.330876057572784,0.1165892449394496
11.189096,9.3431247711925,0.1163212341002435
11.191491999999998,9.356164880745135,0.1160510805313782
11.193884,9.367063119924492,0.1158065628178605
11.196264,9.380103229477127,0.1155382845227709
11.19866,9.39314333902976,0.1152714074300013
11.201048,9.411118815635009,0.1149616118753259
11.203432,9.430584536307476,0.1146262236648573
11.205836,9.448327695487244,0.1143005279863474
11.208224,9.470214825786709,0.1139325958697337
11.210604,9.490239624966614,0.1135782846328392
11.213,9.50053345966816,0.1133048157907298
11.215388,9.511386372877142,0.1130106655824418
11.217768,9.522379055712989,0.1127115626320748
11.220164,9.536724313735608,0.1123743337985572
11.222552,9.545994435078756,0.1120849389182379
11.224936,9.5581978227281,0.1117714645633319
11.227332,9.573334476683636,0.1114350532209243
11.22972,9.587400195452537,0.1111108602742366
11.2321,9.601977770900634,0.1107952544931816
11.2345,9.616275807095011,0.1104908180601898
11.236884,9.623636375490358,0.1102457245382374
11.239264,9.63406997981876,0.109972535318762
11.241664,9.644224044893445,0.109709900291228
11.244048,9.653027635527769,0.1094694382823728
11.246444,9.660760290975452,0.1092408543793643
11.24884,9.664488744930305,0.1090472783183727
11.251228,9.669520451497272,0.1088638779882725
11.253612,9.676786576236132,0.1086841503026375
11.256008,9.683773161721271,0.1085152152507684
11.258396,9.694065100564949,0.1083389008552516
11.260776,9.713017068700347,0.1081009694696226
11.263172,9.731270188701446,0.1078886335650293
11.26556,9.752316805381875,0.1076607147756002
11.267944,9.768939911688896,0.1074816286077467
11.27034,9.792500485794946,0.1072497394748597
11.272728,9.81899432620719,0.106998917325788
11.275112,9.844137692179077,0.106769961811819
11.277508,9.87421642520357,0.1065066936263146
11.279896,9.909230525280678,0.1062085329901747
11.28228,9.94689835241026,0.1059013380934471
11.28468,9.991363877712011,0.1055483390991554
11.287068,10.035549863760044,0.1052082687385294
11.289447999999998,10.079735849808076,0.1048681983779034
11.291844,10.126063706229385,0.1045096732267648
11.294232,10.176116224889803,0.1041338618186409
11.296612,10.23017294504306,0.103730342793673
11.299012,10.27836313258392,0.1033682341936032
11.3014,10.32497052825895,0.1030095372030866
11.30378,10.372648859120616,0.1026435528743553
11.306176,10.423028138863002,0.102245147808767
11.308564,10.468192512299057,0.101892132095452
11.310948,10.515638525735246,0.1015167498301473
11.313344,10.561873834357936,0.1011587020819847
11.315732,10.609971474100185,0.1007910506135153
11.318128,10.649129545296985,0.1004859429954493
11.320524,10.683492019068035,0.1002114280459456
11.322912,10.717202866533029,0.0999332087679899
11.325292,10.745186951012489,0.0996898766787827
11.327692,10.76744427250642,0.099479847634137
11.33008,10.787839262880796,0.0992803023171731
11.33246,10.805440756575836,0.0990960096267119
11.334855999999998,10.82225085433796,0.0989126950877
11.337244,10.842273757659996,0.0987036747352882
11.339624,10.860434329862478,0.0985044095417472
11.342028,10.872448830198843,0.0983496606869827
11.344416,10.884323560908356,0.0982007450130427
11.346796,10.90155296755106,0.0980087535794678
11.3492,10.916780273447348,0.0978299991725394
11.351588,10.931867809716772,0.097656718038158
11.353968,10.938946943000532,0.0975353372310474
11.356368,10.947236781097793,0.0974008986910454
11.358756,10.956457784754823,0.0972632369608606
11.361136,10.965306701359522,0.0971130686138319
11.363532,10.9745749268448,0.0969504507489884
11.36592,10.991851555315746,0.0967380837073834
11.368303999999998,11.010850745279388,0.0965221663329068
11.3707,11.033854136735863,0.0962832110685
11.373088,11.060582190431452,0.0960293274389688
11.375471999999998,11.092245611179653,0.0957478985588677
11.377868,11.124188571181575,0.0954592808103848
11.380256,11.15305849525044,0.0951909609398046
11.382636,11.17978654894603,0.0949392946914982
11.385036,11.203441566708566,0.0947092173728208
11.387424,11.22802775003088,0.094476013326339
11.389804,11.25289347260691,0.0942329574781941
11.392204,11.27403453294383,0.0940064769419846
11.394592,11.293033722907474,0.0937977452933195
11.396972,11.317247819177448,0.0935546260801216
11.399368,11.340950058768223,0.093304168164283
11.401756,11.368237190971255,0.0930424181475969
11.404136,11.39966829429398,0.0927552056696702
11.406532,11.42937683612401,0.0924732910450544
11.408919999999998,11.45587257239412,0.0922151535574792
11.411304,11.479295272731177,0.0919764447873644
11.4137,11.498993310829125,0.0917538781889994
11.416084,11.517760183367288,0.0915353320034601
11.418468,11.528378883292923,0.0913661446884399
11.420864,11.537135252099004,0.0912049259543929
11.423252,11.543889520158668,0.0910556250639754
11.425648,11.550783557845191,0.0909028448025648
11.428044,11.559167839598937,0.0907301138681528
11.430432,11.56918213504676,0.0905337382180381
11.432811999999998,11.579475969748298,0.0903294884814956
11.435208,11.586976307770508,0.0901355308902408
11.437596,11.597037825046572,0.0899143652492171
11.439976,11.609101443069052,0.0896826781750173
11.442376,11.618511334039065,0.0894572003597987
11.444764,11.62070421795632,0.0892759014329673
11.447144,11.623828267433357,0.0890919895267552
11.449548,11.626719999484914,0.0888916069972417
11.451936,11.622953802991164,0.088718386740924
11.454316,11.616394109818076,0.0885547835161129
11.456716,11.611976287018267,0.0883764750395975
11.4591,11.609840104218598,0.0881794704520421
11.461484,11.608774856605566,0.087975543528325
11.46388,11.607197752313336,0.087762750742434
11.466264,11.612186028767796,0.0875027045620215
11.468644,11.613589412610004,0.0872511135756683
11.471048,11.614480939773014,0.0869911357691162
11.473436,11.613510135816467,0.0867376419704765
11.475816,11.617334929285676,0.0864657346995778
11.478212,11.623813449807354,0.0861898180805379
11.4806,11.630571509582756,0.0859064640116974
11.482984,11.640542374918075,0.0856025556878176
11.48538,11.655588376932863,0.0852746462377879
11.487764,11.66812042152204,0.0849479859087484
11.49016,11.681723401297852,0.0846142459881344
11.492556,11.698958495514162,0.0842480660505763
11.494943999999998,11.71153776193158,0.083896564477647
11.497324,11.72332563241608,0.0835445796990235
11.49972,11.74098003551297,0.0831687762947407
11.502104,11.759705373796502,0.0827860081151328
11.504484,11.779781186520388,0.0823901589295643
11.506888,11.803721431110253,0.0819821238461873
11.509276,11.824868179020775,0.081582733755681
11.511656,11.847225631744802,0.0811737947640836
11.514052,11.86744121409555,0.0807796773233722
11.51644,11.88779656607316,0.0803803638351529
11.51882,11.906010047677496,0.0799941013731537
11.521216,11.924223529281829,0.0796079915630648
11.523604,11.932845816034655,0.0792551121844181
11.526,11.936812274988592,0.0789156043380283
11.528404,11.938776633196111,0.0785848166922727
11.530788,11.937528185843718,0.0782729571522494
11.533172,11.926920861065296,0.07801018924464
11.535568,11.920829594458905,0.0777394415468748
11.537956,11.913527623039014,0.0774781740692859
11.54034,11.904875177178766,0.0772305634341681
11.542732,11.901809724677188,0.0769689861349157
11.54512,11.900047524787723,0.0767181461563396
11.547504,11.892279022659014,0.0764925266409198
11.5499,11.886233082022995,0.0762661854869198
11.552292,11.876834566200204,0.0760615573416123
11.554672,11.860498582578384,0.0758837999919049
11.557076,11.84481422526262,0.0757108768345763
11.559463999999998,11.829641724626054,0.075546915034122
11.561848,11.81339828880285,0.0753885593696103
11.564244,11.803812781524952,0.0752114381709432
11.566631999999998,11.79809170611303,0.0750221274387694
11.569012,11.791951321820523,0.0748437930207268
11.571408,11.795122593125807,0.0746444588405667
11.573796,11.798945490737148,0.0744502715944794
11.57618,11.808215612080293,0.0742481453133196
11.578576,11.822700639729772,0.0740216406152192
11.580964,11.843191969618502,0.0737718685599581
11.583348,11.859539328387536,0.0735421145476513
11.585744,11.881753219768964,0.0732940630761125
11.588136,11.905829442269946,0.0730427120722286
11.590516,11.926972398464736,0.0728022067936893
11.592912,11.948255124286383,0.0725589250733156
11.5953,11.975404382720424,0.0722976183572444
11.59768,12.002553641154464,0.0720374738538719
11.600076,12.03370710108134,0.071763354770536
11.602464,12.068724992874184,0.0714783853613764
11.604844,12.108678251719644,0.0711787570397578
11.60724,12.147420805751604,0.0708891069857783
11.609628,12.187094525343342,0.0705983030282149
11.612008,12.223555439375165,0.0703260224877873
11.614412,12.257734713406848,0.0700692079951665
11.6168,12.295126792998447,0.0697973914103746
11.61918,12.329865145537578,0.0695292579665866
11.62158,12.370470030689091,0.069245945306768
11.623968,12.408281419161272,0.0689696858712873
11.626347999999998,12.4405983620734,0.0687236785220193
11.628744,12.472635765731807,0.0684863255730421
11.631132,12.503881773457302,0.0682467034758167
11.633512,12.53019241413018,0.0680231162034678
11.635908,12.558644925176337,0.0677911197596551
11.638296,12.58588673140899,0.0675678192661291
11.64068,12.611917832828148,0.0673535755125861
11.643076,12.633944732754472,0.0671530692052379
11.645464,12.655971632680794,0.0669534090827348
11.647844,12.67664805816676,0.0667664586124824
11.650244,12.69811587958564,0.0665824232072673
11.652628,12.716650434698328,0.0664072484555649
11.655024,12.738258025744072,0.0662219191286047
11.65742,12.760517243095872,0.0660425386272624
11.659808,12.777701323768204,0.065879715617623
11.662192,12.794233778134473,0.0657115138488964
11.664587999999998,12.805551326194411,0.0655636807639713
11.666976,12.81780003981413,0.0654152840996104
11.66936,12.826324091194731,0.0652730403918606
11.671755999999998,12.831914876269142,0.0651379993484854
11.674144,12.842720567649884,0.0649835084411798
11.676524,12.847799496045091,0.0648396820763654
11.67892,12.860886827425972,0.0646734438149407
11.681308,12.881982561792515,0.0644856432049977
11.683692,12.89879455541251,0.0643165466342159
11.686088,12.919750520152196,0.0641334967680131
11.688476,12.940194628212682,0.0639418407185568
11.690855999999998,12.962640837019588,0.0637449916912843
11.693252,12.983224714706934,0.0635508248182048
11.69564,13.00115486534181,0.0633567089007837
11.69802,13.01550012336443,0.0631639636634114
11.70042,13.02770351101377,0.0629802064764158
11.702808,13.036182236424,0.0628012634978226
11.705188,13.047222141088088,0.0626046731941764
11.707584,13.069623023924615,0.062371480502572
11.709972,13.092815302694063,0.0621407688380673
11.712368,13.121874114075904,0.0618976602697008
11.714768,13.148791055084466,0.0616640210960699
11.717152,13.17356612571975,0.0614393840971922
11.719532,13.203416333034507,0.0612010036372222
11.721936,13.229262338856437,0.060973821831233
11.724324,13.263116747664023,0.0607268317199439
11.726703999999998,13.286960652739529,0.0605061683616214
11.729108,13.298791953336536,0.0603162362562208
11.731492,13.311694189120178,0.0601222172010816
11.733871999999998,13.321663158597628,0.0599347651641601
11.736276,13.333354689567775,0.0597491360783675
11.73866,13.34518599016478,0.0595609241174471
11.741039999999998,13.358739852254482,0.0593745162476816
11.743444,13.37643768546388,0.059175746686702
11.745832,13.397999950539248,0.0589711196562142
11.748212,13.420121294122058,0.0587539075252229
11.750616,13.445315673637923,0.0585288682610542
11.753004,13.468368182780512,0.0583130938427199
11.755384,13.480479022631238,0.0581218831737692
11.757784,13.4960822072956,0.0579138506564818
11.760172,13.511592844161344,0.0576891254735135
11.762552,13.524309984347754,0.0574660771970763
11.764948,13.535164793414609,0.0572438727039939
11.767336,13.540664926548269,0.0570407617524115
11.769716,13.548306930055205,0.0568304094856602
11.772116,13.552084501696168,0.0566264434901707
11.7745,13.560937210016604,0.0564100076151512
11.776879999999998,13.574073659083597,0.0561780778100584
11.779284,13.586418712217666,0.0559437093206905
11.781668,13.595690729418685,0.0557169563838382
11.784048,13.605102516246562,0.0554877315309263
11.786452,13.611581036768245,0.0552633450300588
11.78884,13.618339096543645,0.0550333106859527
11.79122,13.62388645150555,0.0548107272001332
11.79362,13.626500540161258,0.0545930501122722
11.796008,13.63162858624258,0.054380512374911
11.798384,13.634614761950628,0.0541755329258977
11.80078,13.63452790172562,0.0539779757295309
11.803168,13.63951617818008,0.0537689041151646
11.805547999999998,13.640220713887992,0.0535742107260392
11.807944,13.636501739222483,0.0533964367211759
11.810332,13.637718131609592,0.0532107424511338
