Time,Force,Position
13.405911999999995,4.582897150534913,0.1718533093156529
13.408316,4.762109551563791,0.1703741639056997
13.4107,4.927405482739975,0.1689619315030008
13.413079999999995,5.07189280223481,0.1679242223007134
13.41548,5.209352001989868,0.1668914995115334
13.417863999999998,5.3388991382736135,0.1658892625768851
13.420244,5.459697489182757,0.1647720769793334
13.422648,5.558383975798436,0.1639221801559206
13.425036,5.636633937785104,0.1633384143812889
13.427415999999996,5.70655252741988,0.162725448991291
13.42982,5.768326736157866,0.1620407070515538
13.47044,5.895773536322971,0.1614362534621702
13.472848,5.902104703786316,0.1613725819911871
13.475236,5.911556129010959,0.1611901210389319
13.477619999999998,5.920076388675824,0.1610265034439309
13.480035999999998,5.928968735393026,0.1608821874442384
13.482419999999998,5.94372761472262,0.160613650617133
13.4848,5.9573702328952,0.1602809189938882
13.487195999999996,5.965333309910494,0.160015549883107
13.489587999999998,5.963797739872901,0.1599826265090476
13.491968,5.964636357634062,0.15992581888198
13.494363999999996,5.969479176888057,0.1597791739991665
13.496751999999995,5.970365016477461,0.159673513519428
13.499136,5.970319690507088,0.1595854551730706
13.501548,5.974650653081886,0.1594290765037146
13.503936,5.985592322373749,0.1591904335641781
13.506315999999998,6.002168206852525,0.158799887229193
13.508731999999998,6.008641039800597,0.1585916423632511
13.511119999999998,6.0171159734950885,0.158338088838072
13.5135,6.0322488357348885,0.157957631942229
13.515895999999998,6.050314964280884,0.1575163391629003
13.518283999999998,6.064935969841485,0.1571310208082364
13.520664,6.078066731334868,0.1568083728149262
13.523076,6.089939566186509,0.1565704153190155
13.525464,6.103115653650265,0.1563381917320901
13.527843999999998,6.119644316300797,0.1560236850587606
13.530244,6.136452518205051,0.155696192279471
13.532628,6.159778879027751,0.1552653042182455
13.535024,6.186550362835846,0.1547912041683408
13.537419999999996,6.225753760003022,0.1540554950231471
13.539807999999995,6.26416576123728,0.1533317386220292
13.542188,6.304719632844815,0.1525681589613816
13.544584,6.346436987437604,0.1518169824410556
13.546968,6.3918790042695095,0.151013951323356
13.549352,6.4391833522209705,0.1501945127522849
13.551748,6.485044677933455,0.1493913760304923
13.554136,6.5283448243920805,0.148669684125337
13.556515999999998,6.58095662644849,0.1478078325588399
13.558912,6.635570529251317,0.1469146516961463
13.5613,6.67910299313542,0.1462245928148483
13.563696,6.722775226646385,0.1455331288138236
13.5661,6.768961417582964,0.1448258494544064
13.568488,6.8079306014667935,0.1442553907693017
13.570864,6.8486695686715615,0.1436290229785615
13.573268,6.890199931809249,0.1430037385762272
13.575656,6.931962612372414,0.1424142170669026
13.578035999999996,6.97130388330858,0.1418876480049419
13.58044,7.002496981632219,0.1415094882509057
13.582828,7.034761015142499,0.1411164489928831
13.585207999999998,7.056874775293832,0.1409030897907812
13.587608,7.079919701004945,0.1406791677565873
13.589992,7.09616692854389,0.1405586143177238
13.592375999999998,7.11483556570983,0.1403834887919407
13.594772,7.131362332502492,0.1402512893923169
13.597155999999998,7.145235372242682,0.1401505468128139
13.599536,7.156966541609592,0.140089897566396
13.601931999999998,7.170699811722921,0.1399987008412963
13.604319999999998,7.182151441836113,0.139956147758826
13.6067,7.193603071949303,0.1399147972299902
13.609104,7.215065205794578,0.1397185911816559
13.611491999999998,7.236806878893576,0.1395105660944202
13.613871999999995,7.250168061954568,0.1394059357127125
13.616272,7.271025791322029,0.1391683094829392
13.618659999999998,7.286668614383157,0.1390186907845732
13.621039999999995,7.299937249645533,0.1388827700904324
13.623435999999998,7.31176286266893,0.1387491879182199
13.625823999999998,7.323588475692329,0.1386153207452351
13.628207999999995,7.342211786887895,0.1383870130379585
13.630599999999998,7.358972766963905,0.1381840319336997
13.632987999999996,7.380808883719389,0.137901940047487
13.635372,7.400922438982173,0.1376368162147779
13.637767999999998,7.428764857976905,0.1372670075260925
13.640155999999998,7.454744945852083,0.1369237156767672
13.642536,7.477559449995586,0.1365963333834586
13.644939999999998,7.499303018952453,0.1362882388762457
13.647327999999998,7.524119623842375,0.1359349434767041
13.649708,7.543349235373627,0.1356477690774296
13.652103999999998,7.559925119852402,0.1353879982036622
13.654491999999998,7.578503105077598,0.1351036698465912
13.656876,7.596429463996732,0.1348211205411731
13.659271999999998,7.614216053289007,0.1345484387091732
13.661659999999998,7.642013146313365,0.1341382723589497
13.66404,7.662221145232637,0.1338187034486156
13.666435999999996,7.68377961859227,0.1334657731456986
13.668823999999995,7.707479962325179,0.1330808877926721
13.671204,7.732251241244727,0.1326821099973945
13.673603999999996,7.761166491283968,0.1322258989950376
13.675991999999995,7.788638719084234,0.1317759117684989
13.678372,7.817042112444276,0.1313193230289948
13.680775999999998,7.846376671364097,0.1308580895348239
13.683159999999996,7.877433791776615,0.1303862318512805
13.685544,7.908770451442853,0.1299100161125133
13.687939999999998,7.940246880735951,0.1294301414495149
13.690327999999996,7.9765189074548,0.1288996473157206
13.692708,8.01293070380051,0.1283630389630313
13.695103999999995,8.04347596753383,0.1278954450244838
13.697492,8.07988776387954,0.1273596118505099
13.699876,8.116299560225253,0.126823778676536
13.702271999999995,8.14670505433171,0.1263654183328774
13.70466,8.173897742878253,0.1259574184379443
13.70704,8.2005785747456,0.1255430233997884
13.709439999999995,8.22311543549325,0.1251890718412309
13.711827999999995,8.252170455159352,0.1247727976058607
13.714223999999998,8.286160841878065,0.1243034564237944
13.71662,8.317729818969779,0.1238791979524985
13.719008,8.344083889755163,0.1235230336994225
13.721391999999998,8.366573528674571,0.1232111473520211
13.723792,8.387712693153622,0.1229288485769358
13.726176,8.405918591326477,0.1226790296126338
13.728552,8.420539596887078,0.1224582814209293
13.730947999999998,8.436650846514901,0.1222072505881555
13.733331999999995,8.444753693157054,0.1220474018802957
13.735727999999998,8.452856539799209,0.1218884073856248
13.73812,8.458677746441225,0.1217650987686316
13.740503999999998,8.465569888269881,0.121628041473288
13.742884,8.481681137897702,0.1213838062826051
13.745276,8.49364841640583,0.1211904010658131
13.74766,8.507897334914093,0.1209642599730864
13.750039999999998,8.52349672786272,0.1207111834720995
13.752451999999998,8.54030682562484,0.1204389437109399
13.754839999999998,8.551622477826909,0.120241448494812
13.757216,8.562146734096062,0.1200465348893499
13.759611999999995,8.569737724059019,0.1198821630586834
13.762,8.5722535773425,0.1197754243936313
13.764376,8.574397343573649,0.1196526536197738
13.766772,8.581895785737988,0.1194611490379329
13.769156,8.591396328648743,0.1192490658974075
13.771535999999998,8.596241043760605,0.119074926317332
13.773927999999998,8.600014823685832,0.1189138238168492
13.776311999999995,8.606302561036673,0.1187415381758017
13.778692,8.604581895401843,0.1186553395044623
13.781088,8.607796596819625,0.1185176559437622
13.783476,8.611662924543468,0.1183847302261101
13.785851999999998,8.613946460401474,0.1182555391904231
13.788268,8.61636976588634,0.1181209252035805
13.790651999999998,8.6097137331989,0.1180849987968507
13.793032,8.608272606817794,0.117987715603948
13.795444,8.607622876369602,0.1178893158804459
13.797832,8.609766642600746,0.117768909016476
13.800211999999998,8.610979243272114,0.1176561226028646
13.802608,8.617918606929011,0.117492815960223
13.804992,8.628442863198162,0.1173071889694596
13.807371999999996,8.640736902788252,0.1170806113373814
13.809787999999998,8.655964208684537,0.1168270333060924
13.812172,8.675428033499132,0.1165563811926622
13.814552,8.69009626088798,0.1163276098755127
13.816964,8.698618416410712,0.1161641141834956
13.819352,8.714729666038533,0.1159376227120534
13.821731999999995,8.736055821972684,0.1156531433588669
13.824127999999998,8.752865919734806,0.1153984105749951
13.826511999999996,8.778056507534933,0.1150787165621091
13.828888,8.808182462387672,0.1147170300590929
13.831284,8.836585855747712,0.1143651914296177
13.833668,8.866711810600451,0.1140057432673604
13.836047999999998,8.896138917318886,0.1136760323578962
13.838463999999998,8.932363722209494,0.113287541427078
13.840847999999998,8.964863864860986,0.1129308738136762
13.843228,8.990566309340311,0.1126331197133079
13.845623999999995,9.017851545685472,0.1123364584507184
13.848011999999995,9.046579804269609,0.1120442818529673
13.850392,9.07493597580141,0.111738636189625
13.852784,9.099427715467234,0.1114670786217488
13.855172,9.124663629237734,0.111228768880604
13.857547999999998,9.149108147075316,0.1109932773639326
13.859963999999998,9.168105441181089,0.1107917364279636
13.862351999999998,9.193341354951588,0.110557048745549
13.864732,9.228727542081032,0.1102277565733192
13.867144,9.261599771784864,0.1099104061656049
13.869532,9.29139896555564,0.1096248594142079
13.871911999999998,9.326785152685083,0.1093026510648783
13.874316,9.360588547948696,0.1089858751198463
13.8767,9.388804949853636,0.1087096012574022
13.879079999999998,9.413017150265745,0.1084661383460388
13.881484,9.439091681797406,0.1082126678285512
13.883872,9.46493389590359,0.1079395965598286
13.886252,9.48719121739752,0.1076874353904279
13.888655999999996,9.507678755570511,0.1074719743236665
13.89104,9.534824222288815,0.1072099154599392
13.89342,9.55573106934239,0.106979297363649
13.895823999999998,9.575194894156988,0.1067456473045476
13.898211999999996,9.593308244531222,0.1065340812493859
13.900592,9.611701134159182,0.1063124367257462
13.902995999999998,9.626788670428608,0.1060989171896612
13.905379999999996,9.641876206698033,0.1058864458294156
13.90776,9.659757239646794,0.1056567346151119
13.910163999999998,9.679128516662775,0.105404535584915
13.912551999999998,9.691562325879726,0.105208565920936
13.914932,9.702645660656318,0.1050337346733155
13.917323999999995,9.717593427298883,0.1048333393042575
13.919712,9.733891668381808,0.1046151401659286
13.922092,9.750189909464728,0.1043985674651116
13.924495999999998,9.762995805734016,0.1042218777760266
13.926883999999998,9.78488104017561,0.1039735454430704
13.92926,9.80304161237809,0.1037471687090538
13.931663999999998,9.821714041259767,0.1035310211576037
13.934051999999998,9.840758557193784,0.1033298840738171
13.936428,9.866368453874491,0.1030648666097727
13.938835999999998,9.889184853875864,0.1028166574180088
13.941219999999998,9.918379643168825,0.1025384647205114
13.9436,9.95022815951426,0.1022517277354564
13.945995999999996,9.98636041660625,0.1019281823338242
13.948383999999995,10.023144300004295,0.1016102023595045
13.950764,10.063792615268316,0.1012692266482775
13.95316,10.105092556838397,0.100934923410732
13.955544,10.145321563221838,0.1006110488896117
13.957923999999998,10.179124958485446,0.1003472176219795
13.96032,10.213579980055114,0.1000876458488561
13.962708,10.24910593681142,0.0998190809469852
13.9651,10.278625591328472,0.0995946509633421
13.967503999999998,10.301719634725696,0.0994282703913294
13.969891999999998,10.323602973309423,0.0992770759071258
13.972272,10.35135284450554,0.0990877087275438
13.974667999999998,10.377612471634436,0.0989249223963428
13.977055999999996,10.409459092122002,0.0987357789274699
13.979436,10.444099209288904,0.0985344519473356
13.981831999999995,10.478599556828948,0.0983378595550753
13.984216,10.506814062876016,0.0981931973705142
13.986596,10.536611360788925,0.0980491751344234
13.988999999999995,10.566408658701832,0.0979074727292785
13.991384,10.5951350214281,0.0977760628345682
13.993764,10.621300204900512,0.0976775348296958
13.996164,10.64932771949248,0.0975711722513071
13.998552,10.675073594084312,0.0974876222928214
14.000932,10.70189040386278,0.0973964093975781
14.003335999999996,10.733642580693862,0.0972766491277424
14.00572,10.768607563084858,0.0971312361430661
14.008104,10.80664558140891,0.0969653421971484
14.0105,10.842681498986543,0.0968123233770374
14.012884,10.882861387683876,0.0966296985432013
14.015279999999995,10.924391750821565,0.0964285733433139
14.017684,10.964059782839694,0.096235815412803
14.020067999999998,10.999071987058937,0.0960642436845254
14.022447999999995,11.026634866799949,0.0959260252164763
14.024852,11.044606551689458,0.0958382254256781
14.02724,11.06020404878021,0.0957506394893806
14.029619999999998,11.069842465459958,0.095673876114036
14.032024,11.081110895833785,0.0955710902710001
14.034408,11.0893535121028,0.0954630862999312
14.036787999999998,11.08935540796067,0.0953878105637962
14.039184,11.08540032415395,0.0953111466932706
14.041572,11.077767799936357,0.0952242037136693
14.043951999999996,11.066318065681036,0.0951312710798336
14.046356,11.05412415732104,0.0950113058858473
14.04874,11.03504000299026,0.0949057308417683
14.051119999999996,11.007854897875191,0.0948269857106413
14.053524,10.975502108282038,0.0947586281707543
14.055912,10.941194439770706,0.0946748948588604
14.058291999999998,10.911729590513373,0.0945399887806588
14.060683999999998,10.88110125827078,0.0943903709176501
14.063071999999998,10.855315745282182,0.0941904580308106
14.065452,10.830508619681606,0.0939598943380852
14.067856,10.80896152146919,0.0936782115336778
14.070239999999998,10.793467947324263,0.0933342536443972
14.072619999999995,10.787892329112807,0.0929098450682524
14.075024,10.775938321609765,0.0925054080522586
14.077412,10.773994817838805,0.0920424530023983
14.079791999999998,10.772191083694704,0.0915756872269311
14.082188,10.77252921992388,0.0910929384344569
14.084575999999998,10.77901342801917,0.0905704048395713
14.086952,10.786149262420516,0.0900512674164164
14.08936,10.795519514993757,0.0895379456417484
14.091743999999998,10.801537192380222,0.0890501558507708
14.094123999999995,10.80620439532633,0.0885785040949826
14.096519999999998,10.813245786071189,0.088106754912044
14.098907999999998,10.824151608682024,0.0876155122957541
14.101288,10.837571388718471,0.0871206238564089
14.103692,10.85015255099376,0.0866527931449251
14.10608,10.85924136845541,0.08621954835631
14.108456,10.8674915681559,0.0858129391737451
14.110851999999998,10.869688243788897,0.0854673460186956
14.113239999999998,10.87197746722051,0.0851442987067286
14.11562,10.87393992957016,0.0848573133037301
14.118015999999995,10.872782134158513,0.0846157531199117
14.120403999999995,10.864639649119594,0.0844365924915448
14.122799999999998,10.865808819678454,0.084225247055026
14.125196,10.861483544677265,0.0840557589012803
14.127584,10.856599191168636,0.0839031835570502
14.129963999999998,10.849665515085343,0.0837873597974866
14.132359999999998,10.840030890121335,0.0837029044526869
14.134743999999998,10.8371939633295,0.0835887718735941
14.137124,10.83407749728394,0.0834830292818296
14.139528,10.839481290903247,0.0833459392620597
14.141911999999998,10.848050668254224,0.0832137668407882
14.144292,10.86234680859073,0.0830601417125568
14.146684,10.877015035979577,0.0829208428433437
14.149068,10.894756299301472,0.0827650999434163
14.151447999999998,10.911845936317317,0.0826041199658173
14.153864,10.9275850988928,0.0824585689983048
14.156247999999998,10.942393095908503,0.0823158996952201
14.158628,10.961345064043906,0.0821492916044489
14.161032,10.979505636246383,0.0819814969286911
14.16342,10.997526438822003,0.0818183177364479
14.165799999999996,11.017269802890322,0.0816536451913599
14.168195999999998,11.039015267705055,0.0814787919573747
14.170583999999998,11.053403955840183,0.0813492260808746
14.172964,11.071936615095,0.081196598969635
14.175368,11.089817648043764,0.0810387018790172
14.177751999999998,11.112541500246516,0.0808373608663129
14.180132,11.13675559651649,0.0806169602342973
14.182523999999995,11.152681750547078,0.0804442526928152
14.184911999999995,11.169027213458245,0.0802594707403015
14.187307999999998,11.182579179690077,0.0800842613490169
14.189712,11.194688123682935,0.0799027731816293
14.192096,11.205214275809956,0.07972005819311
14.194475999999998,11.216019967190697,0.0795298815643667
14.19688,11.22654611931772,0.0793488178165974
14.199268,11.238794832937437,0.0791669714059704
14.201648,11.256398222490343,0.0789534849126471
14.204044,11.277354187230031,0.0787173597147048
14.206432,11.297798295290518,0.0784732355823499
14.208811999999998,11.323317540030477,0.0782066199884546
14.211216,11.34939586327788,0.0779252915525854
14.2136,11.37589349540586,0.0776331268799438
14.215984,11.401599731600925,0.0773394985176174
14.218387999999996,11.436013218915956,0.0769930194543314
14.220772,11.467353670297928,0.0766633092717774
14.223152,11.499345747985965,0.0763393385896233
14.225555999999996,11.52784548086036,0.0760435999688788
14.227943999999995,11.56086127190679,0.0757429287911876
14.230324,11.598160803699775,0.0754175384809281
14.23272,11.636531270679397,0.0750875555545496
14.235108,11.67490173765902,0.0747592439457798
14.237488,11.71313243501178,0.0744355994764197
14.23988,11.744797751617853,0.074151647849574
14.242264,11.773529801917729,0.0738783777552106
14.244643999999996,11.798676959605348,0.073610420216746
14.247048,11.824103656546692,0.073336028385867
14.249432,11.84045101531573,0.0730997999977483
14.251811999999996,11.85451673408463,0.0728800917891054
14.254216,11.86709220878631,0.072678222239678
14.256604,11.87352161162188,0.0725042374335995
14.258983999999998,11.881813345577005,0.0723272525894268
14.26138,11.891036245091913,0.0721490770567688
14.263768,11.903192410913013,0.0719618222053281
14.266147999999998,11.907060634494728,0.0718128065396218
14.268552,11.911068627703296,0.0716602171830762
14.270936,11.916427095352226,0.0714949143491603
14.273319999999998,11.926069303747711,0.0713083135930835
14.275716,11.929984749157668,0.0711370388267985
14.278099999999998,11.9360420649409,0.0709557380337036
14.280479999999995,11.941819841470409,0.0707822713712239
14.282875999999998,11.947457848373062,0.0706129158818052
14.285263999999998,11.954818416768408,0.0704441818178216
14.287644,11.970327157776286,0.0702437633266096
14.290039999999998,11.992354057702608,0.0700323943736956
14.292427999999996,12.01889701580096,0.0698169617494665
14.294808,12.043158333899182,0.0696161729677731
14.297203999999995,12.077150616475764,0.0693884298182074
14.299592,12.112074064612123,0.0691597834796674
14.301972,12.149279152748624,0.0689182236166257
14.304364,12.190488442377951,0.0686636266241198
14.306752,12.22862469607423,0.0684225513647192
14.309127999999998,12.265829784210723,0.068184549942805
14.311543999999998,12.306107908280278,0.0679375852445454
14.313927999999995,12.350250464215804,0.0676809977022702
14.316308,12.395184416084248,0.0674274728432471
14.318724,12.441980699072248,0.0671732441458192
14.321108,12.48142020538064,0.0669511068392349
14.323504,12.522210186129389,0.066717761616559
14.325907999999998,12.556714325385167,0.0665111209195639
14.328291999999998,12.592429169454448,0.0662974108036539
14.330672,12.628283783150588,0.0660812360456923
14.333075999999998,12.660693273861334,0.0658640511471369
14.335463999999998,12.68765554084027,0.0656526137215114
14.337844,12.709310353714256,0.0654434720174518
14.340248,12.730732849162768,0.0652200905813418
14.342636,12.755368150171192,0.064983258089743
14.345015999999998,12.772693896328247,0.0647539757502629
14.34742,12.78936801617925,0.0645197241643464
14.349808,12.80417980491069,0.0642888004677707
14.352187999999998,12.817269032149438,0.0640576603560919
14.354584,12.826773366775932,0.063827376595412
14.356972,12.833623974349951,0.0635973335368539
14.359351999999998,12.830883387072468,0.0633856627201129
14.361756,12.828562108675566,0.0631643052640608
14.364144,12.82437849915911,0.0629452080305703
14.366523999999998,12.815399292216895,0.0627350819778164
14.36892,12.812194070088458,0.062492669245464
14.371308,12.80856953907944,0.0622604321778609
14.373691999999998,12.810439453630472,0.0620028892482635
14.376088,12.808444936315531,0.0617529675671025
