Time,Force,Position
12.914208,4.119205855895613,0.1763759286785282
12.916588,4.354276815363973,0.1735646134315019
12.918983999999998,4.563838009381721,0.1716240216352244
12.921367999999998,4.753336661680663,0.1701061310517719
12.923748,4.926357664873055,0.1687928939294529
12.926144,5.087137537877206,0.1675586843751459
12.928528,5.241403043678649,0.1662111233265784
12.930923999999996,5.38435858485163,0.1648979104755321
12.933319999999998,5.520053688859357,0.1635835108445605
12.935703999999998,5.650303464993143,0.1622967526266783
12.938088,5.772826273252852,0.1610929893918495
12.94048,5.885108156212867,0.1599794999184913
12.942868,5.980351415701023,0.1591558196776551
12.945263999999998,6.0639107276505095,0.1584327947229122
12.94766,6.136949575046584,0.1578135475586738
12.950043999999998,6.200818432329604,0.1572360889220355
12.952427999999998,6.256495686887592,0.1566461811442623
12.954824,6.2962524749886,0.1561908657409545
12.957207999999998,6.320832970737305,0.1559093448797478
12.959588,6.346066988649937,0.155508051135145
12.961992,6.362967738352807,0.1552154889634466
12.964379999999998,6.373442876935846,0.1550734622762925
12.96676,6.393229671116668,0.154776214070318
12.969155999999998,6.415250883469385,0.154464282726549
12.971543999999998,6.439925822874578,0.1541156401879806
12.973924,6.463297509667655,0.1537669723765894
12.976319999999998,6.477497310489809,0.1535646489934438
12.985888,6.494348942506566,0.1534527221723302
12.988271999999998,6.497701517693341,0.1533733249179778
12.990668,6.500914323253257,0.1533014777661074
12.993056,6.511157144410819,0.1531356729654555
12.995435999999998,6.523541835941658,0.1529233723149383
12.997832,6.54170051228627,0.152573464795089
13.000215999999998,6.555295908630609,0.1523337113829012
13.002596,6.576852486132371,0.1519885645102903
13.005,6.5977574373280765,0.1516403134513424
13.007388,6.611492603299273,0.1513971552689276
13.009767999999998,6.623924516658356,0.1511507676469984
13.012172,6.636635969271159,0.1508873722898792
13.01456,6.643852976323906,0.1507463299751633
13.016939999999998,6.65600535042927,0.1505199414182466
13.019336,6.668157724534629,0.1502958070442475
13.021724,6.680262876811746,0.1501153774917115
13.024103999999998,6.7015399150597865,0.1498050248182191
13.0265,6.721885787748049,0.1495060575395639
13.028887999999998,6.745584235623092,0.1491301600122784
13.031268,6.7678396612591545,0.1487542332129536
13.033663999999998,6.792097187641636,0.1483427420911753
13.036051999999998,6.809417246225086,0.1480562591921883
13.038448,6.833162915928368,0.1476378558209432
13.040844,6.846805534100952,0.1473670207488573
13.043228,6.861658857087033,0.1470699765920867
13.045611999999998,6.868736094512921,0.14694297078029
13.048008,6.880097072685366,0.1467296018776168
13.050396,6.885219431193081,0.146596173205278
13.052772,6.887548293021462,0.1465022391199783
13.055172,6.890808320409622,0.1463947565512988
13.05756,6.8940683477977815,0.1462875157160964
13.059939999999996,6.896397209626164,0.1461936061029308
13.062335999999998,6.900775394029205,0.1460215328476538
13.064723999999998,6.897564484327161,0.1459661934849971
13.06712,6.893422409065336,0.1459242981333791
13.071904,6.879179178130677,0.1459016997014783
13.074284,6.872942454323816,0.1458597152096858
13.07668,6.87057016238293,0.1457572912784412
13.079068,6.874855798987353,0.1455569528271107
13.081447999999998,6.876208169285581,0.1454029791325126
13.083844,6.882915215517003,0.1451454472068648
13.086232,6.884686894695812,0.1449689563095712
13.088611999999998,6.89246487611387,0.1446919560157294
13.091008,6.895167720852456,0.1445025814608627
13.093395999999998,6.900291975218039,0.1442555953996216
13.095792,6.901551797717649,0.1440678567950172
13.098188,6.906396512829512,0.1438370876881261
13.100576,6.916688451673184,0.1435366015429831
13.102956,6.926840620889996,0.1432444471130143
13.105359999999996,6.939134660480087,0.1429136998403436
13.107744,6.955991980070449,0.1424892049971624
13.110128,6.972290221153374,0.1420966186367304
13.112524,6.991941037423074,0.1416335582374088
13.114912,7.010940227386716,0.1411691152232692
13.117292,7.032500596604216,0.1406414343422088
13.119688,7.049916994702023,0.1401876231043496
13.122076,7.067845249479026,0.1397457110225347
13.124456,7.080139289069118,0.1394215877833085
13.12686,7.083493760113761,0.1392379992574949
13.129244,7.087779396718182,0.139041341471887
13.131624,7.086570587762552,0.1389522119381679
13.134028,7.087363879553338,0.1388308697896266
13.136416,7.084292739478151,0.1387662384972068
13.169856,7.061623692535112,0.1387506430263585
13.17224,7.068653708132758,0.1386815409858661
13.174636,7.087137249701464,0.1384619423998219
13.177032,7.109205683882423,0.1382058494351331
13.17942,7.138491125116132,0.1378352220756741
13.1818,7.16828842302904,0.1374783775998665
13.184196,7.202741548740839,0.1370674383029083
13.186584,7.237334444079499,0.1366496524946201
13.188964,7.269133842738822,0.1362689555293025
13.191368,7.300002075838366,0.1358994670770373
13.193752,7.333943344870966,0.1354847423577461
13.196136,7.368303922784148,0.1350551405246596
13.198528,7.403316127003387,0.1346292007311435
13.200916,7.448618374208429,0.1340463234167393
13.2033,7.5007183195856415,0.1333799480885912
13.205692,7.550676394589577,0.1327563375863691
13.20808,7.600774239220372,0.1321333096061568
13.210476,7.653665580530502,0.1314803638112147
13.212872,7.70813971370647,0.1308266282091197
13.21526,7.759028954270184,0.1302097031632274
13.21764,7.805913993341063,0.1296540401880893
13.220036,7.84972599647889,0.1291484912355261
13.222424,7.88967356775074,0.1287007267628556
13.224808,7.929900678276311,0.1282466371074818
13.227211999999998,7.96477311286869,0.1278765979961739
13.229599999999998,8.00085625227457,0.1274882919097542
13.23198,8.03493729093403,0.1271289459545259
13.234375999999996,8.072091365526546,0.1267328296908057
13.236764,8.11217870642526,0.1263066487719847
13.239148,8.155339083257028,0.1258432495167667
13.241543999999998,8.193983401916764,0.1254200485005133
13.243932,8.229042827964246,0.1250299164061452
13.246312,8.261588296586114,0.1246523913145637
13.248708,8.288918858901651,0.1243496816000858
13.251096,8.311873132672016,0.1240826179827185
13.253476,8.330311348270348,0.1238513028739141
13.255879999999998,8.344465823122128,0.123679786052508
13.258267999999996,8.361553564280102,0.1234789698489728
13.260648,8.37626711763932,0.1232863733431192
13.263051999999998,8.391539749505982,0.1230688548715213
13.265439999999998,8.407091920626366,0.1228392654581177
13.26782,8.420641991000329,0.1226323670507105
13.270215999999998,8.430746938388902,0.1224478309997054
13.272603999999998,8.434193957232166,0.1223283657033524
13.274984,8.438851680888925,0.1221878287356257
13.27738,8.439365433425992,0.1220998116602812
13.279768,8.440950121149697,0.1219976301368314
13.282148,8.439601542567207,0.1219268494417887
13.284551999999998,8.432246661745467,0.1219238637018817
13.286939999999998,8.424100384990806,0.1219224556060162
13.28932,8.419027144169203,0.1218844214898591
13.291719999999998,8.414605529653656,0.1218502853176114
13.294104,8.418052548496917,0.1217339220631514
13.296488,8.421267249914703,0.1215956973713584
13.298883999999996,8.419686353906734,0.1215031540553074
13.301272,8.423273142376853,0.1213802328062072
13.303652,8.431935067526448,0.1211990699204459
13.306048,8.437012100063788,0.1210455506224077
13.308436,8.441949362974267,0.1208981944192146
13.31082,8.450983375176198,0.1207364158417643
13.313216,8.460669013684187,0.1205791671705031
13.315607999999996,8.472264205139979,0.1203725726725231
13.317988,8.480786360662712,0.1202000436558462
13.320391999999998,8.49554713585017,0.1199841490094442
13.322775999999998,8.514451882157326,0.1197211786800913
13.325156,8.537128512531837,0.1193943826968369
13.327555999999998,8.556080480667232,0.1190989404964693
13.32994,8.577406636601387,0.1187998489821005
13.332335999999998,8.60459932514793,0.1184428515762105
13.33474,8.630069452201775,0.1180976674627605
13.337124,8.6552600400019,0.1177663152658783
13.339508,8.679239922988529,0.1174536895936175
13.341904,8.695630711870074,0.1172097479627445
13.344292,8.712952666311391,0.1169597118881419
13.346671999999998,8.735861614111384,0.1166647015449831
13.349076,8.756396374112622,0.1163747633311385
13.351464,8.775488111874882,0.1160849381458788
13.353844,8.788713317024753,0.1158492461085758
13.35624,8.801007356614845,0.1156207835569549
13.358624,8.809856273219541,0.1154114512463101
13.361007999999998,8.818333102771902,0.115186980102484
13.363404,8.8266701626974,0.1149690691674366
13.365792,8.844877956728125,0.1146582725666748
13.368171999999998,8.861782498146733,0.1143410128704005
13.370576,8.872960276579812,0.1140728984447191
13.372964,8.880785479826114,0.1138490993133554
13.375343999999998,8.891404179751754,0.1136044822008741
13.37774,8.896715425572442,0.1133899510011351
13.380132,8.89643967803446,0.1132168277913793
13.382507999999998,8.895744621615897,0.1130606904591577
13.384912,8.895980730757113,0.1128982677146247
13.3873,8.899429645458245,0.1126988947898134
13.389679999999998,8.904601121652071,0.112491246872306
13.392087999999998,8.910563993778817,0.1122835606405132
13.394472,8.913873138853084,0.1120908046700969
13.396852,8.924259521353243,0.1118313750778223
13.399255999999998,8.933155659786184,0.1116012908939844
13.401643999999996,8.946987165271736,0.1113258442735659
13.404024,8.965893807436757,0.1110030474204363
13.406427999999998,8.985312306280981,0.1106909144734543
13.408815999999998,9.00803615848374,0.110372205467163
13.411196,9.030992328111967,0.1100754793325013
13.413595999999998,9.047942195500951,0.1098363013570616
13.415983999999998,9.06861672512905,0.1095754566303249
13.418364,9.096880348862229,0.1092630258206537
13.420768,9.127146073341828,0.1089337554186906
13.423156,9.157551567448287,0.1086008945409619
13.425535999999996,9.193544054913415,0.1082323654021626
13.427936,9.236334240550711,0.1078129120399844
13.430319999999998,9.28140606618815,0.1073679655936984
13.4327,9.326477891825586,0.1069265755617744
13.435095999999998,9.374482983769218,0.10646917146857
13.437483999999998,9.425421342019044,0.1059925470670017
13.439864,9.473426433962674,0.1055400942003936
13.442259999999996,9.525156188145418,0.105067718215962
13.444648,9.569808704902274,0.1046608218623102
13.447028,9.615532156845768,0.104244206497249
13.449431999999998,9.664980271028371,0.1038094951271718
13.451816,9.71293814114376,0.1034065264749005
13.454196,9.761315320139726,0.102990075775671
13.456595999999998,9.80396573615016,0.1026123232187579
13.45898,9.84675592178746,0.1022304805755174
13.461364,9.885541905931928,0.1018777133886184
13.46376,9.917250652650502,0.1015842578945158
13.466144,9.940019830823632,0.1013597707112098
13.468528,9.960647138623484,0.1011560038712585
13.470924,9.981134676796476,0.1009582062774156
13.473312,9.999759883849912,0.1007721478672466
13.475692,10.014241119783652,0.1006226228043408
13.504376,9.940968059104234,0.1005852351451947
13.506771999999998,9.930819681603158,0.1005802764619775
13.509156,9.930681807834167,0.1005039562795114
13.51154,9.93482767481173,0.1003897237189297
13.513935999999998,9.947121714401822,0.1002145750770144
13.516324,9.962768329178688,0.1000070190279078
13.518704,9.975761216903082,0.0998087458431912
13.5211,9.985960607948138,0.0996243777897238
13.523488,9.995368603060278,0.0994397807080633
13.525868,10.00906033891897,0.0992177486542363
13.528264,10.028618607390053,0.0989588122765417
13.530652,10.051901538100248,0.0986813223585815
13.533036,10.080259605489914,0.0983673416272342
13.535436,10.109828377693082,0.098040072504588
13.537824,10.143401351389084,0.0976862813606417
13.540204,10.17404105877889,0.0973515835065554
13.5426,10.205332392474752,0.0970229357042031
13.544988,10.231548589491146,0.0967319224706701
13.547372,10.266564585426122,0.0963863638250475
13.549768,10.30251174692088,0.0960376206078247
13.552156,10.337667512482716,0.095692064385879
13.554536,10.369470702857775,0.0953795326932497
13.556936,10.395267590993589,0.0951101134962694
13.559324,10.418131212823203,0.094859225239233
13.561704,10.432986431667151,0.0946617364126631
13.564104,10.444489075324327,0.094495740542184
13.566488,10.461718481967033,0.0943009138088189
13.568872,10.484023025289206,0.0940724896733316
13.571268,10.50753827342488,0.0938310661684444
13.573652,10.529191190440995,0.093599250911645
13.576031999999998,10.549121545964418,0.0933730263675224
13.578428,10.566957252942805,0.0931372288261701
13.580816,10.579857592868578,0.0929309607297082
13.583212,10.590755832047936,0.0927373289591199
13.585608,10.595787538614903,0.0925764687015269
13.587996,10.604171820368649,0.0923863318721251
13.590376,10.61469797249567,0.0921805939083089
13.592772,10.627365994995968,0.0919579005624132
13.595164,10.635378189697372,0.0917556132553478
13.597544,10.645392485145193,0.0915424668829119
13.59994,10.65247351428682,0.0913455583109816
13.602328,10.662907118615223,0.0911203288310265
13.604708,10.671478391824072,0.0909022614878286
13.607108,10.681911996152476,0.0906770001319813
13.609492,10.694487470854156,0.0904346672475751
13.611876,10.710275751115754,0.090168491319791
13.614272,10.723410304324874,0.089911064296193
13.61666,10.73174926010824,0.0896769859847056
13.619044,10.744092417384444,0.0894214261661294
13.62144,10.757366740220426,0.0891630847724207
13.623828,10.768499192683128,0.0889208943959437
13.626224,10.783356307384947,0.0886661124348751
13.628619999999998,10.801565997273538,0.0883841507555646
13.631011999999998,10.823268031975768,0.0880716469131104
13.633392,10.850604281864912,0.0877128322267614
13.635792,10.873144934328304,0.087375810815547
13.638175999999998,10.889027658246386,0.0870668005562445
13.640556,10.909333892537882,0.0867255983836059
13.64296,10.932713162762436,0.0863675064048063
13.645347999999998,10.951576374814955,0.0860226268455468
13.647728,10.970719126121198,0.0856693170885756
13.650123999999998,10.987859776681022,0.0853280815185101
13.652507999999996,11.009423937614262,0.0849540788295638
13.654892,11.030336472241444,0.0845759773547926
13.657296,11.051388776495484,0.0841935692314419
13.659679999999998,11.07472272074966,0.0837960544044034
13.66206,11.094052463511003,0.0834189797737858
13.664464,11.119248738884735,0.0830174165572779
13.666852,11.13950964720586,0.0826411518226206
13.669231999999996,11.157768454780566,0.0822754463193391
13.671627999999998,11.179100298288326,0.0818938957354354
13.674015999999998,11.195217235489755,0.0815441567341169
13.676396,11.211054633437463,0.0812040551412464
13.6788,11.225541556944815,0.080880755358715
13.681188,11.236256596384807,0.0805949386244205
13.683567999999998,11.24762326213086,0.080313473354624
13.685963999999998,11.262574820489164,0.0800242413443974
13.688351999999998,11.26788796216772,0.0797964585316509
13.690732,11.269848528659502,0.0795935268860354
13.693127999999998,11.27218118220362,0.0794037608774535
13.695515999999998,11.277167562800214,0.0792104087832775
13.697896,11.281222777837028,0.0790197963850366
13.700295999999998,11.282856583246843,0.0788512167516952
13.702683999999998,11.282208748656528,0.0786998226045619
13.705064,11.284354410745545,0.0785409008034343
13.707459999999998,11.280074461714728,0.0784218327972271
13.709847999999996,11.28231267160236,0.0782851128804731
13.712228,11.281338075930078,0.07816857090071
13.714627999999998,11.280083941004074,0.0780598595767135
13.717012,11.282694237944042,0.0779375661497746
13.719396,11.27887892376418,0.0778537329442778
13.721792,11.277717336636794,0.0777664471102229
13.72418,11.276136440628829,0.0776912382273891
13.726575999999998,11.274415774994004,0.0776201253957464
13.728972,11.278841181225287,0.0775191692840762
13.73136,11.292066386375158,0.0773859102550053
13.733739999999996,11.308504397084942,0.0772346788977831
13.73614,11.334301285220754,0.077035301648619
13.738528,11.36224004372984,0.0768239481821287
13.740907999999996,11.394742082239205,0.0765812834487904
13.743312,11.42417108481551,0.0763540006148072
13.7457,11.458255915190708,0.0761170302128007
13.748079999999998,11.493132141498826,0.0758823882747874
13.750471999999998,11.531872799672914,0.0756354697957203
13.752859999999998,11.569822061914088,0.0753888028185514
13.75524,11.608982028968756,0.0751317450907916
13.757635999999998,11.644277564157456,0.0748887545192646
13.760023999999998,11.67757099859974,0.0746543284256213
13.762404,11.71687073528127,0.0743974185274039
13.764808,11.752306040096828,0.0741540382646519
13.767191999999998,11.796308826405491,0.0738641276422469
13.769572,11.839939525661825,0.0735621085089397
13.771967999999998,11.884129303425592,0.0732462712335298
13.774355999999996,11.929250246749138,0.0729300976977949
13.77674,11.967713261527376,0.0726339029709721
13.779135999999998,11.997656016640752,0.0723615997280068
13.78152,12.02452573582107,0.0721040385336204
13.783915999999998,12.049253584628117,0.0718599792909127
13.786312,12.071979332688738,0.071623853960693
13.7887,12.087208534442892,0.0714267272222197
13.79108,12.10644193768988,0.071215566107177
13.793475999999998,12.12087974351112,0.0710180806673699
13.795863999999998,12.134805692653156,0.0708119227287516
13.798244,12.145938145115862,0.0706115185835139
13.800648,12.155859892765063,0.0704206538968574
13.803031999999998,12.166852575600911,0.0702245120973425
13.805412,12.176262466570922,0.0700244361157831
13.807807999999998,12.182739091234732,0.0698324447000467
13.810195999999998,12.183628722539876,0.0696516369615216
13.812592,12.185729058658517,0.069461873770014
13.814988,12.183545654030604,0.0692940051270421
13.817376,12.184155746082023,0.0691217493491501
13.819755999999998,12.184626068506583,0.0689534972353481
13.822164,12.181651267945757,0.0687845173339423
13.824548,12.18160973369112,0.068607223323979
13.826928,12.184501465742684,0.0684217266878525
13.829332,12.18846413298088,0.0682314247718949
13.83172,12.187491433166468,0.0680558351235267
13.8341,12.18959176928511,0.0678688623205658
13.836496,12.197046781336944,0.0676562057631672
13.838884,12.201708296709445,0.0674487561942999
13.841259999999998,12.20851168245522,0.0672315154665605
13.843667999999996,12.213964593760636,0.0670264175329598
13.846052,12.225423807305305,0.0668031427056827
13.848432,12.241958157529444,0.0665636987236291
13.850835999999996,12.26142577405978,0.0663177744544283
13.853224,12.28382665689631,0.0660646832835494
13.855604,12.315306877905144,0.0657827963971335
13.858,12.347298955593182,0.0655104180710914
13.860384,12.377940558840857,0.0652501889655017
13.862764,12.407650996528757,0.0649914962040039
13.865164,12.434428167910456,0.0647415652789267
13.867552,12.461205339292157,0.0644926764765608
13.869932,12.490356698472612,0.0642507495362726
13.872332,12.519088748772488,0.0640201458079324
13.87472,12.545539159072224,0.0638028457101197
13.8771,12.571337943065904,0.0635808119866905
13.879496,12.602072094112197,0.0633461868932225
13.881884,12.629733209225437,0.0631227847957188
13.884263999999998,12.65911688583137,0.0629019911138408
13.88666,12.685567296131108,0.0626879568132895
13.889052,12.706802800124514,0.0624930720245426
13.891431999999998,12.72710713855814,0.0622989746507568
13.893836,12.742615879566015,0.0621152200471529
13.896224,12.750255987215086,0.0619509074079839
13.898604,12.751889792624905,0.0618032700402893
13.901,12.7544547635945,0.0616551057995818
13.903388,12.752363906765204,0.061512668324892
13.905767999999998,12.752275150682324,0.0613651548682241
13.908164,12.75660990497286,0.0611974095684277
13.910548,12.764157464823311,0.0610171651547947
13.912944,12.770913628740848,0.0608346475991555
13.91534,12.772874195232628,0.0606598139672607
13.917728,12.77539384023185,0.0604720638388109
13.920112,12.777401628551871,0.0602754982217663
13.922508,12.782761992058672,0.060063370878709
13.924896,12.78984491705817,0.0598535116395773
13.927276,12.793482719072276,0.0596406675295836
13.929672,12.80233542739271,0.059411409072516
13.93206,12.808534408660671,0.0591820530829896
13.93444,12.819808526608108,0.0589391802500685
13.93684,12.834435219742316,0.0586802102035748
13.939228,12.8548358976903,0.0583922216563542
