Time,Force,Position
16.460207999999998,6.605515874135191,0.1618221070153518
16.462587999999997,6.622461949808435,0.1616210126340198
16.464992,6.6331694058169495,0.1615105021290257
16.46738,6.648438245967871,0.1614135756097392
16.469759999999997,6.681212240299476,0.1610881032624944
16.472156,6.724136507990027,0.1605691350458426
16.474543999999998,6.768970328628378,0.1599913931379634
16.476923999999997,6.817389041878984,0.1593745727159484
16.479319999999998,6.871207757033154,0.1587266076503839
16.481711999999998,6.938342329277942,0.1578518344303791
16.484091999999997,7.004220870738858,0.1569403025120655
16.486492,7.063116618430371,0.1560799276365603
16.488875999999998,7.121593057241302,0.1552515394753109
16.491259999999997,7.190963943515854,0.1542829489399371
16.493655999999998,7.267039980163956,0.1531804781972027
16.496043999999998,7.336505310094994,0.1521564310691955
16.498423999999996,7.406622266332088,0.1511419300959085
16.500823999999998,7.479345727793413,0.1501435102336194
16.503211999999998,7.551789650001019,0.149162243891863
16.505591999999996,7.617111008812364,0.1482392553248847
16.507987999999997,7.672608855346726,0.1474523687057443
16.510375999999997,7.721169234082059,0.1467895864614487
16.512759999999997,7.773314505429647,0.1460883715314368
16.515155999999998,7.823365128232199,0.1454004174478562
16.517543999999997,7.86345246913091,0.144840568675812
16.519927999999997,7.899395838909928,0.1443606165789543
16.522323999999998,7.933848964621725,0.1439297709100001
16.524711999999997,7.967510694400605,0.1435124535150877
16.527095999999997,7.996935905261174,0.1431338921889657
16.529491999999998,8.02291599313635,0.1427921958276493
16.531879999999997,8.047545606571166,0.1424835793964862
16.534263999999997,8.076551508551155,0.1421327713515763
16.536659999999998,8.103043453105528,0.1418019314915696
16.539051999999998,8.119292576502339,0.14159576725829
16.541431999999997,8.1300472543391,0.1414863509296032
16.543827999999998,8.144619142213587,0.1413636729455291
16.546215999999998,8.159470569341797,0.1412291189345619
16.548599999999997,8.171947808671254,0.1411074586482728
16.550995999999998,8.187358314306904,0.1409487894351471
16.553383999999998,8.205794634047368,0.140780528458453
16.555763999999996,8.226093284907387,0.1405906661683709
16.558163999999998,8.242946812782014,0.140427917969506
16.560551999999998,8.255563821738331,0.1402994376114538
16.562935999999997,8.265247564388451,0.1402098999638042
16.565331999999998,8.281077378904683,0.1400317566715383
16.567719999999998,8.291040660808523,0.1399287156165169
16.572499999999998,8.297464376070486,0.1399256110962775
16.574887999999998,8.304726709093607,0.1398843357642554
16.577271999999997,8.309986941370315,0.1398703860213119
16.579667999999998,8.314455777714103,0.1398602505616968
16.582055999999998,8.319343922938472,0.1398311538332699
16.584439999999997,8.32530300334948,0.1397853194218318
16.58684,8.33102976633501,0.1397167760895809
16.589228,8.334801650402367,0.1396400686492556
16.591607999999997,8.334756324431995,0.1395764170272836
16.594008,8.332848667342065,0.1395334600617973
16.596396,8.33187217581191,0.1394802872622493
16.598779999999998,8.327031252415786,0.1394743240050831
16.601176,8.325403134579574,0.1394187666935725
16.603564,8.327639448609338,0.1393172864849008
16.605947999999998,8.338023935251627,0.1391051508149242
16.608344,8.348548191520779,0.1388862968814045
16.610732,8.35963152629737,0.1386423110638488
16.613111999999997,8.363777393274933,0.1384869017709444
16.615515999999996,8.377421907305385,0.1381928271098129
16.617904,8.390414795029777,0.137894213718335
16.620283999999998,8.40769142350072,0.1375301339949093
16.622687999999997,8.414026382679806,0.1373074977660004
16.625072,8.423294608165085,0.1370495593044437
16.627456,8.436287495889475,0.1367534531905135
16.629851999999996,8.446067578053952,0.1365063689476306
16.632236,8.455987429845289,0.1362533413501349
16.634619999999998,8.471354505368435,0.1359490822149274
16.637016,8.489515077570918,0.1356159477661327
16.6394,8.510469146452733,0.1352552690863217
16.641783999999998,8.533285546454106,0.1348771389528307
16.64418,8.55610194645548,0.134500801021937
16.646563999999998,8.579058116083711,0.1341171229365214
16.64896,8.597358457913051,0.1337836133177285
16.651363999999997,8.609000871197086,0.1335231485128246
16.653751999999997,8.616359543734564,0.1333266291308387
16.656131999999996,8.62464938183182,0.1331209166445619
16.658527999999997,8.632939219929076,0.132915758346489
16.660915999999997,8.64500094209369,0.1326395148704336
16.663299999999996,8.651056362019052,0.1324386156043692
16.665695999999997,8.659253652317693,0.1322069029482996
16.668079999999996,8.664797215563858,0.1319968795112601
16.670464,8.678488951422551,0.131683133292413
16.672859999999996,8.690178586534827,0.1313949320507014
16.675247999999996,8.69842309866171,0.1311318005977784
16.677628,8.706015984482535,0.1308645974637853
16.680031999999997,8.712677704743582,0.1306063942511462
16.682419999999997,8.7136126620191,0.1304082502803426
16.6848,8.713756223361699,0.1302133590788794
16.687195999999997,8.711246057651824,0.1300393018779478
16.689583999999996,8.703148898583278,0.1299180664829506
16.691968,8.693049638768315,0.1298205335435937
16.694363999999997,8.684021314139992,0.1297079436214277
16.696748,8.67178018395175,0.1296402170795501
16.699132,8.663263716002625,0.129536637585773
16.701535999999997,8.653676312866859,0.1294480599497561
16.703923999999997,8.64595124085065,0.1293414762366112
16.706304,8.636084298461164,0.1292646496496589
16.708703999999997,8.626309903870295,0.1292150497329977
16.711091999999997,8.617326905212344,0.1291625582185958
16.713472,8.609414841741033,0.1290949358275379
16.723039999999997,8.561190703377008,0.1290356828650138
16.725427999999997,8.555373288450731,0.1289715209796507
16.727807999999996,8.552209600576928,0.1288875594473681
16.730207999999998,8.551839409382461,0.1287775641911965
16.732595999999997,8.551329448561132,0.1286736538975302
16.734975999999996,8.551750653299582,0.1285611705437473
16.737371999999997,8.55990072176998,0.1283686439021022
16.739759999999997,8.570332430240512,0.1281414065869039
16.742143999999996,8.583697405017244,0.1278845632392776
16.744539999999997,8.607212653152915,0.1275099143728485
16.746927999999997,8.63165906684837,0.1271292785761436
16.749308,8.660249451663514,0.1266999383046329
16.751703999999997,8.685766800545606,0.126308235467544
16.754091999999996,8.71472927241309,0.1258954772959707
16.756472,8.746485240959906,0.1254618509493161
16.758875999999997,8.777310043946947,0.1250361646660195
16.761263999999997,8.80692414212049,0.1246320544172016
16.763647999999996,8.837981262533006,0.1242315141512501
16.766043999999997,8.879980052237386,0.1237154035562256
16.768431999999997,8.922398150822346,0.1231848021172388
16.770812,8.965747414967085,0.1226498038788833
16.77322,9.001879672059076,0.1222015372250328
16.775603999999998,9.037220533218148,0.1217585377851978
16.777987999999997,9.075354891056554,0.1212953217685146
16.780383999999998,9.11400110557416,0.1208425937873591
16.782767999999997,9.154090342330738,0.1203941328268778
16.785151999999997,9.1921774783409,0.1199725893407219
16.787547999999997,9.231195779910845,0.1195476391025793
16.789931999999997,9.268072211107508,0.1191525818020972
16.792315999999996,9.294518829691508,0.1188762470653623
16.794711999999997,9.318311721223033,0.1186171183278139
16.797095999999996,9.339171346448364,0.1183870947082586
16.79948,9.363104007606749,0.1181255250706125
16.801875999999996,9.385593646526155,0.1178627917279662
16.804263999999996,9.403846766527254,0.1176205945794355
16.806648,9.425033152834548,0.1173528677027923
16.809043999999997,9.448221639888258,0.1170672154734376
16.811431999999996,9.470758500635911,0.1167793854146546
16.813827999999997,9.486357893584536,0.1165580552033912
16.816224,9.50074658171966,0.1163549165152659
16.818611999999998,9.512341773175448,0.1161724028512284
16.820991999999997,9.527289539818012,0.115948193300479
16.823387999999998,9.541026601647076,0.1157418603350895
16.825775999999998,9.553972267543228,0.1155386601005516
16.828155999999996,9.568268407879737,0.1153140855389746
16.830551999999997,9.580702217096686,0.1151032138943118
16.832939999999997,9.594067191873416,0.1148877233516241
16.835323999999996,9.608083792956204,0.1146781058949868
16.837719999999997,9.624102494785408,0.1144522257198834
16.840107999999997,9.651621944413916,0.1141127309012332
16.842491999999996,9.682586517027817,0.1137599422918183
16.844891999999998,9.714342485574631,0.1134072269246792
16.847279999999998,9.745958684494592,0.1130623657096909
16.849659999999997,9.781439315280524,0.1126913282586395
16.852059999999998,9.81943390349207,0.1123137642505622
16.854447999999998,9.859290822823173,0.1119287696025679
16.856831999999997,9.900078907714054,0.1115418767491066
16.859227999999998,9.941658388537853,0.1111566628295428
16.861615999999998,9.988033466787408,0.1107401640970556
16.863999999999997,10.035619249850456,0.110309849388092
16.866395999999998,10.086929695152618,0.1098585341032811
16.868783999999998,10.141313176387838,0.1093858634527384
16.871167999999997,10.197047132063414,0.108894657401837
16.873564,10.252781087738992,0.1084077898192515
16.875947999999998,10.305581777108374,0.1079441163108797
16.878331999999997,10.360803876104754,0.1074528183948131
16.880727999999998,10.410438981742464,0.1069956883098147
16.883115999999998,10.456209655514202,0.1065667784437401
16.885495999999996,10.498115897419964,0.1061663250516161
16.887891999999997,10.529080470033865,0.1058516846020437
16.890279999999997,10.555668754102593,0.1055548471425214
16.892675999999998,10.580254937424904,0.1052734875390954
16.895072,10.601116458508102,0.1050135280907093
16.940468,10.174792055664328,0.1049997066087693
16.942847999999998,10.151097399505026,0.1049813865113505
16.945244,10.13713370782409,0.1048984700505417
16.947632,10.12247116800885,0.1048389097645294
16.950011999999997,10.114466556738922,0.1047394251625188
16.952408,10.11246824770824,0.1045955182238682
16.954795999999998,10.112052730543398,0.104451087231274
16.957179999999997,10.125092840096036,0.104223510989962
16.959576,10.137201784088887,0.1040014926124278
16.961964,10.15755144849289,0.1037407260895797
16.964347999999998,10.178552739202951,0.1034843443274313
16.966751999999996,10.20062496509965,0.1032184401216262
16.96914,10.234709795474846,0.1028663705008914
16.971519999999998,10.2718676617831,0.1024930863590076
16.973923999999997,10.313681355890246,0.1020981825636981
16.976311999999997,10.360849725930583,0.1016574264503955
16.978696,10.410671823023396,0.1012089707231189
16.981091999999997,10.461936942355187,0.1007639117195115
16.983479999999997,10.512410665754055,0.1003222703841759
16.985864,10.561022058033371,0.099892898379076
16.988259999999997,10.605489479192991,0.099497246694181
16.990647999999997,10.651539692218453,0.0991052013455577
16.993032,10.693073847071876,0.098735621169399
16.995427999999997,10.735446619686464,0.0983397745851534
16.997811999999996,10.778750557860832,0.0979430297557518
17.000192,10.818050294542362,0.0975738714860333
17.002588,10.854836073798282,0.0972092961609058
17.004976,10.883241363016191,0.0968883252042972
17.007355999999998,10.911646652234104,0.0965679907580515
17.009756,10.93274238660065,0.0962787454850767
17.012144,10.951463933168435,0.09598830557536
17.014523999999998,10.972978976415565,0.0956866659653959
17.016923999999996,10.985833990370962,0.0954332210773132
17.019312,10.994824572460388,0.0952016917165401
17.021691999999998,10.996086290817868,0.0950117808679533
17.024091999999996,10.995485678055791,0.0948308280338191
17.02648,10.99008946786796,0.0946742435841213
17.028859999999998,10.98660281062793,0.0944833818837502
17.031259999999996,10.981114052641484,0.0943048528309128
17.033644,10.97362319390862,0.0941383313607319
17.036027999999998,10.970136536668589,0.0939473176770792
17.038431999999997,10.961062886069888,0.0937799291746633
17.040819999999997,10.952780631404108,0.0936129733149199
17.0432,10.944218837484604,0.0934545455844729
17.045595999999996,10.928999115019792,0.0933272668021178
17.047987999999997,10.918714759607594,0.0931721071226553
17.050368,10.911223900874733,0.0930052877237955
17.052767999999997,10.90317396363443,0.0928554166048763
17.055155999999997,10.896055191953904,0.0927018077399611
17.057539999999996,10.893592248072268,0.0925291961758829
17.059939999999997,10.896856067176168,0.0923299353299097
17.062323999999997,10.895464058481174,0.0921496028910755
17.064707999999996,10.901800913518128,0.0919317892740424
17.067103999999997,10.908789394861136,0.0917188317685621
17.069495999999997,10.92085301288362,0.0914742501976994
17.071875999999996,10.931426386838885,0.0912509212110621
17.074271999999997,10.948797458966316,0.0909941692189495
17.076659999999997,10.962536416653249,0.0907740839862428
17.079036,10.976927000646242,0.090558823214115
17.081439999999997,10.99518201650521,0.0903253637274104
17.083827999999997,11.0112951619909,0.0901084109594202
17.086208,11.031924365648624,0.0898779369301672
17.088611999999998,11.04840959818665,0.0896742194173805
17.090999999999998,11.063404586657455,0.0894909770666907
17.093379999999996,11.086128438860214,0.0892712667734101
17.095784,11.105779255129915,0.0890717517918129
17.098167999999998,11.127804259198372,0.0888758819679542
17.100551999999997,11.150900198453463,0.0886722171146571
17.102952,11.175067072895194,0.0884622230418006
17.105339999999998,11.200165112896704,0.0882507874021202
17.107719999999997,11.223912678457856,0.0880569338672188
17.110124,11.249382805511702,0.0878604293004733
17.112512,11.26735638625908,0.0877169768359972
17.114891999999998,11.286261132566237,0.0875705752205705
17.117295999999996,11.30502610924653,0.0874290640939477
17.119684,11.327003891486743,0.0872663520048265
17.122063999999998,11.345257011487844,0.0871177614897443
17.12446,11.37058736891483,0.0869316921757708
17.126848,11.398199366341954,0.086727985220414
17.129227999999998,11.42567159414222,0.0865298754228413
17.131631999999996,11.45528569231576,0.0863185273673654
17.134016,11.48625026492966,0.0860940456921856
17.136395999999998,11.52401253571573,0.0858409288406337
17.138803999999997,11.566058547248351,0.0855607520672072
17.141187999999996,11.607452932474915,0.0852793577716688
17.143568,11.6520601232614,0.0849792339326497
17.145964,11.691359859942931,0.0846897698419545
17.148352,11.734663798117296,0.0843829514984786
17.150731999999998,11.777036570731884,0.0840810921137974
17.153128,11.81326327148036,0.0838121379054386
17.155516,11.846836245176355,0.083548494769832
17.157895999999997,11.882551089245636,0.0832726601668354
17.1603,11.92068734294191,0.0829750975939131
17.162688,11.962036402198104,0.0826600663255275
17.165067999999998,12.002454295894514,0.0823488115161101
17.167464,12.03607449141876,0.0820647576652411
17.169852,12.068483982129504,0.0817913986580631
17.172231999999997,12.094887170600998,0.0815475007734064
17.174635999999996,12.11807755351258,0.0813236824869973
17.17702,12.14126793642416,0.0811011645331163
17.179399999999998,12.162595988216182,0.0808849165417293
17.181807999999997,12.181782169634928,0.0806827801999458
17.184191999999996,12.19724368881456,0.0804919519900538
17.186571999999998,12.210051480941718,0.080305942420433
17.188975999999997,12.21657343157591,0.0801539061300449
17.191363999999997,12.21923095034412,0.0800159761674367
17.193744,12.224961505045387,0.0798632816063882
17.196139999999996,12.22310296564157,0.0797339506648255
17.198527999999996,12.220033721424254,0.0796145946863255
17.200908,12.224321253886544,0.079456292057889
17.203307999999996,12.234615088588086,0.0792734546837064
17.205692,12.24625939772999,0.0790785474969611
17.208076,12.262187447618444,0.0788610317765027
17.210472,12.271597338588451,0.0786600834184223
17.21286,12.2820781647451,0.0784536843595438
17.215239999999998,12.301498559447197,0.0782133143335874
17.21764,12.322269428589644,0.0779600681301303
17.220028,12.343180067358956,0.07770300852073
17.222407999999998,12.366512115755269,0.0774274193745784
17.224804,12.3871904370991,0.0771554925819916
17.227192,12.409870859189352,0.0768767684209008
17.229575999999998,12.42975778460027,0.0766046138426111
17.231972,12.447922148518488,0.0763330858797938
17.23436,12.46473603799635,0.0760746763022829
17.236743999999998,12.484762733034124,0.0757986298497756
17.23914,12.507582924751231,0.075517048934624
17.241528,12.52746985016215,0.0752457622901501
17.243907999999998,12.55029004187926,0.0749638588818918
17.246308,12.570596276170756,0.0746806160370485
17.248696,12.587038078596278,0.074410950784792
17.251075999999998,12.593469377289718,0.0741799102554769
17.253479999999996,12.594266460796243,0.0739844083579331
17.255867999999996,12.58891747243666,0.0738155434371219
17.258248,12.585942671875827,0.0736511667178977
17.260651999999997,12.584038806501637,0.073481707732261
17.263039999999997,12.577339343701691,0.0733260318387988
17.26542,12.573573147207943,0.0731615294841627
17.267815999999996,12.571809051460614,0.0729898359718047
17.270203999999996,12.57111589089992,0.0728133131032811
17.272584,12.571214126272148,0.0726384461068642
17.274983999999996,12.569450030524814,0.072467556622407
17.277371999999996,12.571829905897175,0.0722792464912245
17.279752,12.578074213135512,0.0720806659321425
17.282155999999997,12.588602261120403,0.0718618342154365
17.284539999999996,12.60006147466507,0.0716417872378487
17.28692,12.60965835709018,0.0714257920713899
17.289327999999998,12.62605293768746,0.0711922206647779
17.291711999999997,12.644309849404298,0.0709557831727972
17.294092,12.666151653733388,0.0707162346425495
17.296495999999998,12.687713918808756,0.0704840686648482
17.298883999999997,12.71234921981718,0.0702388911394703
17.301263999999996,12.7406166352661,0.069968280383125
17.303659999999997,12.770746381834575,0.0696943902120294
17.306051999999998,12.801015898029917,0.0694173803594014
17.308431999999996,12.82635004717264,0.0691556917141678
17.310827999999997,12.849402556315232,0.0689075775544499
17.313215999999997,12.866029454337989,0.0686899614747568
17.315596,12.881073560494908,0.0684691084217818
17.317995999999997,12.89504673146519,0.0682543217749408
17.320379999999997,12.909439211316052,0.0680296909553687
17.32276,12.923552151913196,0.0678122766335791
17.325155999999996,12.934592056577284,0.0676067279763843
17.327543999999996,12.94083636381562,0.0674120002126438
17.329928,12.94214530400134,0.0672316112544893
17.332323999999996,12.942802617881007,0.0670461538685621
17.334708,12.942808305454616,0.0668553391208569
17.337092,12.93387442448278,0.0666905199229358
17.339488,12.92535985239152,0.0665157672665281
17.341876,12.91926668992726,0.0663254473011686
17.344255999999998,12.91452400190336,0.0661239771836387
17.346656,12.916858551305348,0.0659008778235035
17.34904,12.918261935147555,0.0656794699721914
17.351423999999998,12.91794275749707,0.0654570002835883
17.35382,12.917903119100304,0.0652280322008344
17.356208,12.921867682196371,0.0649874632948216
17.358587999999997,12.928905281225497,0.0647366598746643
17.360984,12.938643829135335,0.0644629609880501
17.363372,12.948894233724374,0.0641982393769273
17.365755999999998,12.95528020644744,0.0639414497698476
17.368152,12.962457575103423,0.0636874288281661
17.37054,12.968983317453349,0.0634279849730444
17.372923999999998,12.974438124616634,0.0631726156208361
17.37532,12.985619694765452,0.0629076657018115
17.377708,12.997592660847188,0.0626446324611584
17.380091999999998,13.008075382861705,0.0623960847569195
17.382488,13.020932292674974,0.0621548583640367
17.384876,13.039004108794575,0.0618949692710967
17.387259999999998,13.05572545047382,0.0616468737481447
17.389656,13.065369554727177,0.0614193436734152
17.392039999999998,13.072871788607252,0.0612007497056959
17.394423999999997,13.076369820994495,0.0609938727929079
17.396819999999998,13.076515278194965,0.0608026291560699
17.399207999999998,13.080525167261404,0.0606045902170353
17.401587999999997,13.08667692670112,0.06039885254634
17.403996,13.09268891651398,0.0601969223268708
17.406384,13.098840675953696,0.0599923027344315
