Time,Force,Position
17.936163999999998,5.66480863081693,0.1700717219705635
17.93856,5.89593019405218,0.1677016962853593
17.940944,6.111877360792993,0.1655284952964261
17.94334,6.313534074770905,0.1635911459732556
17.945736,6.506861312254795,0.1615952238771578
17.948124,6.6752378627955125,0.1599178044208226
17.950508,6.822248619005309,0.1584245019874328
17.952904,6.953525900213231,0.1570378068575274
17.955288,7.068650397538696,0.1558325906640184
17.957672,7.165854223518636,0.1547094911787294
17.998299999999997,7.24130120953663,0.1546101690220059
18.000684,7.247073298492534,0.1545943040104953
18.003079999999997,7.251961443716904,0.1545523817662918
18.005467999999997,7.259643085620608,0.1544709641876566
18.007848,7.269791463121682,0.1544044842055476
18.010244,7.2762151783836435,0.1543904268789622
18.012628,7.288460100287622,0.1542092890195928
18.015008,7.294186863273152,0.1541221201971376
18.017412,7.303079209990355,0.1540117966863896
18.0198,7.319001572305204,0.1538134220417951
18.022184,7.336646496112749,0.153593170205747
18.024588,7.350194670628843,0.1534125600691059
18.026976,7.360949348465602,0.1532743475481605
18.029356,7.378594272273147,0.153060420038994
18.03176,7.403456203133441,0.1527168830577153
18.034148,7.424361154329145,0.1524046896456798
18.036528,7.436373758807647,0.1522018956052543
18.038932,7.452762651831319,0.1519533776653535
18.04132,7.475018077467381,0.1516120782743666
18.0437,7.494759545677829,0.1512978597906704
18.046096,7.513337530903022,0.1509759208714701
18.04848,7.533917616874632,0.1506263056722139
18.050864,7.554730020271719,0.1503014468307998
18.05326,7.575123114788225,0.1500004057308802
18.055648,7.594352726319475,0.1496882244513611
18.058028,7.620147718597417,0.1492528532926389
18.060424,7.641379430875084,0.1489122361461012
18.062812,7.667686279832224,0.1484905747434709
18.065192,7.692829645804108,0.1480589821111291
18.067596,7.721744895843348,0.1475462199156731
18.069984,7.754943886629142,0.1469612724678514
18.072368,7.789306360400192,0.146388183989968
18.074764,7.8271139571566355,0.1457876918956974
18.077148,7.85840339499463,0.1452712709989058
18.079528,7.884338156899433,0.1448516646381592
18.081932,7.912786876229849,0.1444135105689385
18.084316,7.950035394478852,0.1438528053169666
18.086696,7.976901321943433,0.1434262842262023
18.089092,8.001253291982398,0.1430232203902522
18.09148,8.026676197208001,0.1426048508790482
18.09386,8.05023677131405,0.1422110223616515
18.096256,8.069001747994346,0.1418817757725152
18.098648,8.087394637622303,0.1415371597856506
18.101028,8.105647757623402,0.1412003684570914
18.103424,8.127346000609894,0.1408355920653769
18.105808,8.145831438036467,0.1405268446194945
18.108208,8.165807119530262,0.1401804917266333
18.110604,8.180987203598304,0.1398955493158855
18.112992,8.198169388412763,0.1395847292581828
18.115372,8.210416206174612,0.1393419397980705
18.117768,8.218146965764427,0.139146155746637
18.120156,8.226017494981104,0.1389441926744725
18.122536,8.232025693078224,0.1387645930330132
18.124932,8.24548321565357,0.1385045411954584
18.127324,8.2569386374825,0.138269233282298
18.129704,8.264669397072316,0.1380751665749092
18.1321,8.268116415915578,0.137949071617858
18.134488,8.275288096997954,0.1377809358139945
18.136872,8.284322109199888,0.1375933897362046
18.139268,8.29242495584204,0.1374170768365537
18.141656,8.30332129916353,0.1372118850203355
18.144036,8.320223944724267,0.1369301240563243
18.146432,8.340711482897259,0.1366181864279306
18.148816,8.361478560323972,0.1362947809838182
18.151196,8.37931237144449,0.1360086134693822
18.153612,8.401522471110177,0.1356902001388165
18.156,8.424104657828204,0.1353882351229697
18.15838,8.449480341225565,0.1350576048033289
18.160784,8.47136367980929,0.1347874008978981
18.163168,8.49496957988571,0.1345046974734891
18.165548,8.521229207014608,0.1342011639977111
18.167944,8.549770474143642,0.1338631405154472
18.170332,8.575378474966481,0.1335596738478797
18.172712,8.596982274296485,0.1333088358470942
18.175116,8.626594476612157,0.1329613017827905
18.177504,8.661793672286498,0.1325609408261619
18.179884,8.698575659826679,0.1321561420243832
18.18228,8.740432784046329,0.1316915130237476
18.184668,8.778285706773147,0.1312757156744668
18.187048,8.815207463940185,0.1308703669094816
18.189444,8.851198055547444,0.13047851616137
18.191832,8.879040474542178,0.1301886717083432
18.194212,8.898222864245184,0.129989303658451
18.196608,8.916334318761553,0.1298052115867518
18.198996,8.935097399583979,0.129624339213218
18.20138,8.947342321487957,0.1295054605108104
18.203776,8.959075386712737,0.1293778437639599
18.206164,8.969597747124018,0.1292709407364892
18.20856,8.9813308123488,0.1291431268573055
18.210956,8.99427458238708,0.1289958528961509
18.213344,9.003493690186247,0.1288831830017031
18.215724,9.009919301306075,0.1287969764773141
18.21812,9.020628653172464,0.1286539732231369
18.239632,8.982552892309515,0.1285638087149871
18.24202,8.985720371899056,0.1284632795476517
18.2444,8.993031822608293,0.1283135367574618
18.246796,8.996898150332136,0.1281845506016974
18.249184,9.002626809175533,0.1280387408447917
18.251564,9.009938259884768,0.1278885576498265
18.25396,9.021533451340558,0.1276840559893495
18.256348,9.033408182050067,0.1274683353099951
18.258724,9.04514314313272,0.1272599154194273
18.261132,9.06232532794718,0.1270100094897035
18.263516,9.07936774313478,0.1267661979067737
18.2659,9.092405956829548,0.126566622921967
18.268304,9.10609579683037,0.1263709713868182
18.270688,9.120716802390971,0.1261673605542688
18.273072,9.139993635750466,0.1259239674156514
18.275468,9.157128598736684,0.1257069022718187
18.277856,9.18082894246959,0.1254028803799174
18.280236,9.20345835101586,0.1251144523897274
18.282632,9.221804018815574,0.1248791494386091
18.28502,9.25123112553401,0.1245218347285177
18.287404,9.275583095572976,0.1242232764425666
18.2898,9.294068532999551,0.1239860639233502
18.292188,9.307758373000375,0.1237945169495973
18.294568,9.326663119307533,0.1235427410452318
18.296964,9.346778570428183,0.1232729776465929
18.299352,9.367313330429424,0.1229888794191024
18.301732,9.382912723378046,0.1227550088572508
18.304128,9.402376548192644,0.1224882918522862
18.306516,9.418255480394988,0.122245945636356
18.3089,9.427756023305744,0.1220498542868639
18.311296,9.437396335843358,0.1218485815918146
18.313684,9.44424315170164,0.1216681599660053
18.31608,9.45071788050758,0.1214737522980441
18.318484,9.456401213380609,0.1212811555906561
18.320868,9.45971035845488,0.121094472582374
18.323248,9.467303244275705,0.1208571089231066
18.325652,9.472754259723253,0.1206465115006268
18.32804,9.4782052751708,0.120436534511581
18.33042,9.488079800991764,0.1201705643325019
18.332812,9.496603852372369,0.1199304505685304
18.3352,9.507269774126248,0.1196658104473087
18.33758,9.519146400693629,0.1193842739268166
18.339972,9.529812322447508,0.1191195515153474
18.342356,9.537125669014612,0.1188977532870994
18.34474,9.544439015581716,0.1186767857475326
18.34714,9.548819095842626,0.1184823200935291
18.349528,9.555341046476814,0.118263815266187
18.351908,9.556136234125471,0.1180920848520357
18.354312,9.5607958536401,0.1178882617097528
18.356696,9.567457573901146,0.117664837355489
18.359076,9.575050459721972,0.117435210610849
18.36148,9.591443144461383,0.1171301240550131
18.363868,9.608347685879991,0.1168351920516465
18.366248,9.630047824724352,0.1165039145638765
18.368652,9.655472625807825,0.1161483824374041
18.37104,9.67982649170466,0.1158069723504191
18.373416,9.7012470912953,0.115490197131502
18.37582,9.722016064579885,0.1151706026944722
18.378208,9.742645268237608,0.1148578152289058
18.380588,9.759829348909935,0.1145615565357607
18.382992,9.776082264022484,0.1142725089225873
18.38538,9.790193308761758,0.1140067180853769
18.38776,9.81031065574028,0.1136892954301293
18.390152,9.83485151309222,0.1133233525449334
18.39254,9.8575300393246,0.1129704440872446
18.39492,9.882070896676542,0.1126059257119686
18.397316,9.903538718095424,0.1122701341147914
18.3997,9.925797935447228,0.111932399785279
18.402084,9.94605505205261,0.1116136309570749
18.404476,9.968314269404411,0.111278430044219
18.40686,9.986848824517098,0.1109672134534279
18.40924,10.00217057406987,0.1106923975206951
18.41164,10.01963419399592,0.1103976997478021
18.414024,10.031091511682718,0.1101541025682659
18.416404,10.03840485824982,0.1099494229454731
18.4188,10.045718204816929,0.1097454650359393
18.421188,10.056756213623146,0.1095186476132626
18.423568,10.067654452802502,0.1092971845669183
18.425984,10.078832231235582,0.1090669428267908
18.428368,10.08973047041494,0.1088463199081482
18.430748,10.100768479221156,0.108621210096659
18.433144,10.113017192840877,0.108380728422428
18.435532,10.12033053940798,0.1081791412398952
18.437908,10.126293411534729,0.1079991478979297
18.440304,10.136260485154304,0.107788456079234
18.442692,10.148089889893445,0.1075682867106901
18.445068,10.163923496125411,0.1073174169592758
18.447468,10.184972008663715,0.1070224869972319
18.449856,10.206951686761794,0.1067232049799178
18.452236,10.228791595233016,0.1064301497996292
18.454632,10.258360367436184,0.1060876926401167
18.45702,10.285135642960014,0.1057615743433792
18.4594,10.306044385871456,0.1054764576358319
18.461816,10.333238970275872,0.1051385582774854
18.4642,10.361504489866922,0.1047905647419587
18.46658,10.39084094464461,0.1044350371282251
18.468996,10.418594607556464,0.1040818469251378
18.47138,10.448350371214737,0.1037157768541277
18.473764,10.47568472524601,0.1033789815863865
18.476168,10.50530071927742,0.1030191908120255
18.478552,10.531843677375775,0.102682896840296
18.480932,10.557175930660632,0.1023610793381927
18.483336,10.58171678801257,0.102038786787068
18.48572,10.602253443871678,0.1017458626466819
18.488104,10.614781696745116,0.1015108252871178
18.4905,10.621722956259882,0.1013055533591478
18.492884,10.626522345401373,0.1011199647258359
18.49528,10.624896123423031,0.1009916735670959
18.497676,10.62219896625805,0.1008729427970491
18.500064,10.622435075399268,0.100735894242871
18.502444,10.61717673898043,0.1006503182882823
18.50484,10.612989337748232,0.1005554090425814
18.507228,10.612666368382008,0.100437050631152
18.509608,10.605126391963031,0.1003742342749794
18.512012,10.599868055544198,0.1002884772313688
18.5144,10.590605517632529,0.1002301317600412
18.51678,10.580272044534214,0.1001807346917158
18.519184,10.566725765875988,0.1001584938993069
18.521568,10.557463227964318,0.100099789993938
18.523952,10.547921150798924,0.100049927958327
18.526348,10.54531654143256,0.0999552813787965
18.528732,10.542711932066196,0.0998604942132476
18.531112,10.545973855312225,0.0997304112304622
18.533516,10.55058625299861,0.0995821355504984
18.535904,10.562787744790082,0.0993936058505456
18.538288,10.579645064380449,0.0991830189568326
18.540692,10.595710988037895,0.0989723956585192
18.543076,10.613127386135702,0.0987431208915869
18.545456,10.629612618673727,0.0985182235746156
18.54786,10.638229217852947,0.0983425800053664
18.550248,10.646753269233551,0.098144195910302
18.552628,10.656488025427652,0.0979329973801144
18.555024,10.6643604505022,0.0977308161196429
18.557408,10.67502637225608,0.0975148228781997
18.559792,10.68462135882332,0.0973088727816994
18.562188,10.69514751095034,0.0970980451241097
18.564576,10.70753599419692,0.096878834220438
18.566956,10.721274951883853,0.0966417961357139
18.569352,10.731009708077954,0.096431937585873
18.571736,10.739533759458558,0.0962356598156093
18.574116,10.744984774906108,0.0960622798665348
18.57652,10.753369056659851,0.0958722127354774
18.578908,10.75774913692076,0.0957086345599898
18.581288,10.762780843487729,0.095549762263944
18.583692,10.76515882300222,0.095399338413801
18.58608,10.767536802516709,0.0952495827232786
18.58846,10.773639444270316,0.0950841811855338
18.590864,10.78453768344967,0.0948953105005795
18.593252,10.796506857815665,0.0946981322784826
18.595632,10.814482334420909,0.0944638940220647
18.598028,10.835763164384684,0.0942279678331061
18.600416,10.85355164953483,0.0940255879065974
18.602796,10.872922926550808,0.0938242355957928
18.6052,10.89178234688759,0.0936138519747711
18.607584,10.907289192037592,0.093432512970438
18.609964,10.926520699426714,0.0932362077858847
18.61236,10.94668337237561,0.0930371571752436
18.614748,10.966286966817067,0.092855554437152
18.617132,10.9873335834975,0.0926792957664062
18.619528,11.008519969804794,0.0924988347365661
18.621912,11.02742471611195,0.0923390631428668
18.624292,11.046329462419106,0.0921804706907942
18.626696,11.06481489984568,0.092034823810996
18.62908,11.088095934698009,0.0918674058739888
18.631464,11.111237199923472,0.0917045783433754
18.633868,11.129443098096328,0.091568910042928
18.636256,11.145786665149627,0.0914416566438295
18.638636,11.157986261083233,0.0913425203777519
18.641032,11.172839584069314,0.0912372810162717
18.643416,11.189275698921229,0.0911343454324101
18.6458,11.20291831709381,0.0910425862731982
18.648196,11.220844676012945,0.0909201824292503
18.65058,11.239050574185798,0.0907899537415611
18.652976,11.261772530530685,0.0906473716320397
18.655372,11.288638457995264,0.0904785815661688
18.657756,11.314852759153784,0.0903065743041469
18.660136,11.33892518993903,0.090150269095341
18.662532,11.365558799978135,0.0899674384834377
18.664916,11.39168055333804,0.0897760777714894
18.667296,11.42073557300414,0.08957161777889
18.669712,11.44885942711046,0.0893695257130367
18.672096,11.475120950097226,0.0891751376654664
18.674476,11.502081321218292,0.0889607441000562
18.67688,11.522243994167193,0.0887786980507218
18.679268,11.545339933422284,0.0885836298295539
18.681648,11.572300304543353,0.0883709692009079
18.684052,11.597118805291142,0.0881732325226763
18.686436,11.623148010852429,0.0879645834695412
18.68882,11.645592323801464,0.0877657666392128
18.69122,11.66338080895161,0.0875839871881313
18.693608,11.682379998915252,0.0873915032941585
18.695988,11.698026613692118,0.0872250234768676
18.698392,11.714604394028765,0.0870561976935749
18.70078,11.728388677686072,0.0868979632193379
18.70316,11.742033191716525,0.0867445253939403
18.705556,11.750602569067498,0.0866184383572492
18.70794,11.761313816791752,0.0864786486633183
18.71032,11.77053482044879,0.0863582445328995
18.71272,11.78054722003874,0.0862389855029678
18.715104,11.78776612294936,0.0861292819529552
18.717484,11.80234180253959,0.0859758419722321
18.719888,11.818640043622516,0.0858208829634776
18.722276,11.838383407690833,0.0856630502720987
18.724656,11.864272843625262,0.0854730653659075
18.72706,11.89030204918655,0.0852810279003995
18.729448,11.919404290680893,0.0850743607043729
18.731828,11.950368863294797,0.0848620450659188
18.734224,11.981473205535554,0.0846470075022799
18.736608,12.012158238895733,0.0844430440097588
18.738992,12.04498514262919,0.0842263658109399
18.741388,12.07660134154915,0.0840208163365858
18.743772,12.11371198602916,0.08377997405516
18.746152,12.148029133829835,0.0835481785459319
18.748556,12.179273245697456,0.0833321494765781
18.750944,12.209074335326102,0.0831113022018756
18.753324,12.246883827940414,0.082854859138381
18.75572,12.285904025368223,0.0825905431408734
18.758108,12.32441236611684,0.0823183916924757
18.760488,12.360266979812977,0.0820505543749241
18.762884,12.395981823882256,0.0817868689021043
18.765272,12.426761300898924,0.081545952607179
18.767652,12.457960086796168,0.0812955376862936
18.770056,12.483571879334743,0.0810612412741963
18.772444,12.50424830482071,0.0808480222025866
18.774824,12.519197967321144,0.080653723278861
18.77722,12.527489701276268,0.0804807418690835
18.779608,12.536620052992555,0.0802864529626061
18.781988,12.543888073589288,0.0800972690315349
18.784396,12.554788208626514,0.0798794392415424
18.78678,12.564757178103964,0.0796644994398521
18.78916,12.577007787581552,0.0794346368004739
18.791556,12.58739606593958,0.079211133681691
18.793944,12.600857380230664,0.0789741387897981
18.796324,12.616600334521888,0.0787216259698385
18.798728,12.635276555119304,0.0784601069892505
18.801112,12.646363681611636,0.078220893883458
18.803492,12.650653109931795,0.0780043393968044
18.805896,12.65494253825196,0.0777880002204675
18.80828,12.667380139184647,0.0775378239412933
18.810664,12.683449854557834,0.0772612935355963
18.813068,12.699938878811604,0.0769748967194641
18.815452,12.713634406386031,0.0766955420239201
18.817836,12.73161367470702,0.0763945683198058
18.820232,12.751083187095222,0.0760780000456817
18.82262,12.77590737541662,0.0757344772120597
18.825,12.806226009298069,0.0753608733765487
18.827396,12.838546743925937,0.0749827792219294
18.829784,12.870215852247744,0.0745997329839493
18.832164,12.90309566538305,0.0742110387663119
18.83456,12.938396888145355,0.0738068523235519
18.836948,12.97011321829541,0.0734077759137892
18.839328,12.998104886206349,0.0730171558921416
18.841728,13.02064933038548,0.0726341824298536
18.844116,13.044684018631829,0.0722371426763016
18.846512,13.06620474945256,0.0718406534004594
18.848908,13.092800616952768,0.071426139640816
18.851292,13.123819994826388,0.0709876615579197
18.853676,13.152465184901256,0.0705440812416632
18.856072,13.172450345684394,0.0701243531076872
18.858456,13.186568973855143,0.0697220252709513
18.86084,13.200128523518456,0.0693337685938699
18.863236,13.210754806875569,0.0689526142459535
18.86562,13.21737688873985,0.0685849724542927
18.868004,13.220786165044217,0.068231638692017
18.870408,13.22270519728136,0.0678943931041622
18.872792,13.219641640637652,0.0675933260964814
18.875176,13.207498745821638,0.067321505690693
18.877576,13.197869808431236,0.0670519033834209
18.879964,13.181955029547863,0.066807381021207
18.882344,13.159614639544662,0.0665906961950417
18.88474,13.13578400547424,0.0663878854049611
18.887128,13.11139429289638,0.0661977402290007
18.889508,13.091380868863684,0.0660068523084156
18.891904,13.070948135950411,0.0658258595531354
18.894292,13.046883288596645,0.0656682172671467
18.896688,13.01853470049632,0.0655286909803176
18.899092,12.98841632907506,0.0654098705435661
18.901476,12.962674246198969,0.0652907674220494
18.903856,12.936373084815438,0.0651843171218241
18.906256,12.909373075297603,0.0650940052806566
18.90864,12.882652605033496,0.0649966509429385
18.91102,12.864731933687969,0.0648780098850349
18.913424,12.846391953461858,0.0647689415577796
18.915812,12.831916405101724,0.0646514362064164
18.918192,12.815578525622032,0.0645361162937307
18.920588,12.801941595023065,0.0643982063975773
18.922976,12.79868725520851,0.0642441301941509
18.925356,12.796503850580596,0.0640859854595997
18.927752,12.79646231632596,0.0639185675754781
18.93014,12.804429185056994,0.0637291205952754
18.93252,12.819752830467635,0.0635126481979795
18.934916,12.83936021662483,0.0632790118354657
18.937304,12.861109473155302,0.0630380168707128
18.939688,12.880716859312498,0.0628061582122514
18.942092,12.90218657658925,0.0625716546595655
18.944476,12.924587459425782,0.0623358860523079
18.946856,12.950061378195366,0.062090977604794
18.949252,12.974324592151453,0.0618547759102141
18.951636,13.00431456909307,0.0616095917012859
18.95402,13.038448517154382,0.0613504845123034
18.956416,13.071231990775336,0.0611025874630546
18.958804,13.097869392530177,0.0608751781821219
18.9612,13.128510995777852,0.0606378210262096
18.963596,13.159804225331584,0.0604072414024062
18.965984,13.191888850818234,0.0601793336476891
18.968364,13.223693937051166,0.0599587650646062
18.970768,13.250982965112064,0.0597409119293796
18.973152,13.278132223546104,0.0595275936270183
18.975532,13.309657770525318,0.0593175729575791
18.977932,13.335968411198197,0.0591255069184971
18.980316,13.35757600224394,0.0589600817165363
18.982696,13.376901953289549,0.0588064624770578
18.985092,13.394877429894793,0.0586640893526894
18.987476,13.41871943911243,0.0585118040652922
18.989856,13.4477763546364,0.0583441684980621
18.99226,13.480977241280064,0.0581651987990105
18.994648,13.514317897550583,0.0579843360882871
18.997032,13.546867157888189,0.0578016492307262
18.999428,13.577833626359958,0.0576151941743107
19.001812,13.609731260391507,0.0574290605804177
19.004196,13.643910534423192,0.0572328765945581
