Time,Force,Position
17.468268,5.926190423364967,0.168314562973002
17.470664,6.024729556922308,0.1680742495499854
17.473052,6.134584342681721,0.1674208497750745
17.475436,6.250029913515541,0.1663635154089077
17.477828,6.344761316324501,0.1654590764284911
17.480216,6.416821776332555,0.164836179421868
17.482595999999997,6.471424303988167,0.1644849091244982
17.485,6.533525273808117,0.1638217833032647
17.487388,6.581010925641075,0.163180310260767
17.489767999999998,6.601449346127956,0.1628516989281712
17.492172,6.604522382061013,0.1627838414552068
17.49456,6.611971706539239,0.1626525708586135
17.504103999999998,6.612207815680454,0.1624302248202508
17.5065,6.627663647286477,0.1622659831701452
17.508888,6.648241837400219,0.1619580843145216
17.511264,6.66840261449125,0.1615610054191468
17.513659999999998,6.6811593930744255,0.1613601304517374
17.516047999999998,6.706950593636629,0.1610566324255359
17.518444,6.744754398677333,0.1605176055230459
17.52084,6.773805626627696,0.1601188681908316
17.523224,6.793777516405751,0.1599047796565805
17.525608,6.823478474804304,0.1596362214222111
17.528,6.864818054771148,0.1592382699753525
17.530388,6.915004655484823,0.1586441176220056
17.532784,6.947546332390952,0.1582973059181775
17.53518,6.98073963560314,0.1579530596342549
17.537568,7.017842696651674,0.1576083232690801
17.539948,7.067517440686149,0.1570113913524792
17.542351999999998,7.110116843152607,0.1564426370001691
17.544739999999997,7.1448948340885,0.155977268261712
17.54712,7.181860021368044,0.1555449299388688
17.549516,7.232513152790541,0.1549171126652422
17.551904,7.280931866041146,0.154301742426606
17.554284,7.32171615921629,0.1537497031752376
17.55668,7.358775790152319,0.1532632478059977
17.559064,7.392528171871947,0.1529224005726434
17.561443999999998,7.439364093256714,0.1523531857866963
17.56384,7.484060040126075,0.1517231462745435
17.566228,7.513485250986646,0.1512895408012837
17.56862,7.538114864421463,0.1509286296539891
17.571019999999997,7.564978896028175,0.150559862558347
17.573404,7.591750379836269,0.1501660072997929
17.575784,7.614984192860353,0.1497821255211081
17.57818,7.628998898085272,0.1495567625399563
17.580568,7.651067332266231,0.1492690474531635
17.582948,7.674299249432446,0.1489933687093288
17.585344,7.701862129173458,0.1486003891224381
17.587732,7.71345542477138,0.1484290110483906
17.590128,7.728633612981553,0.1482178995639121
17.592523999999997,7.752332060856591,0.147893462372366
17.594908,7.777008896119651,0.1475232008088091
17.597292,7.794283628732726,0.1472168797199091
17.599695999999998,7.817424893958193,0.1468308906574108
17.602079999999997,7.843824290713949,0.1464614464557498
17.60446,7.868593673775628,0.1461387505938379
17.606856,7.8970423931060445,0.145706329996799
17.609244,7.918693414264292,0.1453712873868185
17.611624,7.940436983221157,0.1450695401464886
17.614027999999998,7.972702912589304,0.1446318722094921
17.616415999999997,8.009532121957724,0.1441102324330771
17.6188,8.044406452407973,0.1435837568701935
17.621195999999998,8.076347516552026,0.1431015624329783
17.623583999999997,8.110662768494834,0.1426122399431807
17.625964,8.150192926743973,0.1420406339797419
17.62836,8.189630537194496,0.1414451087242247
17.630748,8.230139082831656,0.1408355019257873
17.633128,8.269948780334516,0.1402654918739241
17.635524,8.32293456530113,0.1395402103406732
17.637912,8.367400090602883,0.1389166055012675
17.640292,8.404276521799547,0.1383911756017256
17.642692,8.43714875150338,0.1379225362352999
17.645076,8.473745643446323,0.1374191019884573
17.64746,8.502473902030458,0.137018620973115
17.649856,8.524963540949868,0.1366764894217498
17.652244,8.548524115055915,0.1363180053734889
17.65464,8.57175792808,0.1360108283368352
17.657035999999998,8.599927108156697,0.135645187768572
17.659423999999998,8.627165122673615,0.1352918804830879
17.661804,8.6491882308842,0.1350137689097598
17.664203999999998,8.670652260587344,0.1347632645280304
17.666591999999998,8.689322793611154,0.1345404216626599
17.668972,8.706550304395986,0.1343181545622815
17.671367999999998,8.716980117008653,0.1341742627665751
17.673755999999997,8.728480864807956,0.1340165463409875
17.676136,8.739841842980399,0.1338663949711513
17.678532,8.751342590779702,0.1337114152414361
17.68092,8.762051942646089,0.1335604475242309
17.683304,8.767174301153805,0.1334650634445019
17.6857,8.781887854513021,0.1332689340400635
17.688084,8.795390703058741,0.1330926677306833
17.690464,8.812897753097296,0.1328697084322594
17.692871999999998,8.827983393508852,0.1326907359287338
17.695256,8.849634414667099,0.1324191678283892
17.69764,8.871564975079067,0.1321337470323253
17.700035999999997,8.890702038811702,0.1318739444018037
17.702424,8.90839608030536,0.1316156282322278
17.704808,8.919012884373128,0.131442784361451
17.707203999999997,8.92655665250784,0.1313076972983123
17.709592,8.937173456575609,0.1311348534275355
17.711972,8.943274202471345,0.1309996055962851
17.714368,8.955101711352613,0.1308065736841204
17.716756,8.967860385793658,0.1306049677138935
17.71914,8.985042570608117,0.130338062958344
17.721536,8.99808078430288,0.1301246698259983
17.723924,9.007254566131676,0.1299520175446224
17.726319999999998,9.016707887214189,0.1297690785029733
17.728716,9.023088172363645,0.1296233671688304
17.731104,9.032401723819298,0.129447266926653
17.733484,9.03677990822234,0.1293263698722396
17.735879999999998,9.043579502252378,0.1291652357986874
17.738267999999998,9.044372794043165,0.1290719493208777
17.743052,9.029850023854788,0.1290393033803661
17.74544,9.025707948592965,0.1289994397948355
17.747819999999997,9.02771194519725,0.128887141625609
17.75022,9.0269224451222,0.1287994989314667
17.752608,9.031999477659545,0.1286509076050931
17.754987999999997,9.04014954612994,0.12846582631517
17.757384,9.047647988294278,0.1282785922258208
17.759767999999998,9.05807969676481,0.128060423816564
17.762148,9.06636953486207,0.1278715635944896
17.764543999999997,9.074379833705605,0.1276942655171871
17.766932,9.083600837362642,0.1274988302484417
17.769327999999998,9.09109927952698,0.1273126558101334
17.771724,9.101670757624372,0.1270907044766737
17.774112,9.106887559788577,0.1269375561703847
17.776491999999998,9.120392304192164,0.1266873659168784
17.778888,9.1296133078492,0.1264926248253795
17.781276,9.13683221075982,0.1263190454114998
17.783656,9.144702739976497,0.1261493579380304
17.786051999999998,9.15485490919331,0.1259457454889253
17.788439999999998,9.169151049529816,0.125691937354393
17.790824,9.18423858579924,0.1254355242517217
17.793219999999998,9.192388654269635,0.1252529479896576
17.795607999999998,9.195743125314284,0.1251169101829607
17.797988,9.201891093038263,0.1249569605338084
17.800392,9.206316499269548,0.1248081355158275
17.80278,9.212744006247249,0.1246390581098843
17.805159999999997,9.219962909157866,0.1244688596870834
17.807555999999998,9.228112977628266,0.1242915174618853
17.809939999999997,9.2385446860988,0.1240838236485719
17.812324,9.25111826494261,0.1238508393254567
17.814728,9.261829512666864,0.123634258160853
17.817116,9.277615897070593,0.1233640400264939
17.819495999999997,9.293402281474318,0.1230951387445106
17.821896,9.314543341811238,0.1227616485709086
17.824284,9.324602963229434,0.1225429228516335
17.826667999999998,9.33508189352821,0.1223072792677431
17.829064,9.347562924573406,0.1220508398803426
17.831452,9.3600439556186,0.1217953291982464
17.833831999999997,9.375458252969988,0.1215133703592651
17.836236,9.391663946254294,0.1212306511928427
17.838624,9.406147078045905,0.1209563585781531
17.841003999999998,9.428918152076903,0.1205929228244675
17.8434,9.451689226107902,0.1202291593264516
17.845788,9.471666803459565,0.119886936639926
17.848167999999998,9.489502510437951,0.1195703623001714
17.850564,9.505475886296782,0.1192704448416738
17.852952,9.515722499170083,0.1190183414854884
17.855332,9.524898176856746,0.1187793549181802
17.857727999999998,9.527648243423574,0.1186154405368473
17.860115999999998,9.527604813311068,0.1184729998411743
17.8625,9.527142074317984,0.118346790030154
17.864895999999998,9.52560840013826,0.1182333090737882
17.867283999999998,9.527007992264734,0.1180945349349984
17.86968,9.527336649204567,0.1179683892894745
17.872076,9.533392069129931,0.1177954293905556
17.87446,9.541961446480908,0.1176129817987316
17.876839999999998,9.551601759018524,0.1174189282031748
17.879236,9.56152161080986,0.1172151677159713
17.881624,9.570230757787698,0.1170296993253012
17.884003999999997,9.580802235885091,0.1168323058366983
17.886408,9.59537791547532,0.1165985673813261
17.888796,9.604738688759214,0.1164201337202391
17.891175999999998,9.615961793162668,0.1162291176951295
17.893576,9.630909559805234,0.1160125471485385
17.895964,9.64599709607466,0.1157902982089918
17.898343999999998,9.65708043085125,0.1156038710177812
17.90074,9.672679823799877,0.1153894927877111
17.903128,9.691212483054697,0.1151518765527817
17.905511999999998,9.71202678230965,0.1148840948657311
17.907908,9.7345636430573,0.1146089935174349
17.910296,9.753887698245038,0.1143677264118885
17.912675999999998,9.772932214179052,0.1141378725795836
17.915076,9.788903694180016,0.1139398345573732
17.917464,9.80287307343456,0.1137600645508675
17.919843999999998,9.816051056756184,0.1135818649338245
17.92224,9.829648348958392,0.113389585368229
17.924623999999998,9.845247741907016,0.1131813306366838
17.92702,9.861358991534834,0.1129833520957396
17.92942,9.879751881162791,0.1127597329098987
17.931808,9.894280338924778,0.1125663937771448
17.934188,9.908669027059902,0.1123796324340215
17.936588,9.92105561444861,0.1122094552257682
17.938972,9.935164763330016,0.1120335775892257
17.941356,9.949693221092,0.1118442866481775
17.943752,9.969157045906597,0.1116172191679858
17.94614,9.994627172960444,0.1113409092448974
17.94852,10.023310105574206,0.1110351508494431
17.95092,10.049990937441551,0.1107479438418007
17.953308,10.083469467481068,0.1104144604232682
17.955688,10.123094069386694,0.1100337790317952
17.958092,10.16900451278529,0.1095962171756503
17.96048,10.216405200251106,0.1091370408856409
17.96286,10.260732851783867,0.1087032271596058
17.965256,10.306922834436184,0.1082590014695911
17.967644,10.35446329152886,0.1077970161756323
17.970028,10.399582338994538,0.1073667959558848
17.972424,10.439346710527024,0.10698816753717
17.974812,10.477388520566814,0.1066168278426555
17.977192,10.51100682023319,0.1062921125010794
17.979588,10.548489551765536,0.1059430650519065
17.981976,10.581036916245274,0.1056297811972615
17.98436,10.614794985538513,0.1053007887145134
17.98676,10.645247701473211,0.1049805855172903
17.989144,10.67262738147486,0.1046869233371583
17.991528,10.694280298490977,0.104430516708335
17.993924,10.71327948845462,0.1041866574442657
17.996312,10.726412145805872,0.1039834995026978
17.998692,10.736891076104648,0.1037908612026956
18.001088,10.73978091229834,0.1036439720814158
18.003476,10.728795812893972,0.1035943915330741
18.005855999999998,10.718090252743323,0.1035352972645273
18.008256,10.703100951846125,0.1035137522002794
18.01064,10.69160399576256,0.1034546733845106
18.01304,10.679595182999796,0.1033865373868714
18.015436,10.666235895796676,0.1033366248444263
18.01782,10.653854995981575,0.1032546775226159
18.020204,10.645106210606972,0.1031310790170411
18.0226,10.634774633366533,0.1030076921838752
18.024988,10.62593330019331,0.1028612297766488
18.027368,10.613507074407837,0.1027292094034428
18.029768,10.605224819742055,0.1025644420423821
18.032156,10.597733961009192,0.1023993467218339
18.034536,10.586471218208974,0.1022798912409104
18.036936,10.578933137647873,0.102141525582932
18.039324,10.574188553766104,0.1019888790030835
18.041704,10.571026761750169,0.1018361814317565
18.0441,10.572008940853928,0.1016513527155829
18.046488,10.579649048502995,0.1014304415349729
18.048868,10.5900826528314,0.1011957681405551
18.051264,10.610247221638163,0.1009003422967449
18.053652,10.624637805631158,0.1006647026379924
18.056048,10.642241195184068,0.100401706004765
18.058444,10.660496211043034,0.1001447157434585
18.060832,10.682056580260534,0.0998848961591784
18.063212,10.706689985411092,0.0996042083718623
18.065608,10.730484772800486,0.0993510579978768
18.067996,10.755862352055718,0.0991000411237218
18.07038,10.782822723176784,0.0988490422469023
18.072776,10.810434720603908,0.0986034305002894
18.075164,10.840700445083506,0.0983502996426026
18.077544,10.87254896142894,0.0980993556177745
18.079944,10.906259808893932,0.0978408937367358
18.082332,10.948398368225172,0.0975178536398403
18.084712,10.988534826809998,0.0972099935926065
18.087108,11.029742220581458,0.0968958405117498
18.089496,11.067876578419863,0.0966036720739205
18.091876,11.103589526631277,0.0963385797802732
18.094276,11.13078221517782,0.0961158633415213
18.096664,11.154901867791306,0.095914016781309
18.099044,11.17622802372546,0.0957255661058663
18.10144,11.20146583335383,0.0954905642021787
18.103828,11.22442200298206,0.095276902471399
18.106212,11.245655611117598,0.0950680633015642
18.108608,11.261441995521327,0.0948796207215151
18.110996,11.274295113618862,0.0947082803531777
18.11338,11.286356835783474,0.0945365019342789
18.11578,11.294693895708974,0.0943809749399804
18.118164,11.305964221940668,0.0942102346770832
18.12056,11.31444105149303,0.094051051028457
18.122952,11.3158406436195,0.0939355510186567
18.12534,11.312584407947078,0.0938395511235198
18.12772,11.30774538040882,0.0937429319056242
18.130116,11.29876238175087,0.0936743238355342
18.132504,11.286194490480664,0.0936165764751316
18.134884,11.271484728837184,0.0935746067322754
18.137288,11.258916837566982,0.0935166327445151
18.139672,11.248630586296914,0.0934385394210245
18.142052,11.245653889878213,0.0933347272957065
18.144448,11.247752330138988,0.0931999445250859
18.146836,11.249850770399757,0.0930652591980236
18.149232,11.252461067339729,0.0929398844056449
18.151628,11.258423939466471,0.0927872831356248
18.154016,11.263036337152856,0.0926506992775717
18.156396,11.27151316670522,0.0924957334640378
18.158792,11.282923262563774,0.092326652088348
18.16118,11.295264523982103,0.0921539535443857
18.16356,11.310678821333491,0.0919629882507922
18.165964,11.322508226072628,0.091782760506508
18.168348,11.336339731558176,0.0915912395676435
18.170732,11.355525912976924,0.0913605118767343
18.173128,11.378716295888498,0.0911078454580594
18.175516,11.405631341039197,0.0908430487244021
18.177896,11.4357591917498,0.0905571938453303
18.180296,11.4693321654458,0.0902653403917594
18.182684,11.501973973582023,0.0899769117493433
18.185064,11.534615781718246,0.0896897519062033
18.18746,11.561391057242078,0.0894312167842775
18.189848,11.58365027459388,0.0891868031858492
18.192228,11.603767621572404,0.0889586629217949
18.194632,11.622814033364287,0.0887379651043945
18.197016,11.63785624366334,0.0885388819642189
18.1994,11.653550080268449,0.0883460264286853
18.201796,11.673248118366391,0.0881326273796559
18.204184,11.689873120531278,0.0879375834243603
18.206564,11.702493921203333,0.0877641404127541
18.20896,11.71911892336822,0.0875709428769854
18.211348,11.733182746279248,0.0874045378003741
18.213744,11.748689591429253,0.0872439071813579
18.21614,11.766989933258593,0.0870746841319653
18.218528,11.790737498819745,0.0868923814163366
18.220912,11.814205525127177,0.0867191073243033
18.223308,11.835811220315048,0.0865535856189094
18.225696,11.855135275502787,0.0864067525433087
18.228076,11.877672136250435,0.0862406413947747
18.230476,11.902071328117646,0.0860688603083394
18.232864,11.926190980731132,0.08590532263266
18.235244,11.957620188195987,0.0857224414926849
18.237644,11.9897010219669,0.0855443455359176
18.240032,12.02178185573781,0.0853669239107099
18.242412,12.05572502062828,0.0851839734135539
18.244808,12.093532617384726,0.0849857877493187
18.247192,12.127336012648335,0.0848074813344492
18.249572,12.157135206419111,0.0846488827540137
18.251968,12.187586026495945,0.0844948553877934
18.254356,12.218968012132557,0.0843380118422829
18.256752,12.24741673146297,0.0841949509520105
18.259148,12.27614499004711,0.0840443103275496
18.261532,12.305152787884966,0.0838866826850402
18.263916,12.332298254603268,0.083735769992226
18.266312,12.350923461656704,0.0836141464831742
18.268696,12.367965876844304,0.0834910353155081
18.27108,12.383006191285483,0.0833776426975675
18.273472,12.396463713860832,0.0832623997081156
18.27586,12.405125639010429,0.0831647722783226
18.278256,12.412204772294183,0.0830651610313162
18.280652,12.419842984085385,0.0829510576084327
18.283036,12.426038173637606,0.0828318130986878
18.285416,12.43372360725705,0.0826955292220854
18.287812,12.43810368751796,0.0825584435552473
18.2902,12.447698674085204,0.0823950923027686
18.29258,12.4598548399063,0.0822098120242884
18.294976,12.47457218498126,0.0820017647078598
18.29736,12.491059313377152,0.0817697498914361
18.299756,12.512249491400183,0.0815039689744951
18.302152,12.5326482734903,0.0812370374468903
18.30454,12.551464263714577,0.080968239290276
18.30692,12.569768397259658,0.0806912173486823
18.309316,12.589423005245097,0.080402368132671
18.311704,12.609496922111116,0.080103903163502
18.314084,12.634645975656609,0.0797832745160362
18.316492,12.658863863642322,0.079465315562298
18.318876,12.684292456441534,0.0791388287538164
18.321256,12.712514545920085,0.0788064475872233
18.323656,12.741947340212128,0.0784650915647976
18.32604,12.77431340081037,0.0781146076909071
18.32842,12.802675259915777,0.0777802826884428
18.330824,12.828383391968709,0.0774501304447645
18.333212,12.85409152402164,0.07712140595732
18.335592,12.884315714246604,0.0767858808504354
18.337988,12.9060196448067,0.0764749311166479
18.340376,12.92064633794091,0.0761936451327252
18.342756,12.936064427008036,0.0759150986994646
18.345152,12.952273912008083,0.0756390156085826
18.347536,12.963687799582376,0.0753777976474312
18.349936,12.978594031970308,0.0750941960193038
18.352332,12.996293761037574,0.0748055726488077
18.35472,13.013993490104838,0.0745171064540614
18.357096,13.031041592866046,0.074225303855107
18.359492,13.047158530067476,0.0739363443560299
18.36188,13.06090127947015,0.0736436685986977
18.364264,13.078787999992516,0.0733347156329679
18.36666,13.091739353462271,0.0730412061026726
18.369048,13.101245583946636,0.0727484832813615
18.371428,13.109820648871224,0.0724577275307748
18.373832,13.11653338267625,0.0721712618666122
18.37622,13.130183584280308,0.0718633755078896
18.3786,13.143973555511224,0.0715522629434299
18.381004,13.156832361182364,0.0712435901389798
18.383392,13.168248144614529,0.0709291970015723
18.385772,13.18152625916625,0.070611123078052
18.388168,13.198808575210805,0.0702798418397273
18.390556,13.211295293829604,0.0699601664857361
18.392936,13.222291768381186,0.0696560600156563
18.395336,13.23300870367905,0.069358657727613
18.397724,13.24209562528283,0.0690806037832794
18.400104,13.249320215767058,0.0688063839024718
18.4025,13.262411338863672,0.0685180184962619
18.404888,13.27573477938577,0.0682458447144158
18.407268,13.28463470953445,0.0679953625252819
18.409664,13.294558353041523,0.067762143157764
18.412052,13.299267090242266,0.0675495712858217
18.414448,13.307980028935845,0.0673244710826221
18.416844,13.315994119495118,0.0671153741280408
18.419232,13.326801706733727,0.0669026788879089
18.421612,13.340263021024812,0.0666900523148114
18.424008,13.347718033076646,0.0664958296339859
18.426396,13.35554513218082,0.066313419538066
18.42878,13.36309269203127,0.06613774525682
18.431176,13.371803734866978,0.065976263664679
18.433564,13.38102663438188,0.0658233191921987
18.435948,13.386896958710013,0.0656871416144589
18.438352,13.394210305277117,0.0655578928760451
18.440736,13.398869924791748,0.0654289426888142
18.44312,13.405112336172213,0.0653041155753571
18.445516,13.4104235819929,0.0651807237563724
18.447904,13.416386454119648,0.0650628458831885
18.450288,13.414852779939924,0.0649763457807687
18.452684,13.408383738707588,0.0649022209555043
18.455068,13.40871239564742,0.0648132457635133
18.457452,13.407318491094555,0.0647234352549623
18.459844,13.410859953594304,0.0646214412361137
18.462232,13.411980006467054,0.0645346003112038
18.464612,13.418594504899858,0.064422849341345
