Time,Force,Position
18.78744,6.126362693290963,0.1642091967421494
18.789824,6.303064928609964,0.1629171712430663
18.792204,6.4734851141517336,0.1616154630085991
18.794608,6.631339304281169,0.1602938962319726
18.796996,6.762380476347875,0.1592467999566208
18.799376,6.873544202293011,0.1584037262479187
18.801768,6.9755851599533365,0.1575735563654479
18.804156,7.07204291597073,0.1566164060828659
18.806536,7.155235828441488,0.1556601322927669
18.808932,7.223067352962708,0.1548077627454268
18.81132,7.280191421475412,0.1540942269862094
18.8137,7.328562912897774,0.1535148482432099
18.816096,7.35751969719165,0.1532457175039965
18.818484,7.383310897753853,0.1529993848725907
18.820864,7.400487394994705,0.1529590818802834
18.82326,7.422784354885404,0.1529005636271324
18.825648,7.459515328881601,0.1525832262110272
18.828028,7.491125840227952,0.1522893440035084
18.830432,7.5119344519093,0.1521697725372802
18.83282,7.532928159187884,0.1521122024573545
18.8352,7.562162586877611,0.1519400152817516
18.837604,7.592143084529883,0.1516952857402654
18.842372,7.621422838189983,0.1515996218117754
18.844768,7.641764919162506,0.1515406435675773
18.847156,7.671186338307337,0.1513312315904602
18.849536,7.697489395548738,0.1511080601121992
18.851932,7.717693602752271,0.150954942949237
18.85432,7.732263594768892,0.1509154013949279
18.8567,7.748276609024487,0.1508727657036441
18.859096,7.767968959548823,0.1507164572874114
18.861484,7.780958055557477,0.1505836491960997
18.863864,7.790502028580737,0.1504851194702922
18.86626,7.805446003507565,0.1503582924109222
18.868648,7.827979072539478,0.150124170727835
18.871028,7.849767967466718,0.149859973987524
18.873432,7.859731249370559,0.1497428477617949
18.87582,7.869275222393819,0.1496471360685842
18.8782,7.886268519895307,0.1494554941510735
18.880596,7.905450909598315,0.1491890324731693
18.882984,7.92337726851745,0.1488837286860527
18.885364,7.93292313739858,0.1486848497682241
18.887764,7.947636690757799,0.148434891737484
18.890152,7.969427481542907,0.1480739786976027
18.892548,7.985538731170727,0.1477560154205059
18.894944,7.991686698894708,0.1475553619629481
18.897328,7.997275588111248,0.1473826145955655
18.899712,8.002305398820345,0.1472370686669561
18.902108,8.008965223223523,0.1470446061900424
18.904496,8.014229247215967,0.1468188305581974
18.906876,8.010274163409246,0.1467397119020986
18.90928,8.014420030386809,0.1465704888078509
18.911668,8.024432429976763,0.1463194481822315
18.914048,8.02876528840943,0.1461078393318623
18.916448,8.029280936804366,0.1459127849281696
18.918832,8.030960068184557,0.1457299462520553
18.921212,8.03645640960248,0.145531038532167
18.923608,8.040509728781425,0.1453342065679644
18.925992,8.0413974642287,0.1451561099991183
18.928372,8.038932624489197,0.1450386346293902
18.930776,8.037351728481228,0.1449462123357614
18.933164,8.041497595458793,0.1447794261075277
18.935544,8.04434020982424,0.1446085892703135
18.937948,8.044389327510354,0.1444720130210893
18.940336,8.049745899301415,0.1442835751257323
18.942716,8.063482961130482,0.1439979079586942
18.94512,8.077639331840128,0.143692798813151
18.947504,8.094077342549914,0.1433462554667932
18.949884,8.111539066618095,0.1430182663861419
18.952288,8.13002450404467,0.142710069733713
18.954676,8.148557163299488,0.1423624319529607
18.957056,8.160059806956662,0.1420832682164622
18.959464,8.168489414680778,0.1418519116043927
18.961848,8.181435080576929,0.1415738039811258
18.964232,8.200247279085465,0.1412214644443175
18.966628,8.215102497929413,0.1408897793564684
18.969012,8.228374924907527,0.1405667591406644
18.971392,8.24560433155023,0.1402252096159477
18.973796,8.263066055618408,0.1399058450377059
18.976184,8.282809419686725,0.1395449299851291
18.978564,8.300969991889206,0.1391931302825264
18.980956,8.321924060771023,0.1388144204761353
18.983344,8.340456720025841,0.1384813435298908
18.985724,8.355124947414687,0.1381950878762161
18.988124,8.361272915138667,0.1380078736334604
18.990512,8.363556450996674,0.137869793759526
18.992892,8.366491613160736,0.1377347925402551
18.995296,8.370497710511442,0.1375841688042349
18.997684,8.374783347115866,0.1374211073497869
19.000064,8.37678734372015,0.1372971172044028
19.002464,8.382748319989027,0.1371547109315787
19.004852,8.391363023310378,0.1369882431327214
19.007232,8.40025726588545,0.1368097586144562
19.009628,8.408220342900742,0.1366422778377732
19.012016,8.410688974355983,0.1365629121113234
19.014396,8.416742498423478,0.136451012865471
19.016804,8.422004626558053,0.1363424277443951
19.019192,8.424613027640152,0.1362571547129149
19.021572,8.432715874282305,0.1360872997310636
19.023964,8.444962692044154,0.1358628223950858
19.026352,8.45935138017928,0.1356085235737912
19.028732,8.469735866821571,0.1354055713888473
19.031128,8.485475029397053,0.1351265371774839
19.033516,8.50535816309223,0.1347916438732382
19.035896,8.533249699773076,0.1343571297706357
19.038296,8.557276804587948,0.1339647784475908
19.04068,8.58023297421618,0.1335887904483876
19.043076,8.600767734217417,0.133257550390632
19.04548,8.62279273828587,0.1328952859598172
19.047864,8.647099382354462,0.1324962012282072
19.050244,8.672337191982834,0.1320900825144938
19.05264,8.6980868582904,0.1316940684591387
19.055024,8.720903258291774,0.131331327829066
19.057408,8.744790593479784,0.1309560962382346
19.059804,8.767606993481156,0.1305933556081619
19.062188,8.784417091243279,0.1303022871932613
19.064568,8.804160455311598,0.1299790431025985
19.066964,8.824043589006775,0.1296499180537355
19.069352,8.835359241208844,0.1294423830434618
19.071744,8.841971843783778,0.1293140110314254
19.074144,8.84430070561216,0.1292451290554187
19.076528,8.84662956744054,0.129176247079412
19.078912,8.846537019641923,0.1291491773593055
19.0837,8.846444471843304,0.1291221241821049
19.08608,8.852730313336277,0.1290418537548718
19.088484,8.860738716321944,0.1289507731428679
19.090872,8.867955723374692,0.128862059216877
19.093252,8.871680385613805,0.1288283095923367
19.095648,8.876475983039557,0.1287806640170913
19.098036,8.88155111971903,0.1287218717935567
19.100416,8.887185334905944,0.1286402517167726
19.10282,8.893750715652635,0.1285500521480555
19.105208,8.898453765279768,0.1284767937172884
19.107588,8.909442656399877,0.128326014121795
19.109992,8.928020641625068,0.1281039523490384
19.11238,8.945387922036762,0.1279029839804907
19.11476,8.96554869912779,0.1276792217259447
19.117164,8.989853447338511,0.1274044880131112
19.119552,9.016579605176233,0.127091680474032
19.121932,9.047449734133648,0.1267295734484389
19.124336,9.077528467158146,0.1263694354023158
19.126724,9.105884638689943,0.12601999089517
19.129104,9.13144731354241,0.1256968997332575
19.1315,9.156078822835097,0.1253816919548262
19.133888,9.17363309470189,0.1251468690589919
19.136268,9.19081527951635,0.1248987765303348
19.138664,9.210930730637005,0.1246219980307094
19.141052,9.233188052130938,0.1243181962115829
19.143432,9.25330350325159,0.1240426541985764
19.145836,9.274210350305164,0.1237677108532315
19.148224,9.296699989224573,0.1234910819797432
19.150604,9.323054060009955,0.1231800271658611
19.153,9.350059757101398,0.122873405434796
19.155388,9.369196820834032,0.1226442369434118
19.157768,9.388101567141186,0.1223985114637997
19.160164,9.40821701826184,0.1221360263195869
19.162552,9.427401303822718,0.1218831662834662
19.164932,9.44979839494351,0.1215951008536305
19.167328,9.472195486064305,0.1213094964032691
19.169716,9.495523742744874,0.1210197670018991
19.1721,9.522576661664557,0.1207034572794783
19.174504,9.555216573942907,0.1203481526948878
19.176888,9.58757694696754,0.1200033819137676
19.179272,9.623661982231289,0.1196327291064907
19.181676,9.66375121898787,0.1192240828984868
19.18406,9.700487880557674,0.1188569619721095
19.18644,9.7375040813812,0.1184828267178562
19.188836,9.772657951085169,0.1181227548365019
19.191224,9.81088485672219,0.117734325748551
19.193604,9.843245229746824,0.117396665377443
19.196008,9.871741170905484,0.1170922481567973
19.198396,9.899026407250645,0.116807535866856
19.200776,9.926591182849526,0.116513816339277
19.203172,9.964026692553633,0.1161359477899763
19.205556,9.996107526324549,0.1158179408476885
19.20794,10.023392762669706,0.1155375680647485
19.210344,10.047093106402611,0.1152784640352955
19.212728,10.061853881590077,0.1150977635063343
19.215108,10.075543721590895,0.1149296378498411
19.217504,10.085369129725748,0.1147927540306566
19.219892,10.093611745994762,0.1146593912620335
19.222272,10.096407138531966,0.114559193062957
19.224676,10.101903479949888,0.1144170245045041
19.22706,10.105817029501976,0.1142779758959565
19.22944,10.108287556815084,0.1141366838396889
19.231836,10.115972990434528,0.1139456747551606
19.23422,10.118862826628217,0.1137897869998832
19.236604,10.1258966339416,0.1135957600344733
19.239008,10.128414383082951,0.1134269978934064
19.241396,10.137217973717275,0.1131983232980055
19.243776,10.146301103605325,0.1129594469480141
19.246172,10.151147714575057,0.1127353941139314
19.24856,10.15599432554479,0.1125120239608617
19.25094,10.153903468715496,0.1123452519184917
19.253336,10.154885647819254,0.112151240710077
19.255724,10.161734359535403,0.1119129646789041
19.258104,10.169094927930754,0.1116828124989993
19.2605,10.184463899311767,0.1113861926142717
19.262888,10.197179143640309,0.1111021172443876
19.265284,10.206961121662657,0.110838970557785
19.26768,10.2155323948715,0.1105920869026893
19.270064,10.22289296326685,0.1103602032968482
19.272448,10.229042826848698,0.1101451709837715
19.274844,10.23305082005727,0.1099516428027053
19.277228,10.236639504385264,0.1097729688480603
19.279608,10.24143889352675,0.1095806323467895
19.282004,10.25396714640019,0.109334866149101
19.284392,10.260489097034377,0.1091371971175181
19.286776,10.270735709907676,0.1089178467856293
19.28918,10.276046955728363,0.1087361064626898
19.291568,10.283220532668608,0.1085436741287992
19.293948,10.293047836661326,0.1083393407738114
19.296352,10.300081643974712,0.1081513821194711
19.29874,10.309257321661375,0.1079432554923472
19.30112,10.31549973304184,0.1077561275358885
19.303516,10.317877712556337,0.1075959073686029
19.3059,10.323096410578406,0.1073918528617784
19.308284,10.324730215988222,0.1072049898246862
19.31068,10.324361920651624,0.1070325862502431
19.313068,10.328137596434718,0.106823871058002
19.315448,10.331261645911756,0.1066109092447426
19.317844,10.340951076135482,0.1063335809015763
19.320232,10.347567470426156,0.1060816521082033
19.322628,10.357396670276746,0.1058003120028674
19.325024,10.367505409381057,0.1055098104929886
19.327408,10.36760364475328,0.105295049248503
19.329792,10.360904181953336,0.1051266008121995
19.332188,10.360211021392642,0.1049131573373851
19.334572,10.354442724152475,0.1047394016969098
19.336952,10.34960559247209,0.1045601159749991
19.339356,10.343837295231925,0.1043860815153054
19.34174,10.339139933178398,0.1042023798167628
19.344124,10.338167233363984,0.1039984826814815
19.34652,10.336123598362928,0.1038045922106658
19.348912,10.338223934481574,0.1035767420666918
19.351292,10.340324270600217,0.103348623273189
19.353688,10.341865528211418,0.1031399447421319
19.356076,10.344989577688452,0.1029309888126478
19.35846,10.35505109496452,0.1026737815950862
19.360856,10.36897704410656,0.1023942746036076
19.363244,10.384625554741296,0.1021102777882063
19.365624,10.394639850189115,0.1018839940401357
19.368028,10.410800217503049,0.101612060436077
19.370416,10.424818714443706,0.1013598575511563
19.372796,10.4386974417575,0.1011126940330052
19.3752,10.459373867243466,0.1008224459072593
19.377588,10.47963098384885,0.1005447520177347
19.379968,10.4958838989614,0.10029628331914
19.382364,10.515209850007006,0.1000239313848053
19.384752,10.538400232918589,0.0997297216666951
19.387132,10.561590615830164,0.0994360732766187
19.389528,10.584641229114885,0.0991484133599831
19.391916,10.606900446466684,0.0988624774134358
19.394296,10.630230599005127,0.0985685195532264
19.396692,10.651139341916569,0.0983028470515984
19.39908,10.673770646320705,0.0980331718941235
19.401464,10.694260080351569,0.0977816717096616
19.40386,10.715680679942205,0.0975271688770113
19.406248,10.736681970652263,0.0972885298173902
19.408644,10.754749995056128,0.0970693758422165
19.41104,10.77281801945999,0.0968511519491312
19.413428,10.791956979050491,0.0966241174066674
19.415808,10.803739161961383,0.0964536909004696
19.418204,10.816592280058911,0.0962752308027105
19.420592,10.831307729276,0.096089196266005
19.422972,10.848025279239502,0.0958918836838901
19.425372,10.870097505136195,0.0956528940490998
19.42776,10.894963227712228,0.0954025063742043
19.430136,10.922622446967596,0.0951415027695579
19.432544,10.947208630289907,0.0949026182566041
19.434928,10.974076453612357,0.0946444094424361
19.437308,11.000804507307944,0.0943915343938121
19.439712,11.028184187309591,0.0941448010017976
19.4421,11.053421996937962,0.0939148797461925
19.44448,11.078939345820052,0.0936766695391416
19.446876,11.105807169142505,0.0934233894393328
19.449264,11.136958733211506,0.0931391445386832
19.451644,11.168110297280514,0.0928568808140374
19.45404,11.194606033550622,0.0925939110318569
19.456428,11.21788896426082,0.0923548418445052
19.458808,11.23930956385146,0.0921236495991124
19.461212,11.261661329001878,0.0918892497621069
19.4636,11.292161266764824,0.0916054050795894
19.465984,11.320519334154492,0.0913378491895269
19.46838,11.345012969678187,0.0910894602597575
19.470768,11.365502403709048,0.0908649164720179
19.473148,11.381987636247077,0.0906641033264362
19.475544,11.39539983285205,0.0904826554255129
19.477932,11.408160403150964,0.0902978374465493
19.480312,11.419989807890095,0.0901164687823534
19.482708,11.42804732856188,0.0899747843714236
19.485096,11.436384388487378,0.0898253472094012
19.487476,11.44234726061412,0.0896742914113252
19.489876,11.45003269423356,0.0895205196228244
19.492264,11.460651394159196,0.0893531601187099
19.49466,11.468988454084696,0.0892053677910133
19.497056,11.472250377330722,0.089086837334995
19.499444,11.471647868710772,0.0889857497314128
19.501824,11.473978626397022,0.088870590482311
19.50422,11.480313585576106,0.0887341036493095
19.506608,11.487439940688107,0.0885983551594774
19.508988,11.49377489986719,0.0884621021273528
19.511392,11.493032621620385,0.0883653637892163
19.51378,11.493081739306495,0.0882693363472615
19.51616,11.496995288858583,0.088156302191281
19.518564,11.502771169530227,0.0880368338088654
19.520952,11.511200777254349,0.0879119242027363
19.523332,11.523774356098157,0.087762505717268
19.525728,11.532855590128332,0.0876430663674699
19.52812,11.54687219121112,0.0875003620113484
19.530504,11.565312302667325,0.0873254729532121
19.532896,11.579468673376969,0.0871789698233118
19.535284,11.592786426325452,0.0870562888768734
19.537664,11.60852558890094,0.0869122143263352
19.54006,11.622402420356863,0.0867753519936733
19.542448,11.637210417372572,0.0866356933715173
19.544828,11.65495168069447,0.0864829369580725
19.547228,11.675905749576286,0.0863093767944849
19.549612,11.69699958808496,0.0861327128015446
19.551992,11.714089225100802,0.08597619128593
19.554396,11.733180962863065,0.0858103053894113
19.556784,11.753343635811962,0.0856381156875396
19.559164,11.775648179134135,0.0854519060517118
19.56156,11.79436782984406,0.0852730079777991
19.563948,11.811085379807563,0.0851046226336529
19.566328,11.82608036827837,0.0849384599048389
19.568724,11.840423730443124,0.0847681852933861
19.571116,11.849691955928405,0.0846246049882211
19.573496,11.86152136066754,0.0844558189138494
19.575892,11.869626103167562,0.0842995089233557
19.578276,11.873075017868691,0.0841578256620334
19.580676,11.882809774062794,0.0839798503209713
19.583072,11.891241277644784,0.0837913657854457
19.585456,11.89259554380088,0.0836383579465067
19.58784,11.89194770921056,0.0834949935010802
19.590236,11.890788017941045,0.0833429881832683
19.59262,11.888697161111748,0.0831939398531378
19.595004,11.88590745614815,0.08306444517686
19.5974,11.883909147117471,0.0829363757534568
19.599788,11.887125744393128,0.082779493423077
19.602168,11.89262398166892,0.0826068079967826
19.604568,11.895188952638517,0.0824459504926417
19.606956,11.896682988421476,0.0822915067521495
19.609336,11.906045657563238,0.0821046611429217
19.611736,11.919552297824696,0.0818969369091128
19.614124,11.93813407476563,0.0816660535093615
19.616504,11.95564491651992,0.0814421331461515
19.618904,11.978650203834263,0.0811836838908759
19.621288,12.000584555961971,0.0809324471377254
19.623672,12.0203770377164,0.080693631082642
19.626068,12.043894181709945,0.0804454171617216
19.628456,12.06540922495707,0.080207481684775
19.63084,12.095863836749642,0.0799344020929603
19.633236,12.132324750781462,0.0796355148328606
19.635624,12.173860801492758,0.0793154981549042
19.638004,12.214046377763694,0.0790094593062327
19.640404,12.25823615552746,0.078688850284553
19.642788,12.300191515119336,0.0783605145350344
19.645184,12.339493147658738,0.0780366035946776
19.647584,12.374790578705303,0.0777307670216407
19.649972,12.403150541952844,0.0774530361028395
19.652352,12.435374937066356,0.0771632338623037
19.654752,12.47174330329956,0.0768547709195423
19.657136,12.50610956878635,0.0765570722760275
19.659516,12.537822107220665,0.0762648124397873
19.661912,12.563528343415726,0.0759974191890537
19.6643,12.587512018118092,0.0757306816132169
19.666684,12.608282887260543,0.0754824660173148
19.669088,12.62598072046994,0.0752472915548452
19.671476,12.644889258492832,0.0750025839111106
19.67386,12.663006400582807,0.074757548135104
19.676256,12.682194477859426,0.0745081359863895
19.678644,12.695516022523652,0.0742796228595811
19.681028,12.70711500569518,0.0740522661484617
19.683424,12.70991418994812,0.0738528795009491
19.685812,12.71606594938784,0.0736341182450115
19.688192,12.716490945842027,0.0734306789884056
19.690588,12.719197582296353,0.0732129752388941
19.692976,12.7209730531909,0.0729968075286332
19.695356,12.724890394458724,0.072770180612995
19.69776,12.731461462779022,0.0725411767343828
19.700148,12.736449739233484,0.0723094880245213
19.702524,12.738784288635474,0.0720804932702906
19.704924,12.738465110984986,0.0718536436810069
19.707312,12.731860091841533,0.0716540218435931
19.709692,12.72818833900427,0.0714456405970439
19.712088,12.72945195321962,0.0712220839692631
19.714476,12.727502761875051,0.0710136181881834
19.71686,12.7316996423966,0.07078130141656
19.719256,12.737758854037702,0.0705458683595235
19.721644,12.739813864185969,0.0703238764428446
19.724024,12.735210945788925,0.0701165684394891
19.72642,12.728326387391748,0.0699226791345252
19.728812,12.72237299455435,0.0697273336459056
19.731192,12.722006595075618,0.069521810671998
19.733588,12.720429490783392,0.069325388232605
19.735976,12.719504012797218,0.0691339393550624
19.738356,12.720952722609802,0.0689487503585184
19.740756,12.725986325034638,0.0687609829562827
19.74314,12.72794689152642,0.0685847035420387
19.745536,12.73125793245856,0.0683968929909325
19.747936,12.73200779413684,0.0682290801658827
19.75032,12.732338346934544,0.0680716794124733
19.7527,12.734531230851804,0.0679115134672488
19.7551,12.741799251448535,0.0677332429877836
19.757488,12.749067272045266,0.0675554832143448
19.759868,12.750980616708803,0.0674022302467275
19.762272,12.756246536559122,0.0672308000891574
19.76466,12.760161981969077,0.0670718364148858
19.76704,12.765288132192527,0.0669053190054868
19.769436,12.77707221096129,0.0667262648288154
19.771824,12.797236779768056,0.0665353378897735
19.774208,12.82140555006766,0.0663326406812858
19.776608,12.8454345507404,0.0661342465671079
19.778996,12.871605421786418,0.0659277504150618
19.781376,12.897776292832432,0.0657221405508467
19.783772,12.924226703132172,0.0655098549694778
19.786164,12.946533142312216,0.0653131986431405
19.788544,12.967117019999565,0.0651163916726584
19.79094,12.991705099179748,0.0649085156318168
19.793332,13.014291077613512,0.0647069507737912
19.795712,13.040089861607193,0.0644919216026705
19.798108,13.063886544854457,0.06428250523442
19.800496,13.088195084780915,0.0640827771384296
19.80288,13.112503624707378,0.0638835470724012
19.805276,13.134018667954503,0.063688079805477
