Time,Force,Position
17.203523999999998,7.108681838534981,0.1552772303312251
17.205911999999998,7.21994569571021,0.1541622157685183
17.208295999999997,7.315663069338668,0.1530626282248369
17.210691999999998,7.395507198338389,0.1520527047984744
17.213079999999998,7.472000648009205,0.1510238770309836
17.215459999999997,7.538717807231282,0.1501198661567265
17.217855999999998,7.592026561564125,0.1494265559902791
17.220243999999997,7.640819257724936,0.1488055385286538
17.222623999999996,7.695850573550472,0.148115721734444
17.225028,7.751998150533024,0.1474599565961328
17.2991,7.762427963145689,0.1471394688503374
17.301479999999998,7.766384942810279,0.1471161889217687
17.303876,7.774997750273761,0.1470359854274496
17.306264,7.787754528856938,0.1468893572350602
17.308643999999997,7.7957157100143615,0.1468073844627692
17.31104,7.809775741209655,0.1466652429562492
17.313428,7.831564636136894,0.1464174134369468
17.315807999999997,7.85619424957171,0.1460994259059237
17.318212,7.882733415954326,0.1457222580251204
17.3206,7.909272582336944,0.1453549526916366
17.322979999999998,7.936323605398757,0.1449969184722938
17.325376,7.965004642154651,0.1445950574437422
17.327764,7.995735001485205,0.1441341098767312
17.330143999999997,8.025673964882841,0.1436792991793624
17.332539999999998,8.058546194586672,0.1431851991734092
17.334927999999998,8.097704265783474,0.1425943227388499
17.337307999999997,8.134488149181522,0.1420167129948174
17.339703999999998,8.167175283288117,0.1414640250385085
17.342087999999997,8.200141956648434,0.1409008632007905
17.344483999999998,8.231106529262336,0.1403690990979249
17.34688,8.262630180383677,0.1398156444469586
17.349268,8.290988247773345,0.1392814924011312
17.351647999999997,8.313619552177485,0.1388194516165291
17.354048,8.33117571990215,0.1384287352568977
17.356431999999998,8.350873758000093,0.1380034904016204
17.358811999999997,8.368337377926142,0.1375844937775151
17.36122,8.383426810053438,0.1371812658764901
17.363604,8.399307638113651,0.1367784881740402
17.365983999999997,8.414769157293284,0.1363967797555758
17.36838,8.417938532740694,0.1361856476184008
17.370767999999998,8.423249778561381,0.135942389088572
17.373151999999997,8.429492189941849,0.1356907398926614
17.375548,8.431171321322044,0.1355174437592932
17.377931999999998,8.432570913448513,0.1353568865890328
17.380315999999997,8.433970505574983,0.1351968648045425
17.382711999999998,8.430946587328041,0.1351071751124891
17.385095999999997,8.427782899454238,0.1350236384987048
17.387491999999998,8.430485744192824,0.1348698249233144
17.389888,8.436913251170525,0.1346795561838534
17.392276,8.441850514081006,0.1345233046316462
17.394655999999998,8.442504036244934,0.1344300244960938
17.397052,8.443110336580617,0.1343708568597898
17.39944,8.449303630274972,0.1342552764783268
17.401819999999997,8.458709729529243,0.1340919774150483
17.404215999999998,8.468627685462708,0.1339384988124297
17.406603999999998,8.48199076438157,0.1337608986771577
17.409,8.491861498486793,0.1336424723950114
17.411395999999996,8.49744849184546,0.1335865640801926
17.413783999999996,8.501173154084576,0.1335492927582868
17.416164,8.51718996005591,0.1333495359520882
17.41856,8.531716521960025,0.1331850377573314
17.420948,8.547546336476257,0.133028977603805
17.423327999999998,8.56337615099249,0.1328722388784105
17.425724,8.579066195881861,0.1327215147361192
17.428112,8.59554763670415,0.1325691644595568
17.430491999999997,8.616824674952191,0.1323664390934441
17.432888,8.642245684319924,0.1321107831213471
17.435271999999998,8.665664592941244,0.1318818301053668
17.437672,8.682146033763534,0.1317345794581945
17.440067999999997,8.702539128280039,0.131513445357765
17.442455999999996,8.726936424289379,0.1312449840219149
17.444836,8.755105604366074,0.1309101351340164
17.447239999999997,8.77847918701702,0.1306269412824666
17.449623999999996,8.805577431907077,0.1303122384948313
17.452004,8.832955216050854,0.1299873835528204
17.454407999999997,8.857399733888437,0.1296959258165189
17.456795999999997,8.8827754172858,0.1293938665079093
17.459176,8.907779013630822,0.1290750391957912
17.461579999999998,8.935715876282043,0.1287253113563512
17.463963999999997,8.959788307067289,0.1284202288085653
17.466344,8.984280046733113,0.1280984960564708
17.468739999999997,9.002253627480492,0.1278357789823383
17.471127999999997,9.022089539347428,0.12755624891972
17.473508,9.045278026401135,0.1272302017952129
17.475903999999996,9.061249506402095,0.1269899883874051
17.478291999999996,9.073356554537083,0.1267906386331042
17.480672,9.080248696365738,0.1266564776303994
17.483075999999997,9.088211773381031,0.1265091295199279
17.485459999999996,9.10031882151602,0.1263116989220331
17.487844,9.107583050397013,0.1261933837685538
17.490239999999996,9.11577844483778,0.1260680314538828
17.492627999999996,9.121412660024694,0.1259881616926242
17.495008,9.128117810398246,0.1258944935604732
17.497404,9.130818759278965,0.1258446400661624
17.499792,9.13337993853282,0.1258006506246397
17.502171999999998,9.137291592227038,0.125732050907361
17.504568,9.144416051481173,0.1256232348360103
17.506956,9.156056568907337,0.1254814116303906
17.509339999999998,9.165834755213943,0.1253557542905048
17.511736,9.17561294152055,0.1252308252484112
17.514124,9.185530897454017,0.1251009856630032
17.516519999999996,9.201455155626734,0.1249087488179736
17.518915999999997,9.21938151454587,0.1246972541168161
17.521303999999997,9.232232736785532,0.1245407495167694
17.523684,9.256584706824496,0.1242523399981762
17.526079999999997,9.2820076120501,0.1239515930629538
17.528467999999997,9.313716358768676,0.1235802302953681
17.530852,9.343283235113976,0.1232363750311729
17.533247999999997,9.365772874033382,0.1229649536964664
17.535635999999997,9.392546253699344,0.1226413446483053
17.538016,9.414663805566416,0.1223558894551416
17.540411999999996,9.434267400007874,0.1220813578030615
17.542799999999996,9.452660289635832,0.1218248450958296
17.54518,9.470913409636932,0.1215736794516754
17.547583999999997,9.487024659264751,0.1213484365670755
17.549971999999997,9.503787535198631,0.1211282932890346
17.552352,9.52055041113251,0.1209100606421667
17.554755999999998,9.53666166076033,0.1206904773555327
17.557143999999997,9.551981514455235,0.1204727408677598
17.559523999999996,9.56609066333664,0.120273528632398
17.561919999999997,9.578197711471626,0.1200943490178933
17.564307999999997,9.587371493300418,0.1199429037581101
17.566688,9.594682944009657,0.1198065247512226
17.569083999999997,9.60385672583845,0.1196556581220099
17.578651999999998,9.578906038895276,0.119637155944922
17.581031999999997,9.578768165126286,0.119557171249018
17.583436,9.578909830611016,0.1194669896347106
17.585824,9.58198476240194,0.1193509523267295
17.588203999999998,9.589855291618615,0.1191958117381142
17.5906,9.600007460835428,0.1190113260386518
17.592988,9.610578938932823,0.1188111369410283
17.595367999999997,9.624502992216993,0.1185700290175538
17.597763999999998,9.635354009568108,0.118360053524866
17.600147999999997,9.642200825426388,0.1181877615616942
17.602531999999997,9.645043439791836,0.1180531038383887
17.604931999999998,9.6486774500902,0.1179169169639035
17.607319999999998,9.652451230015426,0.1177755328674396
17.609699999999997,9.660368981060346,0.1175923768518248
17.612095999999998,9.668426501732128,0.1174042146630668
17.614483999999997,9.67583239609785,0.1172127752773884
17.616864,9.684588764903928,0.1169996196421373
17.619267999999998,9.70242447188232,0.1167020763862216
17.621655999999998,9.723053675540038,0.1163847251318867
17.624035999999997,9.748338706996652,0.1160354275848668
17.62644,9.77562583919968,0.1156688489172417
17.628828,9.795835733976824,0.1153706893059597
17.631207999999997,9.81204142726113,0.1151090337047992
17.633604,9.827176185358798,0.1148596012256644
17.635991999999998,9.839796986030851,0.1146205666754126
17.638371999999997,9.853628491516403,0.1143666586025846
17.640767999999998,9.871464198494794,0.1140799734301149
17.643155999999998,9.887158035099905,0.1138168447446722
17.645535999999996,9.903271180585593,0.1135380362602607
17.647931999999997,9.926601333124031,0.1131933409149245
17.650319999999997,9.954866852715083,0.1128095343703523
17.6527,9.986345177866053,0.1123953595761521
17.655095999999997,10.016100941524323,0.1119876849691142
17.65748,10.04236436036896,0.1116249643835857
17.659875999999997,10.070629879960013,0.1112473870159533
17.662271999999998,10.09847609067048,0.1108852245233558
17.664659999999998,10.12725346694073,0.1105198511429973
17.667039999999997,10.150024540971728,0.1102065434565145
17.669435999999997,10.174006319816224,0.1098796603950418
17.671823999999997,10.193332270861832,0.1095818390122432
17.674204,10.21144751709394,0.1093002581015055
17.676603999999998,10.230354159258964,0.1090169408638149
17.678987999999997,10.252333837357044,0.1087071105986664
17.681372,10.275524220268624,0.1083829458169938
17.683767999999997,10.298015755045904,0.108083507422859
17.686155999999997,10.316223549076629,0.1078263507688946
17.688539999999996,10.328704580121824,0.1076086256616965
17.690935999999997,10.341325380793876,0.1073863456204331
17.693323999999997,10.353946181465927,0.1071638845852647
17.695719999999998,10.360420910271872,0.1069947733937658
17.698112,10.3636828335179,0.1068568474939788
17.700499999999998,10.36065891527096,0.1067750572515117
17.702879999999997,10.362430594449766,0.1066619159424337
17.705284,10.362899021016458,0.1065401959221438
17.707667999999998,10.358571850157398,0.1064498248341936
17.710047999999997,10.35573492336556,0.1063351634186013
17.712443999999998,10.35117543508102,0.1062264311181497
17.714831999999998,10.349828752356402,0.1060879562371047
17.717211999999996,10.345548803325588,0.1059698811551858
17.719607999999997,10.346343990974246,0.1058120881579185
17.721995999999997,10.347278948249762,0.1056496690686278
17.724391999999998,10.348493444779,0.1054775859328557
17.726788,10.349568171681376,0.1053106573893055
17.729172,10.349432193770255,0.1051584131002565
17.731555999999998,10.348784359179938,0.1049970585137466
17.733947999999998,10.350418164589756,0.1048112732154069
17.736335999999998,10.354565927425186,0.1046196591363053
17.738715999999997,10.356851359141064,0.1044379475003664
17.74112,10.362209826789996,0.1042322021728242
17.743508,10.367708064065786,0.1040215018965052
17.745887999999997,10.370692343915962,0.1038159675700599
17.748292,10.379822695632248,0.103561547862809
17.75068,10.386159550669202,0.1033233146047085
17.753055999999997,10.39421896719885,0.103079645100651
17.755452,10.40293001003456,0.102839227741546
17.757839999999998,10.409359412870128,0.1026232133466427
17.760219999999997,10.416160902758032,0.1024214546594471
17.762615999999998,10.419749587086024,0.102248964322683
17.765003999999998,10.425200602533574,0.1020668436404558
17.7674,10.425576481301649,0.101923434080121
17.769796,10.427814691189282,0.1017707211271096
17.772184,10.432986167383111,0.1015992986959812
17.774563999999998,10.440019974696495,0.1014192825625231
17.776967999999997,10.4461226164501,0.1012439232762471
17.779355999999996,10.45702085562946,0.1010413155567969
17.781736,10.47057282186129,0.1008303979695884
17.784139999999997,10.482541996227283,0.1006199447339086
17.786523999999996,10.499306768019034,0.1003825882796428
17.788904,10.51579200055706,0.100156034781774
17.791299999999996,10.53120629790845,0.0999380626598177
17.793688,10.55006571824523,0.0997106427015207
17.796067999999998,10.567993973022237,0.0994897697460702
17.798464,10.586573854105296,0.0992741427599097
17.800852,10.605945131121274,0.0990591628523632
17.803231999999998,10.631322710376503,0.0988050891860536
17.805635999999996,10.654698188885318,0.0985632380125881
17.808024,10.677282271461214,0.0983217536623265
17.810404,10.702939389970163,0.0980588813123868
17.8128,10.72645463810584,0.0978140664381488
17.815188,10.75262361329399,0.0975603683664857
17.817567999999998,10.775859322175942,0.0973250473691501
17.819964,10.79588222549798,0.0971169031799
17.822352,10.810178365834483,0.0969395901330563
17.824731999999997,10.827687311730909,0.0967365952552535
17.827136,10.841611365015076,0.0965478233823172
17.82952,10.853673087179686,0.0963686429409362
17.831903999999998,10.867177831583277,0.0961945385712819
17.8343,10.877330000800091,0.0960512352854729
17.836688,10.885619838897348,0.0959167368535516
17.839067999999997,10.897913878487438,0.0957572660221285
17.841472,10.909696061398332,0.0955891660197082
17.84386,10.919196604309086,0.0954428372051814
17.846239999999998,10.929768082406476,0.0952887900480472
17.84864,10.94169003494423,0.0951186030995919
17.851028,10.94881639005623,0.0949733394030583
17.853407999999998,10.96301998259412,0.0947837779111892
17.855804,10.977223575132012,0.0945943751439744
17.858192,10.989005758042904,0.0944304715706825
17.860571999999998,11.003069580953936,0.094246164739934
17.862968,11.018623647932182,0.0940418746402951
17.865356,11.035108880470208,0.0938336863772611
17.867752,11.050802717075316,0.0936244707046384
17.870147999999997,11.071152381479315,0.0933959048152892
17.872535999999997,11.089220405883182,0.093188854881965
17.87492,11.107660517339385,0.0929956553010998
17.877315999999997,11.12409852804917,0.092814575067856
17.879703999999997,11.139745142826037,0.0926333170115357
17.882084,11.15688200167012,0.0924316898438938
17.884479999999996,11.174670486820265,0.0922351955129046
17.886867999999996,11.192039663089826,0.0920525257871913
17.889252,11.211131400852082,0.0918675582392079
17.891647999999996,11.229571512308285,0.0916778288078535
17.894035999999996,11.24521812708515,0.0914996605912628
17.896416,11.258583101861875,0.0913420970239354
17.898812,11.275532969250856,0.091174860067828
17.9012,11.288199095893283,0.0910395857776525
17.903579999999998,11.305009193655406,0.0908787526396174
17.905983999999997,11.321447204365192,0.0907048695542691
17.908371999999996,11.336674510261478,0.090543258059435
17.910752,11.347757845038071,0.090408295009752
17.913148,11.359120719068386,0.0902653220638809
17.915536,11.379283392017284,0.0900803764589086
17.91792,11.398003042727208,0.0898908488289768
17.920315999999996,11.417933398250623,0.0896903719074528
17.922704,11.439214228214404,0.0894753169188532
17.925084,11.4624971589246,0.0892498471342957
17.92748,11.486990794448293,0.0890136503850587
17.929868,11.511484429971992,0.0887786624798132
17.932247999999998,11.535326439189628,0.0885393613042175
17.934644,11.558516822101208,0.0882962648505014
17.937032,11.57877393870659,0.0880674478398253
17.939428,11.60089338643153,0.0878325998566476
17.941827999999997,11.620731194156336,0.0876153774262614
17.944215999999997,11.642571102627556,0.0873884745777812
17.946596,11.660826118486522,0.0871711018007733
17.948991999999997,11.682293939905406,0.0869332238032594
17.951379999999997,11.69482219277884,0.08673979282448
17.95376,11.711075107891393,0.0865346714535609
17.956163999999998,11.72933012375036,0.0863200451411458
17.958551999999997,11.751309801848445,0.0860932315244528
17.960931999999996,11.774080875879442,0.0858680504248897
17.963335999999998,11.788983316551631,0.0856807631788896
17.965723999999998,11.8053287794628,0.085499974364984
17.968103999999997,11.822325868680029,0.0853248804150349
17.970499999999998,11.835039217150698,0.0851773737332227
17.972887999999998,11.848543961554286,0.0850314427856205
17.975267999999996,11.862979871517652,0.0848834228772882
17.977672,11.876065307040662,0.0847502296735451
17.980055999999998,11.88980236886973,0.0846221386754054
17.982439999999997,11.904330826631714,0.0844956234597044
17.98484,11.921792550699896,0.0843570783050339
17.987227999999998,11.943258476260908,0.0842010554918049
17.989607999999997,11.973152113688167,0.0839970017722028
17.992003999999998,11.999041549622598,0.083811848489542
17.994391999999998,12.029447043729055,0.0836177024306764
17.996771999999996,12.05477740115604,0.0834491218688447
17.999167999999997,12.08583452156856,0.0832596536303954
18.001555999999997,12.110745570114968,0.0831020161142504
18.003936,12.1317921867954,0.0829593460805854
18.006331999999997,12.150976472356277,0.082822564467019
18.008719999999997,12.170020988290291,0.0826900827475051
18.0111,12.190136439410947,0.0825512219629983
18.013499999999997,12.209320724971825,0.082415632685026
18.015888,12.226642679413144,0.082285779348888
18.018264,12.244244173108184,0.0821478333116997
18.020668,12.259191939750751,0.0820144268296109
18.023056,12.269855965646762,0.081906764892689
18.025436,12.283732797102688,0.0817804409437893
18.027836,12.297097771879418,0.0816457863385784
18.030224,12.307948789230537,0.0815117831800863
18.032604,12.318939576208509,0.0813747987560107
18.035008,12.320711255387318,0.0812832692106993
18.037396,12.314986388259657,0.0812355943474682
18.039776,12.312334557065052,0.081172911544603
18.042172,12.303304336578856,0.0811240979498953
18.044564,12.299489022398998,0.081048008813332
18.046944,12.296884413032634,0.0809622341069398
18.04934,12.299494709972604,0.0808493677246532
18.051728,12.305969438778549,0.0807230685298345
18.054112,12.311792541278432,0.0805918845332713
18.056516,12.320828449338231,0.0804431947821999
18.0589,12.329724587771176,0.0802982920655364
18.06128,12.33689816471142,0.080154652087079
18.06368,12.342349180158967,0.0800120079050183
18.066068,12.354086037099488,0.079837402777573
18.068448,12.366474520346062,0.0796676847342926
18.070852,12.384077909898972,0.0794718803072023
18.07324,12.400889903518964,0.0792761772876248
18.07562,12.416630961952318,0.0790865782660628
18.078016,12.436236452251642,0.0788850609824035
18.080404,12.453048445871634,0.0786909761183329
18.082784,12.47456348911876,0.0784620631773979
18.085188,12.5005020427393,0.0782063340847029
18.087576,12.525788970053783,0.0779464920007082
18.089956,12.55549940774168,0.0776602056245037
18.092356,12.58469798875038,0.0773679558956897
18.09474,12.613244943453022,0.0770724340628345
18.09712,12.642350976663105,0.0767649203553483
18.099524,12.674157958753902,0.076434957070229
18.101912,12.71024868159126,0.0760846968735041
18.104296,12.741031950323665,0.0757413652978458
18.1067,12.772793606444088,0.0753747126903316
18.109084,12.805254110698815,0.0749911360037003
18.111464,12.843348830140457,0.0745754128545312
18.113864,12.876927491410065,0.0741685766894176
18.116252,12.912043618575138,0.0737252661138495
18.118632,12.944273701262256,0.0732709936392173
18.121028,12.973058660963982,0.072818314638824
18.123416,13.005475735106208,0.0723415009193057
18.125796,13.03258535514348,0.0718695572363236
18.128192,13.061045449621112,0.0713864215903861
18.13058,13.089645313725605,0.0709012792308252
18.132964,13.11573122040448,0.0704159342046497
18.13536,13.145169702270133,0.0699148609660543
18.137748,13.17218677450879,0.0694316948330014
18.140128,13.18998473894828,0.0689819177811257
18.142524,13.207782703387767,0.0685337622111367
18.144912,13.220365761520926,0.068107145468819
18.147292,13.228665078907529,0.0677019179024661
18.149688,13.23361182110736,0.0673157845722154
18.152076,13.23599738405333,0.0669478404868713
18.154472,13.23554222849172,0.066605870603667
18.156868,13.233457059236034,0.0662815151271296
18.159256,13.227600005912988,0.0659854082613154
18.161636,13.221695730761702,0.0657110414186163
18.164032,13.21439375934181,0.0654698547210243
18.16642,13.207556422772877,0.0652591016238298
18.168804,13.201882569189197,0.0650620263147628
18.1712,13.19257660116502,0.0648886146841254
18.173588,13.187367382432296,0.0647220255280551
18.175972,13.184532351498325,0.0645620091416463
18.178376,13.181138242056916,0.0644151270950986
18.180764,13.176905514854344,0.0642876743274804
18.183144,13.170111608397914,0.0641791167356266
18.18554,13.166250968247676,0.0640639838592694
18.187928,13.17598572444178,0.0639203846993715
18.190308,13.183438840635745,0.0637889395231847
18.192704,13.19540801500174,0.0636553674067315
18.195092,13.203884844554098,0.0635410378504331
18.197476,13.210080034106324,0.0634385006641219
18.199872,13.223072921830717,0.0633220319267435
18.20226,13.241140946234578,0.0631908936551388
18.20464,13.263864798437334,0.0630548595733358
18.20704,13.284307010639951,0.0629304599290438
