Time,Force,Position
16.614608,6.773797674885216,0.1587342757283258
16.617003999999998,6.841292959035126,0.1585118165178386
16.6194,6.892357815906729,0.1582682852125523
16.645664,6.939371249457263,0.1581475363956521
16.650448,6.949564952928712,0.1581445662287809
16.652828,6.955244494085997,0.1580911772381195
16.655227999999997,6.964648697482399,0.1579799282920494
16.657612,6.975308931662672,0.1579145872159462
16.660007999999998,6.991229398119651,0.1578194700990042
16.662404,7.013203388644124,0.1575762071474047
16.664792,7.028566672451531,0.1574019279604171
16.667172,7.048026705550391,0.1571909228812887
16.669567999999998,7.075680237232151,0.156901761433883
16.671955999999998,7.112273337459356,0.1564595222221827
16.674336,7.148541572462467,0.1559660226553096
16.676731999999998,7.177500252614211,0.1555805217724714
16.679116,7.20841381168413,0.1552034538705445
16.681516,7.247009012657753,0.1547459134190119
16.683912,7.287094457698594,0.1542503888449059
16.6863,7.33323342680693,0.1536135386185325
16.688679999999998,7.379744482967603,0.1529931261915429
16.691076,7.42821041804645,0.1523821744023669
16.693464,7.4798891586852125,0.1517183373086326
16.695844,7.529380702980325,0.1510342822706906
16.698244,7.582132274663595,0.1502528232015447
16.700632,7.626456134480615,0.1496282342351605
16.703011999999998,7.671571390230556,0.1490053238036189
16.705408,7.714312458181741,0.1484011297209675
16.707796,7.753515855348917,0.1478009238254255
16.710176,7.785362475836482,0.1473359645903811
16.712571999999998,7.818372579309303,0.146881302784083
16.714959999999998,7.84979989091629,0.146442695152711
16.717356,7.880762567672321,0.1459647760637447
16.719756,7.899620092151233,0.1456436759954015
16.722144,7.916847602936068,0.1453723011300234
16.724524,7.937008380027095,0.1450592771852902
16.72692,7.952001472640036,0.1447954608740705
16.729308,7.9633171248421055,0.144544736501992
16.731688,7.971280201857399,0.1443575545465141
16.734088,7.976030473312777,0.1442268644277805
16.736476,7.981479592902455,0.1440619783846718
16.738856,7.987627560626436,0.1438642496969349
16.741256,7.987769226111165,0.143754906370448
16.746024,7.976784126706797,0.1437429402848185
16.74842,7.973340899579274,0.1436712806684262
16.750808,7.967383715026136,0.1436195096592716
16.753187999999998,7.964220027152333,0.1435345396227053
16.755588,7.9654326278237,0.143408099255224
16.757976,7.9670645373756495,0.14326060253548
16.76036,7.968696446927598,0.1431130263688355
16.765148,7.957059721217174,0.1430985098903756
16.767528,7.956222999313883,0.1430364038661246
16.772316,7.947379770282792,0.1429883137106685
16.774696,7.946962357260079,0.1429057157147366
16.777092,7.942540742744534,0.1428815008989831
16.77948,7.938678206736429,0.1428299551053375
16.781859999999998,7.93732962815394,0.1427586192345795
16.784268,7.9379359284896225,0.1426950346446047
16.786652,7.937191754384948,0.1426629353846793
16.789032,7.937937824347491,0.1425926962163654
16.791428,7.939615059869815,0.1425110616520378
16.793816,7.948601850243503,0.1423491416179362
16.7962,7.958891893229308,0.1421936728274339
16.798596,7.967459374722416,0.142052898217559
16.800984,7.971510798043494,0.1419599139580039
16.803364,7.975562221364571,0.1418678968318774
16.80576,7.98426947248454,0.141722963593867
16.808148,7.993256262858229,0.1415647251191366
16.810527999999998,8.012253556964001,0.1412693303461262
16.812928,8.03446365662969,0.1409196316314192
16.815316,8.053041641854882,0.1406427704810068
16.817695999999998,8.072550792639854,0.140355138250346
16.820092,8.094341583424962,0.1400252512031986
16.82248,8.109846532717098,0.1397927228671382
16.824876,8.129727770554407,0.1395197499260832
16.827272,8.149748778018575,0.1392407502139889
16.82966,8.168186993616906,0.1389719073541809
16.83204,8.185042417349402,0.1387125909235278
16.834443999999998,8.20040759701468,0.1384902064355455
16.836831999999998,8.21921789966535,0.1382410124678807
16.839212,8.243243108622353,0.1379162280312441
16.841611999999998,8.259679223474269,0.1376822886951147
16.843996,8.275184172766405,0.1374601650771671
16.84638,8.295205180230575,0.1371951881113862
16.848776,8.319090619560718,0.1368842898548984
16.851164,8.341533036651883,0.1365772676945062
16.853544,8.365046388929688,0.1362590670145244
16.85594,8.391353237886827,0.1359142301929534
16.858328,8.407789352738742,0.1356930595679264
16.860712,8.42916083464327,0.1354148168878267
16.863108,8.455747222854129,0.1350666085214712
16.865492,8.485406646998046,0.1346812292456304
16.867876,8.516928402261517,0.1342799862324115
16.870272,8.551662963084905,0.1338297636787964
16.87266,8.587887767975511,0.1333508014624221
16.87504,8.626906069545454,0.1328485647220224
16.87744,8.666203910369116,0.1323374963186314
16.879828,8.706852225633137,0.1318032710892613
16.882208,8.750061720151015,0.1312226475719283
16.884608,8.78926701317606,0.1306917271055787
16.886996,8.82539927026805,0.1302051622994354
16.889376,8.863533628106454,0.1296936307298141
16.891772,8.900597050758225,0.1291980821058945
16.89416,8.935798142290436,0.1287240618016056
16.896544,8.968857363449368,0.1282813714651156
16.89894,8.998564009421527,0.1278879201601352
16.901328,9.02519761946063,0.1275356624057738
16.903724,9.04917750244726,0.1272053311663067
16.906119999999998,9.0780927524865,0.1268206043066085
16.908507999999998,9.102212405099989,0.126487353866895
16.910888,9.12339879140728,0.1261879099999607
16.913287999999998,9.143374472901074,0.1259111867932117
16.915675999999998,9.16321038476801,0.1256424793269317
16.918056,9.187841894060696,0.1253313403802206
16.920455999999998,9.208329432233691,0.1250701080095064
16.922843999999998,9.222810668167432,0.124872900776356
16.925224,9.235941429660814,0.1247009813976376
16.92762,9.247861486340696,0.1245492074374267
16.930008,9.25964177339372,0.1244042648042839
16.932388,9.27356393082002,0.1242329580384098
16.934787999999998,9.28362165638035,0.1240973802795358
16.937176,9.294750317127315,0.1239490943517399
16.93956,9.305087581941365,0.123802736833008
16.941955999999998,9.312631350076074,0.1236792106380078
16.944344,9.320314887837648,0.1235501958475878
16.946724,9.33642613746547,0.1233233748205959
16.949123999999998,9.34816109854812,0.1231225068286683
16.951511999999997,9.360687455563689,0.122920226987384
16.953896,9.37228264701948,0.1227265353278068
16.956291999999998,9.380013406609296,0.1225674129428938
16.968232,9.345475316530356,0.1224681012050811
16.970627999999998,9.339378362350356,0.1224159937781891
16.973015999999998,9.33342117779722,0.1223583310659643
16.9754,9.326672597311164,0.122302545564917
16.9778,9.315128419399356,0.122289604894382
16.980188,9.304515407047324,0.1222688798335548
16.982568,9.299768927307683,0.1221926475821416
16.984968,9.29781594424738,0.1220946411090881
16.987356,9.301869263426328,0.1219374479126119
16.989739999999998,9.308716079284608,0.1217585174578165
16.992136,9.31570266476975,0.1215743654268166
16.994524,9.312259437642226,0.1215055503092809
16.996907999999998,9.317336470179567,0.12136749999926
16.999304,9.32148233715713,0.1212367900913103
17.001692,9.323905642641996,0.1211149351759205
17.004075999999998,9.337130847791869,0.1208953968343339
17.006472,9.3625084270471,0.1205571047232496
17.00886,9.396034178914856,0.120137429210746
17.011243999999998,9.434774837088948,0.1196636745124272
17.013644,9.478311092688786,0.119152466083604
17.016032,9.52650317608752,0.1186108840171321
17.018411999999998,9.568409417993283,0.1181389274603903
17.020816,9.612317760645468,0.1176506864747408
17.0232,9.654875628857289,0.1171844426342058
17.025579999999998,9.70143769856194,0.1166798482331176
17.027984,9.746277206773897,0.1161859946256171
17.030372,9.790045779799216,0.115708793226264
17.032752,9.83008969058542,0.1152619088170538
17.035156,9.86291659431888,0.114888907368067
17.037544,9.897885368425614,0.1144960635363508
17.039924,9.933785308092128,0.1140984138345961
17.04232,9.973968988505195,0.1136521604932492
17.044708,10.006144265932592,0.1132792318589061
17.047088,10.03831954335999,0.1129067437805585
17.049484,10.071425986347167,0.1125282381618647
17.051872,10.094661695229124,0.1122358393391774
17.054256,10.105093403699655,0.1120511628255766
17.056652,10.11044997549072,0.1119132494330049
17.05904,10.114456072841422,0.1117973791413877
17.06142,10.114457968699291,0.1117158032903947
17.063816,10.108733101571632,0.1116750405963754
17.066204,10.106500579257608,0.1115915763211765
17.068583999999998,10.100683164331327,0.1115268067727077
17.07098,10.097147389405189,0.1114353421563618
17.073363999999998,10.092820218546128,0.1113448445417127
17.075748,10.089703752500569,0.1112386715940994
17.078143999999998,10.084213098656251,0.1111351909235054
17.080527999999997,10.0776515096253,0.1110423087583883
17.082924,10.07495435246032,0.1109213760132262
17.08532,10.070115324922064,0.1108220734441211
17.087708,10.068069794063142,0.1107060980607615
17.090087999999998,10.06895752951042,0.1105688137635595
17.092484,10.075991336823805,0.1103787161270751
17.094872,10.084235848950684,0.1101738574647092
17.097255999999998,10.09327175701049,0.109968714507395
17.09966,10.105380701003345,0.1097366864606303
17.102044,10.122564781675674,0.1094610191466716
17.104428,10.14081979753464,0.109174921007071
17.106824,10.15334805040808,0.1089267005424702
17.109208,10.166807468841291,0.108672771759274
17.111591999999998,10.180406656901368,0.1084130274591158
17.113988,10.188790938655112,0.108200484252473
17.116376,10.200620343394249,0.1079755460370702
17.118755999999998,10.211937891454182,0.1077424451565647
17.12116,10.221113569140844,0.1075300211039119
17.123548,10.230009707573789,0.1073282441461582
17.125928,10.238486537126148,0.1071409384278099
17.128328,10.245892431491871,0.1069634494253871
17.130716,10.25027251175278,0.1067839274664769
17.133096,10.251998864961214,0.1066159733030055
17.135492,10.244134023318146,0.1065125564279594
17.145048,10.15843284099538,0.1064766125971298
17.147432,10.13660051595564,0.1064532283817481
17.149828,10.115699356475671,0.1064238154343339
17.152216,10.092004700316377,0.1064102868730246
17.154595999999998,10.073385180836546,0.106355445516489
17.156992,10.05490543098358,0.1062955125712021
17.15938,10.040150343369724,0.106214000843429
17.161759999999997,10.034334824301316,0.1060653835688431
17.164156,10.024934412620654,0.1059329897824236
17.166544,10.012833052059277,0.1058398590584738
17.168927999999998,10.00459612336387,0.1057207633799178
17.171324,9.994496863548903,0.1056120371518236
17.173712,9.9845373733608,0.1054982884310357
17.176108,9.977930458359475,0.1053493822445282
17.178504,9.971695630410483,0.1052142174151055
17.180888,9.967183363954192,0.1050732249788686
17.183272,9.970539730856704,0.1048752312254504
17.185668,9.981113104811968,0.1046155516873024
17.188056,9.996062767312402,0.1043393742733576
17.190436,10.012083364999471,0.1040533036280857
17.19284,10.0287555889926,0.1037721017900932
17.195228,10.042354777052676,0.1035178289912293
17.197608,10.053951864366333,0.103279162842343
17.200004,10.072206880225302,0.1030006964777486
17.202392,10.090322126457412,0.1027283637167454
17.204772,10.110579243062796,0.1024378526911811
17.207168,10.130324502988984,0.1021400331109956
17.209556,10.142992525489282,0.1018971074874094
17.21194,10.157662648735997,0.1016395541267777
17.21434,10.178618613475676,0.1013300937033219
17.216728,10.197991786349522,0.1010224202388053
17.219108,10.219227290342928,0.1007056831677881
17.221508,10.244327226202303,0.1003667028719698
17.223896,10.269007853181105,0.1000434146055497
17.226276,10.297832451279596,0.0996890112778831
17.228672,10.327867754191583,0.0993218032422143
17.23106,10.354830021170518,0.0989789606822458
17.233439999999998,10.381652518522596,0.0986436053273352
17.23584,10.406752454381971,0.0983140137057194
17.238224,10.432364246920551,0.0979945801497167
17.240607999999998,10.460769536138464,0.0976635744490485
17.243004,10.48503085423668,0.0973627915350324
17.245392,10.51487916569357,0.0970374729491485
17.247775999999998,10.54151467159054,0.0967415186420729
17.250172,10.56828994711437,0.096442546389774
17.252556,10.591852417078284,0.0961712032100236
17.254956,10.615507434840817,0.0959241368418844
17.257352,10.64330642372304,0.0956469605312123
17.25974,10.67361937003088,0.095367766864801
17.262124,10.698577640405531,0.0951333633212789
17.26452,10.725910098578936,0.0949014593663326
17.266908,10.75296301749862,0.0946793179809876
17.269292,10.777874066045026,0.0944758620898707
17.271687999999997,10.80478721533785,0.0942614286710606
17.274079999999998,10.828347789443898,0.0940778278470798
17.27646,10.85363092504264,0.0938922649290247
17.278855999999998,10.882918262134217,0.0936833994801981
17.281244,10.910855124785437,0.093492642703375
17.283624,10.938232908929214,0.093319164825576
17.286023999999998,10.967752563446268,0.0931306374443649
17.288408,10.996341052403546,0.0929477618579964
17.290792,11.033729340279407,0.0927184000487827
17.293188,11.06539086516974,0.092517573850313
17.295576,11.09947379968707,0.092294086846757
17.297956,11.13220625976404,0.0920877356902521
17.300352,11.169874086893625,0.091856128232375
17.30274,11.206098891784231,0.0916199979294325
17.30512,11.241112991861344,0.0913974394312103
17.307516,11.273333595259116,0.0911868169502831
17.309904,11.306904673097248,0.0909599640739282
17.3123,11.341406916495156,0.0907319263879615
17.3147,11.375117763960144,0.090503720542762
17.317088,11.404684640305447,0.0903013631246989
17.319468,11.432389185531193,0.0901075567982272
17.321863999999998,11.464097932249764,0.0898928872677482
17.324251999999998,11.493013182289005,0.0896898924614751
17.326632,11.521928432328249,0.0894891628129472
17.329028,11.550052286434568,0.0892881136531302
17.331419999999998,11.584741521287585,0.0890406693664543
17.3338,11.61556632427462,0.0888115274857757
17.336199999999998,11.642247156141966,0.0886077976943183
17.338584,11.66534309539706,0.0884150717380149
17.340964,11.69030136577171,0.0882160688756875
17.34336,11.710975895399804,0.0880467583977461
17.345748,11.730859029094985,0.087876575493755
17.348132,11.748460522790024,0.0877260261190626
17.350528,11.76685341241798,0.0875766736977216
17.352916,11.78524630204594,0.08742781525403
17.355296,11.80657245798009,0.0872664106210338
17.357699999999998,11.828690009847165,0.0871062863731423
17.360087999999998,11.845080798728704,0.086969065372316
17.362468,11.86547578910308,0.0868127048694383
17.364867999999998,11.89508988727662,0.0866063670960256
17.367255999999998,11.9233535110098,0.0864150803616829
17.36964,11.945610832503732,0.0862540763580427
17.372035999999998,11.969450945863503,0.086095363125093
17.374423999999998,11.990869649596274,0.085958934065041
17.376804,12.014150684448602,0.0858170802672145
17.3792,12.031285647434816,0.0857094922325548
17.381588,12.048141071167311,0.0856093096764337
17.383972,12.068209300459724,0.0854888341525387
17.386368,12.08385401937872,0.0853990192137814
17.388756,12.098567572737942,0.0853123422999059
17.391136,12.117285327589997,0.0852067584883006
17.393532,12.138796579121385,0.085092787728178
17.39592,12.157514333973436,0.0849875985478936
17.398304,12.176232088825488,0.0848828018699858
17.400703999999998,12.198162649237457,0.0847591392331905
17.403088,12.21608900815659,0.0846547350085883
17.405472,12.234015367075727,0.0845507070516431
17.407868,12.25315243080836,0.0844360955501421
17.410256,12.266422961928605,0.0843462573938613
17.412651999999998,12.271033463757124,0.0842892566511798
17.415052,12.275271878533305,0.0842199803211933
17.41744,12.28179193330962,0.0841338253306394
17.419819999999998,12.284727095473686,0.0840549342002243
17.422216,12.28421713465236,0.0839794060005217
17.424604,12.282124381965192,0.0839019810036645
17.426984,12.27910046371825,0.0838272386149698
17.42938,12.279568890284942,0.0837256438045566
17.431767999999998,12.278966381665,0.0836306146203794
17.434152,12.282647613791609,0.0835095909195014
17.436548,12.28753955073171,0.0833785841827392
17.438935999999998,12.288706825432708,0.0832586221238147
17.441316,12.289222473827644,0.0831342189047371
17.443711999999998,12.28908649591652,0.083004761364579
17.446099999999998,12.288159122072482,0.0828743655200019
17.448484,12.28215661154897,0.0827685241729165
17.450879999999998,12.27443153953276,0.0826639427402418
17.453272,12.26926764677041,0.0825358398330238
17.455652,12.26824772512775,0.0823865849146931
17.458052,12.270440609045009,0.0822185693582756
17.46044,12.275426989641602,0.082042610525245
17.46282,12.28334663654439,0.0818557736433826
17.46522,12.29140605307404,0.0816654779500246
17.467608,12.301886879230686,0.0814554000605804
17.469988,12.318653546880304,0.081212428928514
17.472388,12.334349279343282,0.0809757760642235
17.474776,12.351255716619756,0.0807293907828274
17.477159999999998,12.369233089082876,0.0804787219178566
17.479556,12.38963187117299,0.0802096206747756
17.481939999999998,12.4124520628901,0.0799229756190612
17.48432,12.434480858674291,0.0796359879588483
17.486724,12.45958269039154,0.0793356713438367
17.489107999999998,12.486034996549147,0.0790240471772831
17.491492,12.513558237893394,0.0787062655914039
17.493896,12.544573824051277,0.0783657256731699
17.496284,12.57535709278368,0.0780094397350302
17.498663999999998,12.61270574226278,0.0776159939514826
17.501064,12.645119024689263,0.0772424138435286
17.503452,12.672736709689994,0.0768846316681047
17.505831999999998,12.699562998757806,0.0765267760025298
17.508232,12.729230006333198,0.0761418955047732
17.51062,12.757453991669616,0.0757525606142539
17.512999999999998,12.786376825140335,0.075346990421728
17.515404,12.813577097118351,0.0749425619525321
17.517788,12.835050606110846,0.0745546521078891
17.520172,12.858433668051136,0.074141158185064
17.522568,12.881724182192809,0.0737096031206134
17.524952,12.900638407789309,0.0732820562161577
17.527336,12.918389150400555,0.0728429747273933
17.529732,12.932834539653271,0.0724027329318067
17.532116,12.944626201853511,0.0719640455116412
17.534496,12.951250179575664,0.0715255535661395
17.5369,12.95400972543184,0.0710979565171359
17.539288,12.960541155355372,0.070642492989224
17.541667999999998,12.961345822293374,0.0702009918090739
17.544064,12.96480421628385,0.0697583613737561
17.546447999999998,12.963047703967996,0.0693380670544595
17.548832,12.96329329239856,0.0689110827374828
17.551236,12.96339911120226,0.0684865887660269
17.55362,12.958569562953349,0.0680752997664961
17.556003999999998,12.949828361010224,0.0676962067108595
17.5584,12.938525979813242,0.0673366275891734
17.560783999999998,12.924522649735538,0.0669998583644881
17.563167999999997,12.913824673016368,0.0666675657806167
17.565564,12.906571819282592,0.0663360377887288
17.567947999999998,12.897409412601016,0.0660294714628842
17.570344,12.887128848904556,0.0657495649060455
17.57274,12.87880316412627,0.0654857140516198
17.575128,12.868940013452525,0.0652589297794947
17.577512,12.857818936137033,0.065062092221551
17.579908,12.852936478486273,0.0648631368939755
17.582296,12.850940065313464,0.0646788149341641
17.584675999999998,12.848384573633211,0.0645075149899262
17.58708,12.84471092493808,0.0643636080668899
17.589468,12.844202859974622,0.0642281439508533
17.591848,12.841413155011027,0.06410515065058
17.594244,12.842208342659683,0.0639808908001012
17.596632,12.84258422142776,0.0638667291871482
17.599016,12.847895467248447,0.0637405015740554
17.601412,12.863589303853558,0.0635990968879841
17.6038,12.884498046765,0.063439719735262
17.60618,12.909131451915554,0.0632763129675911
17.608576,12.941773260051775,0.0630925154555992
17.61096,12.97576554262836,0.0628995762601154
17.613343999999998,13.011899695578215,0.0626996131940111
17.61574,13.052038050020908,0.0624902152934804
17.618128,13.095528979650377,0.0622658459318218
17.620508,13.13650595185423,0.0620382186475883
17.622908,13.178181772192383,0.0617947775720811
17.625296,13.224281102903957,0.0615324527742554
17.627692,13.264933209883717,0.0612738635239241
17.630088,13.306935791303834,0.0610055578508478
17.632479999999997,13.353361883097364,0.0607185248776816
17.63486,13.396994478211566,0.0604349493340329
17.637259999999998,13.438624972579346,0.0601567364941204
