Time,Force,Position
19.748156,8.234999199432368,0.1680287115015652
19.75054,8.256833420329981,0.1678030654724562
19.752924,8.276852531936282,0.1675706712842035
19.755328,8.299804909848776,0.1672929816485303
19.757712,8.329228224851475,0.1669631912620713
19.760096,8.370803913959538,0.1664367306468968
19.762492,8.408934480082205,0.1659531208469224
19.76488,8.444271549525538,0.1655132024851777
19.76726,8.483425829006602,0.1650530906281435
19.76966,8.528399419271814,0.1645436983481304
19.772048,8.580729786216635,0.1639113093767124
19.774428,8.630453647937225,0.1632784354769657
19.776824,8.685392415964149,0.1625655166763904
19.779208,8.744567702909379,0.1618176277856271
19.781604,8.814544889519611,0.1609159717685276
19.784,8.88321882351773,0.1600200175648904
19.786388,8.947516468970676,0.1591900406589706
19.788768,9.0120464318491,0.1583877894795606
19.791164,9.076109864018704,0.1576427405054342
19.793552,9.1425947058153,0.1568530091226829
19.795932,9.206053733507083,0.1560814999584152
19.798328,9.26415808526568,0.155406391763636
19.800716,9.323193602584052,0.1547253315047393
19.803112,9.382788198409864,0.1540282518144201
19.805508,9.439356980130864,0.1533566331922488
19.807896,9.484984092560005,0.1528402462448641
19.810276,9.531402600922055,0.1523212254505832
19.812672,9.580195297082865,0.1517933193823213
19.81506,9.629127762870535,0.1512654752836765
19.81744,9.672613004926395,0.150797164826312
19.81984,9.71209404548942,0.1503870328654368
19.822228,9.75352996497062,0.1499827122520844
19.824608,9.788819812585713,0.1496645912758792
19.827004,9.820152680536212,0.1493704784076065
19.829392,9.846457633635485,0.1491183090079205
19.831772,9.873973291548252,0.1488478375783996
19.834172,9.8999987053938,0.1486113628783499
19.83656,9.92658319774679,0.1483552245978524
19.838944,9.955589099726778,0.1480606109918024
19.84134,9.982033822452909,0.1478129470667606
19.843728,10.01178389853757,0.1475461516994153
19.846112,10.041953283502812,0.1472631471268442
19.848508,10.070260337348495,0.1470000398806895
19.850896,10.09442342007449,0.1467910823059597
19.85328,10.115793006121148,0.1466109537682988
19.85568,10.142517268101,0.14635856984268
19.858064,10.166867342282098,0.1461174904832509
19.860444,10.185630423104524,0.1459310174443955
19.862844,10.19945813687434,0.1458006873786547
19.865232,10.213006311390432,0.1456805022763583
19.867612,10.225763089973611,0.1455643113591971
19.870008,10.240149882250869,0.1454134752838579
19.8724,10.257097853781982,0.1452179364218703
19.87478,10.269110458260483,0.1450770228097853
19.896284,10.237040999636784,0.1449916527707033
19.905852,10.20580826291638,0.1449540050135119
19.90824,10.197616660191343,0.1449192119606509
19.91062,10.194128107093446,0.1448122070158409
19.91302,10.194271668436045,0.1446473474465955
19.915408,10.19548616496528,0.1444687426634321
19.917788,10.189763193695487,0.1443666582545537
19.920188,10.182038121679282,0.1442870699585706
19.922576,10.186325654141571,0.1440727988373857
19.924956,10.192475517723423,0.1438410917181102
19.927356,10.19969631649191,0.1435955960904676
19.929744,10.21199225193987,0.1432915495608269
19.932128,10.22456772664155,0.1429756216696165
19.934524,10.236351805410314,0.1426631599021128
19.936912,10.250557293806072,0.1423148139861688
19.939292,10.272119558881442,0.1418777480768306
19.941696,10.292890428023895,0.1414460665209486
19.944084,10.309005469367454,0.1410573073552481
19.946464,10.322699101084018,0.1407067083975086
19.94886,10.339465768733634,0.1403199186381674
19.951248,10.358094767502807,0.1399173580992412
19.953628,10.381519363697732,0.1394695884849238
19.956032,10.40373325507916,0.1390408900691692
19.958416,10.42259457127381,0.1386589707552072
19.9608,10.438243081908546,0.1383181264069563
19.963196,10.450027160677308,0.138014533536959
19.96558,10.469679872804877,0.1376307377598571
19.967964,10.492265851238642,0.1372187583465014
19.97036,10.50563272187324,0.136912955224665
19.972744,10.518720053254118,0.136617564597363
19.975144,10.52845480944822,0.1363657384254929
19.97754,10.537258400082544,0.1361233600667757
19.979928,10.549926422582844,0.1358447514972101
19.982308,10.564317006575836,0.1355559961341115
19.984712,10.577636655382191,0.1352827804013252
19.9871,10.582156505269962,0.1350947904484737
19.98948,10.584953793665038,0.1349173250995874
19.991876,10.589613413179668,0.1347243388600088
19.994264,10.595064428627218,0.1345285508510581
19.996648,10.60344871038096,0.1343059959998679
19.999044,10.608759956201649,0.1341161929319289
20.001432,10.614210971649197,0.1339230028570623
20.003812,10.62245548377608,0.1337079322253006
20.006216,10.633912801462875,0.1334564633360747
20.008604,10.64858292470959,0.1331688890771118
20.010984,10.669259350195556,0.1328230884883839
20.01338,10.686350883069272,0.1325041241276047
20.015768,10.702511250383203,0.1321942152332863
20.018148,10.721744653630193,0.1318528830265813
20.020556,10.74218876169068,0.1314953557838026
20.02294,10.76719614975144,0.1310796295308192
20.02532,10.790992832998702,0.1306822571770675
20.027728,10.81185624993977,0.1303122750958678
20.030112,10.829786400574644,0.1299683459550285
20.032492,10.840639313783628,0.1296927223877663
20.034888,10.855077119604864,0.1293924811100966
20.037276,10.86923538617238,0.1291016900934656
20.03966,10.883253883113037,0.1288160728306929
20.042056,10.90076472486733,0.1284865763870097
20.044444,10.914922991434848,0.1281990515059605
20.046824,10.930943589121922,0.1278970286644155
20.04922,10.94295998531616,0.1276338445035036
20.051608,10.954324755204343,0.1273693879573001
20.053992,10.962476719532612,0.127140542505175
20.056388,10.9672761086741,0.1269517376912423
20.058776,10.973006663375369,0.1267579229050851
20.061156,10.975244873263,0.1266074923282071
20.063552,10.974410047217576,0.126486628162572
20.06594,10.972783825239237,0.1263678626107801
20.06832,10.971297372887756,0.1262446076624042
20.07072,10.97111417314839,0.1261274306188705
20.073108,10.969580498968666,0.1260307914817278
20.075488,10.972982191841552,0.1258925972583045
20.077884,10.980527855834136,0.1257146890774233
20.080272,10.994731448372027,0.1254860601119171
20.082652,11.01307901202961,0.1252192629982171
20.085052,11.035570546806888,0.1249141745784927
20.08744,11.058201851211026,0.1246048479348561
20.08982,11.072405443748918,0.1243787277710576
20.09222,11.086888575540527,0.1241435110245352
20.094608,11.10351357770542,0.1238872929862638
20.096988,11.119859040616586,0.12363991783374
20.099388,11.134714259460534,0.1234180374103977
20.101776,11.150360874237398,0.1231942747955598
20.104156,11.17043099938768,0.1229233519277715
20.10656,11.185425987858489,0.1226989319231528
20.108948,11.206427278568547,0.1224234938887807
20.111328,11.230222065957944,0.1221292647101775
20.113724,11.253737314093616,0.1218447472447139
20.116112,11.2731085911096,0.1215985315357514
20.118492,11.290757306632882,0.1213616376412454
20.120888,11.312829532529578,0.1210783405140826
20.123276,11.331688952866362,0.1208291753438653
20.12566,11.349197898762784,0.1206009850751121
20.128056,11.367777779845849,0.1203640578752501
20.130444,11.380211589062796,0.1201813920684929
20.13284,11.387430491973417,0.1200464093462429
20.135236,11.39651172600359,0.1199002365511866
20.137624,11.416953938206207,0.1196550354840335
20.140004,11.4412605822748,0.1193841484110454
20.1424,11.467429557462948,0.1191046923620856
20.144788,11.49974460451721,0.1187759463599762
20.147168,11.534201521944746,0.1184284354815591
20.149564,11.57201101455906,0.1180488690665857
20.151952,11.60432606161332,0.1177242199986414
20.154336,11.638363670160274,0.1173930025108466
20.156732,11.670678717214532,0.1170709387323183
20.15912,11.70313353389565,0.1167458563890423
20.1615,11.73558835057677,0.1164210888825528
20.163896,11.77619133987042,0.1160332617468921
20.166284,11.816934098790924,0.1156431093342536
20.168668,11.85474359140524,0.1152759823294953
20.171064,11.89269285364641,0.1149060624339506
20.173452,11.930642115887585,0.1145374169292583
20.175848,11.965937651076285,0.1141824564835611
20.178248,12.005377157384672,0.1137945332390487
20.180632,12.044816663693066,0.1134047007233309
20.183016,12.083325004441678,0.1130222417491665
20.185412,12.113685172577762,0.1127049309019379
20.1878,12.137387412168536,0.1124285989554645
20.19018,12.155362888773784,0.1121880046675682
20.19258,12.165609501647085,0.1119969310189082
20.194968,12.172410991534992,0.1118178908611609
20.197348,12.175348049556929,0.111663426935464
20.199744,12.181637682765636,0.1114775063505196
20.202136,12.186624063362231,0.1112851200220937
20.204516,12.191750213585683,0.111089231119447
20.206912,12.196224737503078,0.1108904102016423
20.2093,12.202049735860834,0.1106748225772798
20.21168,12.20186843197934,0.1105012218702559
20.21408,12.198614092164789,0.1103500406131444
20.216468,12.194009277909878,0.1102157722083809
20.218848,12.185679801415851,0.1101004181574391
20.221244,12.17776963380241,0.1099729023382573
20.223636,12.16799713506941,0.1098546430760422
20.226016,12.155151600403356,0.1097586083479332
20.228412,12.147520972043631,0.1096228212880187
20.2308,12.139098947750991,0.1094876759777418
20.23318,12.134681124951186,0.1093258087266594
20.23558,12.133848194763631,0.1091491815377768
20.237968,12.133806660508998,0.1089716036984174
20.240348,12.1353479181202,0.1087922895493801
20.242748,12.139263363530157,0.1086111402211854
20.245136,12.144901370432809,0.1084249114796081
20.247516,12.14974798140254,0.1082396992434055
20.249916,12.15603761461125,0.1080576044511576
20.252304,12.158974672633184,0.1079054909981925
20.254688,12.163494522520956,0.1077527398927553
20.257092,12.166803667595223,0.1076128979046185
20.259476,12.170904208602416,0.107472514538451
20.261856,12.179148720729298,0.1073021705820601
20.264256,12.192887678416232,0.1070861965629296
20.266644,12.21156200315578,0.1068401221304897
20.269024,12.231167493455104,0.1065911055026381
20.27142,12.254357876366686,0.1063289471333525
20.273808,12.282623395957735,0.106034441110042
20.276188,12.30888681480237,0.1057546527641009
20.278584,12.337292104020284,0.1054599730018485
20.280972,12.36369529249178,0.1051789484446443
20.283368,12.387584523537662,0.1049029360036992
20.285764,12.41361562495682,0.1046110721705727
20.288152,12.442999301562752,0.1042917177015577
20.290532,12.472662517422403,0.1039657419326847
20.292932,12.499392466975864,0.1036562309623333
20.295316,12.524771942088964,0.103362856446092
20.297696,12.549639560522865,0.1030627990368018
20.300096,12.575857653397124,0.1027463060754831
20.302484,12.599561788845769,0.1024354090841537
20.304864,12.623405693921276,0.102121166705442
20.30726,12.645666807130944,0.1018071530513841
20.309648,12.663923718847784,0.1015178484505235
20.312032,12.676034558698513,0.101269504776374
20.314436,12.686934693735738,0.1010339270209478
20.31682,12.693830627280132,0.1008223099118164
20.319204,12.700074934518469,0.1006077612239431
20.3216,12.70152364433105,0.100417345440526
20.323988,12.700970253397218,0.1002386306455845
20.326372,12.694922416903337,0.1001021042011094
20.328768,12.68901435003631,0.0999617516371795
20.331156,12.684968614288842,0.0998135201189478
20.333536,12.679060547421816,0.0996729694052688
20.335932,12.669148279061954,0.0995552416976741
20.33832,12.65537157883612,0.0994563332499628
20.3407,12.644807684170203,0.0993344533442499
20.343096,12.636385659877565,0.0991973414269419
20.345484,12.627032470025146,0.099063832201374
20.347868,12.621543712038696,0.0989116819948038
20.350264,12.61670658035831,0.098763289641397
20.352648,12.6128006142377,0.0986113151766314
20.355044,12.61047743998293,0.0984593408544387
20.357444,12.611087532034352,0.0982925047530229
20.359828,12.610486919272276,0.0981363636528099
20.362212,12.60895514095042,0.0979840767514944
20.364608,12.607143823374848,0.0978389722576508
20.366996,12.60505296654555,0.0977017013500816
20.369376,12.604033044902897,0.0975569696621892
20.371772,12.604875454379794,0.097405019811979
20.374164,12.612003705349665,0.0972124947405707
20.376544,12.618992186692674,0.0970239532388757
20.37894,12.629984869528515,0.096814608692519
20.381328,12.642560344230198,0.0966058760395526
20.383712,12.661002351544273,0.0963692445982731
20.386116,12.687173222590287,0.0960980806484957
20.388504,12.712133388822808,0.0958387401368723
20.390884,12.736814015801608,0.0955877364249542
20.393284,12.76279789539252,0.095345073263053
20.395672,12.78677967423702,0.0951145890577803
20.398052,12.812903323454792,0.0948710208720398
20.400448,12.83702487192615,0.0946383483796473
20.402836,12.863428060397643,0.0943889423253846
20.40522,12.88890008330936,0.0941437046906914
20.407616,12.920518178087187,0.093864437036037
20.410004,12.95413837361143,0.093576122764768
20.412388,12.991111144322453,0.0932636139039715
20.414784,13.025430187980996,0.0929576221546917
20.417172,13.058538526826045,0.0926626368072983
20.419552,13.091786635297948,0.0923652286441065
20.421948,13.119307980784328,0.0920915380970084
20.424336,13.14510676477801,0.0918206133677634
20.42672,13.1626176065323,0.0915972875314495
20.429116,13.177474721234118,0.0913798761530969
20.431504,13.186325533696683,0.0911929081749941
20.433884,13.18637654724067,0.0910452902707513
20.43628,13.187638265598151,0.0908875701836137
20.438668,13.19025045839599,0.0907164598456948
20.441052,13.19328196007441,0.0905349454415307
20.443448,13.193100656192916,0.0903732836974591
20.445836,13.189706546751502,0.090231647867955
20.44822,13.191247804362703,0.0900681701773904
20.45062,13.190647191600627,0.0899181214579188
20.453008,13.190837974771467,0.0897688275898608
20.455388,13.187955722009256,0.0896358092102887
20.457784,13.181209037381068,0.0895180273785961
20.460172,13.179118180551772,0.0893863298527837
20.462556,13.182614317081145,0.0892377844667195
20.464952,13.187972784730077,0.0890836675977294
20.46734,13.195333353125422,0.0889211607473609
20.469724,13.205068109319525,0.0887603963764584
20.47212,13.221321024432074,0.0885808339783793
20.474508,13.24679304734379,0.0883560124740108
20.476904,13.2781316028679,0.0881087632667896
20.479304,13.31561623025812,0.0878324944347771
20.481692,13.361900656566922,0.0875223892360047
20.484076,13.41176997548798,0.0872078789629322
20.486472,13.458706028102842,0.0869061571524771
20.48886,13.50778395109098,0.0865947819535928
20.491244,13.559934910012174,0.0862687602885952
20.49364,13.615158904866425,0.0859291107094201
20.496028,13.666099158974118,0.0856153338006091
20.498412,13.71811034826845,0.0852967174084004
20.500808,13.769981767935922,0.0849825750653626
20.503196,13.821713417976536,0.084672275177657
20.50558,13.876238564696482,0.0843546997643475
20.50798,13.923826243617402,0.0840670892633196
20.510368,13.96475599399301,0.0838012052650509
20.512744,14.00675667955526,0.0835309177342481
20.51514,14.04168012769162,0.083291358612196
20.517528,14.082889417320954,0.0830226056754121
20.519904,14.118511713591616,0.0827699540905465
20.5223,14.145054671689971,0.0825558826958165
20.524684,14.165591327549077,0.0823665555533635
20.52708,14.18012168116893,0.0822017874181607
20.529476,14.189996206989893,0.0820495392194877
20.531864,14.189208602772714,0.0819321842493404
20.53424,14.191214495234869,0.0818081623065599
20.53664,14.186003380644276,0.0817161748915176
20.539024,14.181071805307402,0.0816178019334506
20.541404,14.17520906441075,0.0815218058729891
20.543808,14.170836567581317,0.0814107622075885
20.546196,14.16832640187144,0.0812956345722944
20.548576,14.166515084295868,0.0811646962167734
20.550976,14.16605424116065,0.0810221635954107
20.553364,14.166012706906017,0.080870353322894
20.555744,14.167461416718597,0.0807036921736486
20.55814,14.173845493583793,0.0805201814318545
20.560528,14.178507008956291,0.0803381358875358
20.562908,14.1905253010084,0.0801226348168339
20.565312,14.194674959701702,0.079933895107829
20.5677,14.2005471798877,0.0797443902252824
20.570084,14.214707342313083,0.0795200337622658
20.57248,14.233151245485026,0.0792753831192553
20.574868,14.25452841496316,0.0790217298095847
20.577248,14.27362394444116,0.0787814759562193
20.579652,14.300867646531684,0.0785091096512263
20.582036,14.325597391196595,0.0782372688415881
20.58442,14.356612977354478,0.0779378582302806
20.586812,14.38790810276608,0.0776336113071834
20.5892,14.419622537058263,0.0773213311219528
20.59158,14.446681143551556,0.0770186398177522
20.593984,14.468572065566756,0.0767186681601291
20.596372,14.488460886835542,0.0764263740085116
20.598752,14.509700182544686,0.0761243610039245
20.601156,14.529216916761134,0.0758236778853092
20.60354,14.547802485417805,0.0755252687454162
20.605924,14.563734327022,0.0752298861820103
20.60832,14.580085477506772,0.0749259482981499
20.610708,14.594574296871992,0.074627034954896
20.613088,14.609901733998372,0.0743094771255034
20.615492,14.627278493699412,0.0739672413171563
20.61788,14.64093059116134,0.0736332812509878
20.62026,14.65206873119765,0.0732990017125493
20.622656,14.659761748248568,0.0729649886650517
20.625044,14.670155714180202,0.0726096063045056
20.627424,14.67975828417892,0.0722540673567291
20.629828,14.688289918991,0.0719028497937951
20.632216,14.694028057123743,0.0715568917359935
20.634596,14.699486656002763,0.0712178259512191
20.636992,14.703874319695151,0.0708839026914928
20.63938,14.715339220813425,0.0705282573623638
20.64176,14.729457848984175,0.0701712558179434
20.644156,14.74422810346098,0.0698190754703948
20.646544,14.755133926071814,0.0694762118226265
20.648924,14.769484871668045,0.0691348508846596
20.65132,14.781414407637268,0.0688075305523097
20.653708,14.793995569912555,0.0684850335174608
20.656104,14.806669279986458,0.0681796506618274
20.6585,14.817992515620002,0.0678851225339032
20.660888,14.831410399798582,0.0676018714126104
20.663268,14.84198756546958,0.0673427685831205
20.665668,14.851074487073362,0.0670968404431386
20.668052,14.862395826849038,0.0668595605141123
20.670436,14.878233224796746,0.0666194573910425
20.672832,14.89672434979693,0.0663799408448452
20.67522,14.913073604423836,0.066149127389547
20.6776,14.934218456476492,0.0659103864578249
20.679996,14.958156805208487,0.0656691032027175
20.68238,14.981303758007565,0.0654268106367911
20.684764,15.00324000599314,0.0651917398295386
20.68716,15.02061297397844,0.064979120865451
20.689544,15.03956873382958,0.0647708679983556
20.69194,15.058664263307575,0.064560137718641
20.69434,15.080133980584328,0.0643553165304284
20.696728,15.098018805248826,0.0641524282056909
20.699108,15.120327140286742,0.063931438823538
20.701512,15.141844079391737,0.0637088559754154
20.7039,15.160986830697976,0.0634807637009249
20.70628,15.179338186071302,0.0632510209990365
20.708676,15.196758375884846,0.0630227040120905
20.711064,15.210314133832416,0.0628006312477785
20.713444,15.227222466966763,0.0625649511483756
20.715844,15.241616842675496,0.0623268865346949
20.718232,15.254288656891534,0.0620885080270511
20.720612,15.26481860073429,0.0618585460047885
20.723008,15.279073206816165,0.0616258263746624
20.725396,15.2934675825249,0.0613917305893698
20.727776,15.3038577567408,0.0611668041933684
20.730172,15.313037226143196,0.0609484102738171
20.732564,15.321145760358958,0.0607333581606639
20.734944,15.331535934574855,0.0605086517704721
20.737344,15.33913261211142,0.0602866030991666
20.739728,15.348871160021265,0.0600581474846727
20.742108,15.357818311998184,0.0598280650537571
20.744512,15.366485924721388,0.0596035209786269
20.7469,15.376876098937284,0.0593812945636215
20.74928,15.390199539459378,0.0591547757007084
20.75168,15.404454145541251,0.0589275169289887
20.754068,15.42071085236954,0.0586966254616504
20.756448,15.43617616326491,0.05846383494789
20.758844,15.456437071586034,0.0582249307142839
20.761232,15.47348517434724,0.0579967657720765
20.763612,15.491324673041364,0.0577710457523552
20.766008,15.511026502855048,0.0575449584464005
20.7684,15.526863900802756,0.0573239954176291
20.77078,15.53990780207113,0.0571055040159038
20.773176,15.54745725777945,0.0569064141041286
20.775564,15.559010914980606,0.0567000216010439
20.777956,15.573777377741674,0.0564844397034094
20.780356,15.592548041995576,0.0562616903926699
20.78274,15.608105900689564,0.0560487597272081
