Time,Force,Position
23.023076,9.641431503300248,0.161193979317689
23.025456,9.65330244229402,0.1611237596056706
23.027852,9.673646419124411,0.1609833536133806
23.030236,9.7118695330457,0.1606104037589868
23.032616,9.752561278422228,0.1601647784730878
23.03502,9.792880936746416,0.1597177791195882
23.037408,9.837529661787531,0.1592641735730765
23.039788,9.89214166873249,0.1587110496380107
23.042188,9.957463027543833,0.1580076492626984
23.044572,10.023250917064,0.1572600050617855
23.046952,10.083079726173157,0.1565640693902886
23.049356,10.143420391961511,0.1558764810079973
23.051744,10.20511153219023,0.1551647907379178
23.054124,10.265314324209598,0.1544127198199833
23.056532,10.322631071751008,0.1536701488556377
23.058916,10.382554324516654,0.1529372728145133
23.061296,10.448995736200748,0.1521406700273667
23.063692,10.509478067473838,0.1513967762065138
23.06608,10.56255829609694,0.1507059311063898
23.06846,10.60795688281634,0.1500735953989803
23.07086,10.647301945468245,0.1495424002813015
23.073248,10.68734585625445,0.1489853389550664
23.075628,10.719336038084611,0.1484732485865202
23.078032,10.734565239838766,0.1481304480401485
23.08042,10.75030629827212,0.1477966375190056
23.113864,10.587114494930312,0.1476294055124774
23.116252,10.578875670377036,0.1476245832703751
23.118632,10.575339895450895,0.1475503262948805
23.121028,10.572735286084532,0.1474676291027516
23.123416,10.576369296382898,0.1473358792650523
23.1258,10.588942875226712,0.1471068135823162
23.128196,10.595138064778938,0.1469318134411982
23.130584,10.603103037652096,0.1467167088852179
23.132964,10.608506831271402,0.1465451652619753
23.13536,10.625224381234908,0.1462665142428278
23.137748,10.646877298251024,0.1459340175163784
23.140128,10.66759904970736,0.1456107987581587
23.142536,10.687249865977062,0.1453022979309388
23.144924,10.712999532284629,0.1449507093373086
23.147304,10.7375384937787,0.1446172504323097
23.1497,10.759563497847155,0.1443000106463
23.152088,10.78279920672911,0.1439662172306394
23.154468,10.809899347477034,0.1435965806252549
23.156872,10.83821019303846,0.1432109602713224
23.15926,10.868290821920825,0.142788792969051
23.16164,10.895717723750716,0.1423890971966422
23.16404,10.921933920767106,0.1420107065305298
23.166428,10.94787057852978,0.1416445043621873
23.168808,10.970594430732536,0.141317159130991
23.171204,10.995599922935428,0.1409631797580269
23.173588,11.023398911817653,0.1405906730689212
23.175972,11.060417008499048,0.1401218849930224
23.178368,11.104652112233197,0.139580903134254
23.180756,11.14758396335522,0.1390358835830973
23.183152,11.185580447424638,0.1385429415806037
23.185548,11.227161824106304,0.1380297630261334
23.187936,11.271816236721026,0.1374881677854637
23.19032,11.320055541948005,0.1369258010940105
23.192712,11.365221811241923,0.136397816614872
23.1951,11.415043908334736,0.1358355499231443
23.19748,11.46379507024091,0.1352842091870642
23.19988,11.510544131400666,0.1347546883495191
23.202264,11.551566429574896,0.1342747249379173
23.204644,11.589655461442929,0.1338223818844807
23.20704,11.62695309737804,0.1333756901366765
23.209428,11.66625283405957,0.1329134618876966
23.211812,11.706763275554602,0.1324391060248137
23.214208,11.748856508915466,0.131963509805193
23.216592,11.794953943769166,0.1314525117708793
23.218992,11.837838573062948,0.1309802140767722
23.221388,11.87471690011748,0.1305648113349957
23.223776,11.90652009049254,0.1301998515552127
23.22616,11.929243942695294,0.1299178523973218
23.228564,11.955040830831104,0.129608753574568
23.230948,11.980465631914576,0.1292891087305156
23.233332,11.999372274079604,0.1290155808078656
23.235728,12.013203779565158,0.1287876052742226
23.238116,12.019585960572485,0.1286105575979117
23.240496,12.02824978157995,0.1284083710335029
23.242892,12.03332870997516,0.1282275732666209
23.24528,12.040269969489929,0.1280340644397213
23.24766,12.046699372325495,0.127833897106286
23.250064,12.05648135034784,0.1275977180669675
23.252452,12.065052623556683,0.1273759365822159
23.254832,12.071202487138535,0.1271842850258745
23.257228,12.072696522921492,0.1270240487859626
23.259616,12.06711332127856,0.1269246052280511
23.261996,12.059016162210016,0.1268351029975563
23.2644,12.05077923351461,0.1267499311114844
23.266788,12.041611139259423,0.126670786902371
23.269168,12.031931188325045,0.1265846365385771
23.271572,12.022251237390662,0.1264983383965084
23.27396,12.01350245201606,0.1264057968168597
23.27634,12.000609695521762,0.1263504443915937
23.278736,11.986925543094545,0.1262965850776069
23.28112,11.976314426600384,0.1262157741859975
23.2835,11.969847281225915,0.126097755425058
23.285896,11.97031760365048,0.1259244469842569
23.288284,11.967575120515129,0.1257823099722363
23.290664,11.964692867752913,0.1256443187280411
23.293064,11.963952485363976,0.1254860403316708
23.295452,11.962792794094458,0.1253405110979849
23.297832,11.958560066891884,0.1252213418077836
23.300228,11.959682015622503,0.1250513392039159
23.302616,11.95922117248729,0.1248841069298078
23.305,11.962624761218049,0.1246890369176122
23.307396,11.974456061815054,0.1244170191311877
23.309784,11.9849368879717,0.1241637005549912
23.312164,11.993695152635652,0.1239186400198645
23.31456,12.0024534172996,0.123673817306811
23.316948,12.014936344202663,0.1234062513100718
23.319328,12.027139731852005,0.1231474988166718
23.321728,12.041624759501486,0.1228642392601498
23.324116,12.05946236233774,0.1225468365632776
23.326512,12.080093461853332,0.1222133492061122
23.328908,12.097931064689588,0.1218973401919161
23.331296,12.114837501966068,0.121588575883271
23.33368,12.12787950737657,0.1213078142207269
23.336076,12.143063383160351,0.1210077287704416
23.338464,12.162251460436966,0.1206780906351065
23.340844,12.180508372153804,0.1203558115052979
23.34324,12.201838319803697,0.1200096654057677
23.345628,12.225961764132924,0.1196474147996296
23.348012,12.244870302155816,0.1193301141640362
23.350416,12.27057653835088,0.1189675734545886
23.3528,12.291766716373912,0.118628363799705
23.355184,12.308673153650387,0.1183292179724777
23.35758,12.328001000553863,0.1180033438322772
23.359964,12.34826001301712,0.1176731238971623
23.362348,12.369729730293871,0.1173304164857542
23.364744,12.38798664201071,0.1170165568358997
23.367132,12.405731697048347,0.1166958116440001
23.369512,12.42627024876532,0.1163612779963274
23.371912,12.447600196415213,0.1160276340051879
23.3743,12.466928043318688,0.1157095812310162
23.37668,12.48797845171486,0.1153852991717903
23.379076,12.509308399364752,0.1150544512124764
23.381464,12.53343184369398,0.1147095862338476
23.383848,12.559277849515905,0.1143608068125758
23.386252,12.580048718658354,0.1140495760690493
23.38864,12.59839817817381,0.113764506379705
23.39102,12.614326228062266,0.1135060140225263
23.393424,12.629323112390942,0.1132530924972368
23.395812,12.646322097466037,0.1129862353609277
23.398192,12.661458751421574,0.1127311631248337
23.400592,12.678969593175866,0.1124732298113742
23.40298,12.694338564556883,0.1122324429433065
23.40536,12.706354960751122,0.1120218872552899
23.407756,12.71795204806478,0.1118237487269767
23.410144,12.724473998698969,0.1116609869439425
23.412528,12.732066884519794,0.1114894879115731
23.414924,12.740031857392957,0.1113290590108595
23.417312,12.744923794333062,0.1111913243477419
23.419696,12.746602925713256,0.1110796944056013
23.422092,12.749073453026364,0.1109675001750425
23.424476,12.755548181832308,0.11082953635142
23.426856,12.759461731384391,0.1107204241338425
23.429252,12.760302245003428,0.1106330074497562
23.43164,12.756486930823565,0.1105684807150679
23.434024,12.756536048509677,0.110481879864692
23.436428,12.758866806195927,0.1103746025748729
23.438816,12.761477103135896,0.1102596096636925
23.4412,12.76781206231498,0.1101271769628418
23.443596,12.77722005742712,0.109974275713865
23.445984,12.784625951792838,0.1098346220197351
23.448368,12.79403394690498,0.1096827347139979
23.450764,12.805583812390395,0.1095142103395972
23.453152,12.82435068492856,0.1092968344965194
23.455532,12.843816405601029,0.109061268918594
23.457928,12.873013090751856,0.1087721147442264
23.460316,12.903280711089328,0.1084757672202075
23.462696,12.93704067624043,0.1081493019087208
23.4651,12.97280274213795,0.1078119543824483
23.467488,13.00963574322211,0.1074666721931927
23.469868,13.044746182813574,0.1071267694845654
23.472268,13.074921255352429,0.1068171167867558
23.474656,13.108309133451192,0.106484435342712
23.477036,13.145561443415934,0.1061325324346868
23.479432,13.18560725006001,0.1057684276221009
23.48182,13.224721891144306,0.105410186004738
23.484204,13.26369676260174,0.1050571456584849
23.4866,13.303882338872675,0.104693888661838
23.488988,13.337270216971444,0.104367262000782
23.491372,13.367445289510291,0.1040653157634667
23.493768,13.393616160556313,0.1037860362699699
23.496156,13.42220844122933,0.10348664183838
23.49854,13.45373398820854,0.1031732594321717
23.500936,13.4792532329485,0.1028961255207454
23.503324,13.501419902501684,0.1026454442414898
23.505704,13.5167888738827,0.1024304054418093
23.508104,13.530807370823355,0.1022303802737933
23.510492,13.536677695151486,0.1020787065679893
23.512872,13.536401947613506,0.1019641011321372
23.515272,13.539059466381715,0.1018348822034994
23.51766,13.543439546642627,0.1017018589146415
23.52004,13.547819626903534,0.1015687292030873
23.522436,13.547124570484971,0.1014651219028768
23.524824,13.543915556640794,0.1013657431215492
23.527208,13.536981880557503,0.1012811066584338
23.529604,13.528325642981518,0.1012002316338143
23.531996,13.519669405405532,0.1011193624364209
23.534376,13.513387355628298,0.101038353187124
23.53678,13.51176113364996,0.100939099336204
23.539172,13.50906397648498,0.1008469932825977
23.541552,13.516749410104424,0.1007117168082146
23.543952,13.517729693350311,0.1006267526754946
23.54634,13.516847645476648,0.1005492174669103
23.54872,13.519969799095811,0.1004506415842855
23.55112,13.52495428383454,0.1003448756438599
23.553508,13.53073016450618,0.1002390870032553
23.555888,13.538927454804822,0.1001124767008585
23.55828,13.557647105514745,0.0999404547022301
23.560668,13.583304224023692,0.0997332120609051
23.563048,13.607099011413087,0.0995342650699277
23.565444,13.63182496436226,0.0993327740743878
23.567828,13.659064874737048,0.0991282979264853
23.570224,13.692590626604808,0.0988862740231187
23.57262,13.726768004778624,0.0986486963376568
23.575004,13.76667214593797,0.0983878046641582
23.577388,13.808298848590011,0.0981242451604204
23.579784,13.84820298974936,0.0978646204048537
23.582168,13.881077115311058,0.0976220990956437
23.584548,13.91236844900692,0.097380252089638
23.58694,13.94822306270306,0.0971055671393758
23.589324,13.975836955988054,0.0968588671199976
23.591704,14.008014129273322,0.0965787046131146
23.59412,14.036466640319476,0.0963117180307299
23.596504,14.061846115432576,0.0960625781693947
23.598884,14.091649100919089,0.0957851392025253
23.601276,14.120940229726406,0.0955009381374343
23.60366,14.14529599148111,0.0952397719097456
23.60604,14.164484068757725,0.0949892344624233
23.608456,14.182368893422224,0.0947328372233084
23.61084,14.19624951659389,0.0944953973725375
23.61322,14.205474311966665,0.0942734273364664
23.615616,14.213675393981044,0.0940380514297012
23.618,14.219874375249004,0.093813132605453
23.62038,14.225561499837768,0.09358163952429
23.622776,14.229386293306977,0.093356957477646
23.62516,14.232699230096983,0.0931256652423541
23.62754,14.237083102073631,0.0928881832120976
23.629936,14.245983032222313,0.0926390972754887
23.63232,14.258095767930907,0.0923723663560198
23.6347,14.267135467706447,0.0921219272002144
23.637096,14.281110534534598,0.091851271275925
23.63948,14.292571643937134,0.091583303927908
23.64186,14.31083045151184,0.0912898854212965
23.644256,14.329508567967126,0.0909871845491146
23.646644,14.345113648489358,0.0907010298328062
23.649024,14.365514326437342,0.0903993343733544
23.65144,14.390990141064798,0.090074793462195
23.653828,14.419399221998448,0.0897407946552628
23.656208,14.445666432558822,0.0894194239061652
23.65862,14.476217383865748,0.0890747393939534
23.661008,14.513845572598564,0.0887000643730748
23.663388,14.55133399170452,0.0883298862904353
23.6658,14.588822410810476,0.0879612503070124
23.668188,14.624168959543155,0.087604415155453
23.670568,14.657932716409997,0.0872471707570208
23.672972,14.694629739583036,0.0868813067614905
23.67536,14.735330964248906,0.0865016002115627
23.67774,14.772307526675666,0.0861318388603255
23.680144,14.806211053169369,0.0857776460116627
23.682528,14.839323183730157,0.0854233946562004
23.684908,14.863915054626071,0.0850939076232319
23.687304,14.888879012574332,0.0847749972485043
23.689692,14.90811620753706,0.0844745294742633
23.692072,14.927213632872927,0.0841778003017228
23.694468,14.9433777919026,0.0838913912771051
23.696856,14.95488612313338,0.0836176216829292
23.699236,14.964392353617743,0.0833522849028122
23.701632,14.967752512235998,0.0831130875829784
23.70402,14.973766397906726,0.0828706713351145
23.7064,14.981642614697009,0.0826248692629184
23.708804,14.98551462999446,0.0823948456328045
23.711192,14.9940424730908,0.0821552424884717
23.713572,14.999637049880947,0.0819251218947797
23.715976,15.008164892977293,0.0816857507866249
23.718364,15.019346463126109,0.0814436857120032
23.720744,15.023311026222176,0.0812313497801067
23.723148,15.01726508558616,0.0810546005970607
23.725536,15.018948008682088,0.0808557928403555
23.727912,15.01955999659138,0.0806620477904952
23.73032,15.02203431562023,0.0804644917556251
23.732704,15.033820290246863,0.0802469621721923
23.735088,15.046025573754076,0.0800207252325554
23.737488,15.058882483567343,0.079798334109716
23.739876,15.06866635744756,0.0795876802035988
23.742256,15.083245828753528,0.0793646830106519
23.74466,15.095543660059358,0.0791543250499214
23.747044,15.107841491365187,0.0789443195518112
23.749424,15.127356329723764,0.0787064980799971
23.751828,15.145428145843365,0.0784643768550935
23.754212,15.158564594910356,0.0782381993101297
23.756592,15.172632209537124,0.0780106998238498
23.758988,15.178831190805086,0.0778074015307168
23.761372,15.188242977632964,0.0775899124350078
23.763752,15.196723598901064,0.0773746712675668
23.766148,15.203481658676465,0.0771606395497241
23.768532,15.216525559944836,0.0769212199466828
23.770928,15.24065090013193,0.0766450334412336
23.773332,15.25932901658722,0.0763778373316794
23.775716,15.27763504599017,0.0761006690507044
23.778096,15.295801305766256,0.0758273470549332
23.780492,15.310522442556955,0.0755561859798737
23.78288,15.32631451453429,0.0752812391911419
23.785256,15.343736600205702,0.0749904711584134
23.78766,15.368375692929863,0.0746747084223633
23.790048,15.388638497108856,0.0743620642192651
23.792424,15.410112006101349,0.0740413958760518
23.794832,15.433727385467115,0.0737129566674418
23.797216,15.451336462593632,0.0734036203267565
23.7996,15.471599266772628,0.0730938923584536
23.801996,15.493072775765116,0.0727768367047119
23.80438,15.514825824011323,0.0724551701476871
23.80676,15.542864713750507,0.0721110744620266
23.809164,15.568761733116414,0.0717763915020159
23.811552,15.595589918042094,0.0714411220403796
23.813928,15.6202762325945,0.0711145549321414
23.816336,15.645893712706684,0.0707885724138607
23.81872,15.666436056139396,0.070479726694443
23.8211,15.689352587370864,0.0701760519201103
23.823504,15.71529493270714,0.0698816897308714
23.825888,15.741237278043418,0.0695882968635292
23.828272,15.768762415245536,0.0692990054864066
23.830664,15.792003811701091,0.0690261647285828
23.833052,15.817619395955408,0.0687591402246645
23.835436,15.83694913871675,0.0685143102679569
23.83784,15.856790738157292,0.0682765791121319
23.840224,15.882359100583365,0.0680296798463808
23.842604,15.907787693382572,0.0677869065671018
23.845008,15.93708071804776,0.0675373200486251
23.847396,15.960507210100554,0.0673006906168517
23.84978,15.984585328459406,0.0670687284746367
23.852172,16.00531087163148,0.0668514160978828
23.85456,16.02268383961678,0.0666492746251208
23.85694,16.040848203534996,0.0664489638703358
23.859336,16.059943733012993,0.0662483502134128
23.861724,16.079970428050768,0.0660465782856952
23.864104,16.09571338234199,0.0658605230621282
23.8665,16.109174696633076,0.065684664518614
23.868888,16.120913449431463,0.0655086555260396
23.871268,16.131069410364013,0.0653297227380128
23.873668,16.140294205736787,0.065152165104927
23.876052,16.149519001109557,0.0649752855777045
23.878436,16.16568126428136,0.0647838744047985
23.880832,16.177839325960335,0.0646021550652539
23.883216,16.195212293945634,0.0644054275435163
23.885612,16.211514326744293,0.0642121701046029
23.888008,16.22502286286362,0.0640227165147975
23.890396,16.235318593423035,0.0638443267577981
23.892776,16.24053918730297,0.0636784958872385
23.89518,16.249624213048886,0.0635064181662395
23.897568,16.26085110916808,0.0633277486890806
23.899948,16.27328871010077,0.0631427999345508
23.902352,16.285866080660316,0.0629554638321071
23.90474,16.3024476527127,0.0627602398045829
23.90712,16.317306663272387,0.0625646762872172
23.909516,16.33616987532491,0.0623611883701103
23.911904,16.357174957750704,0.0621511489104216
23.914284,16.384745420923196,0.0619188435237299
23.916684,16.412455653722546,0.0616845057932368
23.919072,16.439094951335253,0.0614538367962578
23.921452,16.465594479321105,0.0612261980535456
23.923856,16.48808980581412,0.0610071008556915
23.926244,16.504578830067885,0.0608008114647424
23.928624,16.52442042950843,0.0605824978448827
23.931028,16.538115957082862,0.0603791438054237
23.933416,16.559959657269818,0.0601582394972924
23.935796,16.58059265264328,0.0599436974183393
23.938192,16.603507288016875,0.0597204805649035
23.94058,16.630146585629586,0.0594945556007066
23.94296,16.65585471768252,0.0592699002040339
23.945356,16.681562849735453,0.0590463692850686
23.947744,16.71020424809458,0.0588190904440243
23.950124,16.73684354570729,0.0585957421828263
23.95252,16.759758181080887,0.0583758938950446
23.954908,16.783464212387404,0.0581586016693125
23.957292,16.804376747014587,0.0579439204720061
23.959688,16.826499986455264,0.057724538529224
23.962076,16.84033528365656,0.0575249596716215
23.964456,16.856172681604267,0.0573224898531963
23.966848,16.87522288511189,0.0571115118408059
23.969232,16.89455262787323,0.0568959160605311
23.971612,16.916164010634716,0.0566719597347195
23.974028,16.940057033396336,0.0564396774352725
23.976412,16.962879120971316,0.0562113333158739
23.978792,16.991987050039267,0.0559683994849791
23.981188,17.01522844649483,0.0557345341397293
23.983572,17.03982031739075,0.0554934841729407
23.985964,17.06655405865995,0.0552479547842003
23.988368,17.094126417690305,0.0549886244604682
23.990752,17.12090738078774,0.054727617755126
23.993132,17.141961580899657,0.0544714269486092
23.995536,17.162224385078645,0.0542141311758634
23.99792,17.184768829257777,0.0539490461486933
24.0003,17.20545094231735,0.053684831101628
24.002704,17.219475126831615,0.053424817703185
24.005092,17.230566045039684,0.0531680616299627
24.007472,17.234719495448722,0.0529204936093052
24.009864,17.24222552104454,0.052661886635534
24.012252,17.242514539587606,0.0524171198748197
24.014636,17.23679725589142,0.0521810931511702
