Time,Force,Position
22.504992,9.011246669057858,0.1639682913463384
22.507372,9.041880688874054,0.1636503517081662
22.509776,9.080475889847678,0.1632465950174529
22.51216,9.130012760113162,0.1626820620320909
22.514544,9.181598952953308,0.162062315152784
22.51694,9.22401325982253,0.1615537198282793
22.519324,9.267031971169567,0.1610799783859568
22.521704,9.319874194793586,0.1605018349309508
22.5241,9.371692705059209,0.1599186201415735
22.526488,9.415177947115067,0.1594119047794736
22.528868,9.457871793238011,0.1589143675100418
22.531264,9.50280005753285,0.1584047575105084
22.533652,9.552012062574242,0.1578266586239543
22.536048,9.598105705712204,0.1572436246358726
22.538444,9.628229764707074,0.1568582260418889
22.540832,9.655373335567504,0.156541887300204
22.543212,9.685030863853552,0.1562062118492576
22.545608,9.715527009900756,0.1558384812471636
22.547996,9.749143413709266,0.1553988000964855
22.550376,9.775962119345602,0.1550465679183015
22.552772,9.79831009278028,0.1547943340624865
22.55516,9.820238757334382,0.1545619178748597
22.55754,9.83634811110433,0.1543743959366387
22.559944,9.84221464371672,0.1543008084226655
22.562332,9.844728601142336,0.1542814916428999
22.564712,9.854132804538738,0.1542027502163311
22.571876,9.865259569427836,0.1541096715549295
22.574272,9.872102593570377,0.1540818003249848
22.57666,9.879969331071312,0.1540681093619426
22.579056,9.89160795263961,0.153986247740833
22.581452,9.901012156036009,0.1539121757934708
22.58384,9.911859381671386,0.1538361654475855
22.58622,9.932158032531406,0.1536581414259825
22.588616,9.956228567458782,0.1534129850022988
22.591,9.979927015333825,0.1531574137357861
22.593384,10.005208255074695,0.1528974747227762
22.59578,10.032304604106884,0.1526511133761212
22.598164,10.061495601684104,0.1524021165088921
22.60056,10.100604555194794,0.1520116855454392
22.602956,10.13841025609337,0.1516207327363041
22.60534,10.181802950350614,0.151176900243748
22.60772,10.233995443526442,0.1506333135211827
22.610116,10.285303992970736,0.1500709803156437
22.6125,10.335728598683495,0.1494950459505986
22.614896,10.389086470702448,0.148893035454355
22.617296,10.452966703132685,0.1481866314533592
22.619684,10.513913669256723,0.1475170333373663
22.622064,10.568622015716038,0.1469016773796625
22.624468,10.622538966242432,0.146292593789782
22.626856,10.67389473751497,0.1457325426083998
22.629236,10.726041904720423,0.1451715099268923
22.631636,10.774883718567349,0.1446323766951187
22.634024,10.81483318569707,0.1441657379875298
22.636404,10.851197760214536,0.1437303046123002
22.638808,10.883697902866029,0.1433342740928565
22.641192,10.912101296226073,0.142963453016742
22.643572,10.936407940294664,0.1426168608482631
22.645968,10.96513809473667,0.1422137190182016
22.648356,10.985580306939289,0.1419095749047119
22.650736,11.00746554138088,0.1416055875067935
22.653132,11.022832616904028,0.141359316519944
22.65552,11.029539663135449,0.1411957937537383
22.6579,11.038620897165623,0.1410234206757467
22.660296,11.045839800076244,0.1408678570891423
22.66268,11.046028687389216,0.1407616909439362
22.665064,11.036905919104402,0.1407347502735801
22.66746,11.029226173058568,0.140706732175447
22.669844,11.027273189998263,0.1406268758023561
22.672228,11.023597645445262,0.1405577616248684
22.674624,11.025137007198596,0.1404310353234065
22.677008,11.026536599325068,0.1403094289286505
22.679404,11.027516882570955,0.1402021400048908
22.681796,11.03343253286946,0.1400466263056298
22.684184,11.038137478354464,0.1399080845476029
22.686564,11.045775690145662,0.1397414444990057
22.68896,11.050992492309865,0.1396094135407499
22.691348,11.056721151153264,0.1394844137132193
22.693744,11.061518644436882,0.1393681829347222
22.69614,11.071903131079171,0.1392067603464282
22.698528,11.083358552908102,0.1390342783500378
22.700908,11.10133213365548,0.1388100111236324
22.703304,11.13010761406786,0.1384855449216869
22.705692,11.15930240336082,0.1381495121969468
22.708072,11.18728648784028,0.1378305051124488
22.710476,11.21578242899894,0.1375165751515798
22.712864,11.2454890749711,0.1371849742119378
22.715244,11.272169906838446,0.1368594425830741
22.71764,11.292332579787344,0.1365864802500931
22.720028,11.3143575838558,0.136298976071741
22.722412,11.325440918632392,0.1361169058767077
22.724816,11.336664023035842,0.1359307610208905
22.727204,11.35203109855899,0.1357020142036819
22.729584,11.367398174082137,0.1354745778912021
22.73198,11.38518665923228,0.1352136826528426
22.734364,11.402323518076363,0.1349513499996597
22.736748,11.42509459210736,0.1346212703441098
22.739144,11.4479128879666,0.1342666981533174
22.741532,11.464352794534252,0.1339575185829137
22.743912,11.477627117370234,0.1336597796294159
22.746308,11.485314446847545,0.133404554144294
22.748696,11.486483617406408,0.133198778053027
22.751076,11.48127439867368,0.1330377866783705
22.753472,11.469919108074846,0.132936374197431
22.75586,11.460705687849288,0.1328118781711783
22.758256,11.45670717393006,0.1326347467165059
22.76066,11.453360286316894,0.1324598549078735
22.763044,11.451875729823282,0.1322710944991007
22.765424,11.452533043702948,0.1320588870546667
22.767828,11.452678500903415,0.1318400422643403
22.770216,11.457107698850438,0.1315741416645974
22.772596,11.459814335304763,0.1313176086726857
22.774992,11.457725374333336,0.1311002651391898
22.777376,11.45428593892155,0.1309037543573919
22.779756,11.4536400001891,0.1306875662679345
22.782152,11.454996162203066,0.1304539858558455
22.78454,11.450718109030118,0.1302857808424127
22.78692,11.448674474029064,0.1301163146847231
22.789316,11.45314899794646,0.1299009049695721
22.7917,11.45548165149058,0.1297075077106256
22.794084,11.46125942802009,0.1294966411568867
22.79648,11.470761866788717,0.1292592862494437
22.798864,11.482498723729238,0.1290210710700765
22.80126,11.501173048468788,0.1287235141215027
22.803656,11.521709704327892,0.1284150510877819
22.80604,11.54117542500036,0.1281200625933809
22.80842,11.561991620113185,0.1278062220011623
22.810816,11.585741081532204,0.1274709576255724
22.813204,11.614425910003831,0.1270978890460679
22.8156,11.640689328848469,0.1267547230740387
22.817996,11.671468805865135,0.1263869549600307
22.82038,11.702899909187858,0.1260220087567049
22.822764,11.738055674749695,0.1256330313912633
22.82516,11.776284476244587,0.1252190711407257
22.827548,11.811300472179566,0.1248389881449883
22.829928,11.845245532927905,0.124471921955443
22.832328,11.884405499982575,0.1240582518767743
22.834716,11.9146258984918,0.1237146977342753
22.837096,11.94177326106797,0.1233996261485879
22.839492,11.973716221069893,0.123051549644506
22.84188,12.004076389205975,0.1227070069336068
22.844264,12.035367722901842,0.1223584284390737
22.84666,12.063865559918373,0.1220282179121861
22.849048,12.090501065815342,0.1217120642481908
22.851428,12.114203305406122,0.1214192545073047
22.853832,12.136974379437122,0.121133881977311
22.85622,12.1606766190279,0.1208447355260564
22.8586,12.18209721861854,0.1205813255093547
22.860996,12.20202757414196,0.120342847957831
22.863384,12.22810400153149,0.1200557107270967
22.865764,12.252597637055183,0.1197738529680416
22.86816,12.283377114071852,0.1194420951418906
22.870548,12.316298461461797,0.1190947298881334
22.872944,12.348009104038235,0.1187632830598397
22.87534,12.38093045142818,0.1184194667457205
22.877728,12.412641094004623,0.118089894696171
22.880108,12.442768944715231,0.1177651172017196
22.882504,12.482255672851869,0.1173651947676695
22.884892,12.522953105802005,0.1169532408844714
22.887272,12.559646337259302,0.1165713167675513
22.889668,12.601274935769217,0.116158408555682
22.892056,12.645045404652404,0.1157314490698626
22.894436,12.69174913984179,0.1152866516751727
22.896832,12.739384040590952,0.1148396133442336
22.89922,12.789952207646309,0.1143764699518215
22.901604,12.839449439515024,0.1139236919140832
22.904,12.882521060263914,0.1135231322376081
22.906388,12.9268033858263,0.1131119610557329
22.908784,12.965638487656877,0.1127263356394654
22.91118,13.00046938799462,0.1123702427232303
22.913568,13.031156317212668,0.1120455483554404
22.915952,13.054626239377969,0.1117756368811534
22.918348,13.07195008967716,0.1115500526892133
22.920732,13.085828816990954,0.1113356200002166
22.923112,13.100498940237667,0.1111213574849418
22.925508,13.11810232979058,0.1108903562491504
22.927892,13.13421547527627,0.1106798769043633
22.930276,13.1489781463216,0.1104868041458857
22.93268,13.16346127811321,0.1103019404798812
22.935064,13.182367920278235,0.1100812408713179
22.937444,13.197270360950426,0.1098869644579276
22.939848,13.207097664943143,0.1097265728906901
22.942236,13.21506263781631,0.109575306847802
22.944616,13.218092243636862,0.1094531433392962
22.947012,13.217117647964578,0.1093558969235768
22.9494,13.218005383411851,0.109250267273163
22.95178,13.22797245703143,0.1090877812126062
22.954176,13.235006264344817,0.1089421022180536
22.956564,13.24683566908395,0.1087715960642993
22.958956,13.261598340129282,0.1085855108978489
22.961352,13.280225443040583,0.108379136326792
22.963736,13.298852545951892,0.10817250267454
22.96612,13.323625720729307,0.1079267401370477
22.968512,13.352914953678756,0.1076645773204085
22.9709,13.381412790695284,0.1074042294013994
22.973296,13.406185965472702,0.1071612546877621
22.975692,13.431098909876976,0.1069148998694445
22.978076,13.454940919094614,0.1066772779030815
22.980456,13.477060366819556,0.106444397219751
22.98286,13.493545599357583,0.1062578113120568
22.985248,13.512172702268888,0.1060566929825794
22.987628,13.530148178874134,0.1058520235498306
22.990024,13.546401093986685,0.1056516964386553
22.992412,13.567729145778706,0.1054205992921571
22.994792,13.588545340891535,0.1051823260377001
22.997188,13.604054081899408,0.1049607828066148
22.999572,13.611461872123002,0.1047683819424235
23.001968,13.618078266413674,0.1045760461761812
23.004364,13.62297209921165,0.1043885232344813
23.006752,13.623349873837594,0.1042172936867802
23.009132,13.619211590291508,0.1040619119206967
23.011528,13.615492615626,0.103895513567538
23.013916,13.602322215735851,0.103771410897511
23.016296,13.579700390621058,0.103689639108835
23.018692,13.55442483845379,0.10361552801673
23.02108,13.529428825540244,0.103533843136756
23.02346,13.502570481507142,0.1034597010646985
23.025856,13.476550755235202,0.1033632825664906
23.028244,13.45067079859012,0.103262958870288
23.030628,13.428422956385534,0.1031291983472169
23.033024,13.401659056008915,0.103010417511755
23.035408,13.376897256378715,0.1028799931241415
23.037804,13.354789183800987,0.1027415321501906
23.040204,13.32867690973043,0.1026251076814065
23.042592,13.305078593085486,0.1025042676668422
23.044972,13.286647960918629,0.1023714390616157
23.047368,13.273385013229865,0.1022266393997194
23.049756,13.262915562220432,0.1020704520284088
23.052136,13.2541686727037,0.1019105324788823
23.054532,13.248866906172356,0.1017430153551825
23.05692,13.247289801880129,0.1015605960695945
23.059304,13.247435259080596,0.1013745500171791
23.0617,13.258103076692349,0.1011412794230255
23.064088,13.27864162840932,0.100856682638268
23.066468,13.30169413755191,0.100568607426894
23.068864,13.326469208187191,0.1002775204573602
23.071252,13.358461285875228,0.0999451460185258
23.073636,13.387892184309404,0.0996388044659437
23.076032,13.419464953116858,0.0993191425164973
23.078416,13.449827017110811,0.0990113292295148
23.080812,13.484285830396216,0.0987006194897118
23.083216,13.521258601107236,0.0983882280619413
23.085604,13.559721615885476,0.0980602489959696
23.087984,13.600838357716189,0.0977255862505807
23.09038,13.640232538054208,0.0973949380418072
23.092768,13.676181595406833,0.0970714088255312
23.095152,13.713620896826678,0.0967330708022616
23.097548,13.747987162313466,0.0964119891879602
23.099936,13.775276190374369,0.0961277621577559
23.102316,13.799259865076731,0.0958470692138207
23.104716,13.824454244592596,0.0955575720061543
23.1071,13.848717458548686,0.0952721731257617
23.109484,13.865903435078884,0.0950246699465952
23.11188,13.884020577168862,0.0947761074122557
23.114268,13.90241725851256,0.094521521264545
23.116648,13.9201623135502,0.0942640115232305
23.119052,13.927477555975168,0.0940654875430166
23.121436,13.936003503213644,0.0938571001009629
23.12382,13.945320846385036,0.0936498940899439
23.126216,13.955289815862482,0.0934467567366447
23.128604,13.962744827914316,0.0932463060511593
23.130984,13.96675471698076,0.0930517013328963
23.13338,13.96927436197998,0.0928742085548454
23.135768,13.972492855113508,0.0926803306651487
23.138152,13.976642513806809,0.0924835286402554
23.140556,13.983585669179444,0.0922779445670037
23.14294,13.987316018992166,0.0920918913408685
23.145324,13.997471979924716,0.0918690493550225
23.14772,14.018057753469934,0.0915911855734832
23.150108,14.039946779627266,0.0913209313668012
23.152488,14.057552065038044,0.0910758373083803
23.154888,14.074086415262183,0.0908370366142948
23.157272,14.09169170067296,0.0905916795673117
23.159652,14.102079979030991,0.0903832318438161
23.162048,14.110186617388884,0.0901905917550605
23.164436,14.119736277985751,0.0900028736314512
23.166832,14.139715751195286,0.0897612272051479
23.169228,14.15834474996446,0.0895324238684283
23.171616,14.175763043920137,0.0893139071198312
23.173996,14.192809250823473,0.089085496263679
23.176392,14.213719889592785,0.0888438197492623
23.178776,14.233419823548596,0.0886112429645319
23.18116,14.251397196011714,0.0883810856601993
23.183556,14.269746655527168,0.0881624187046653
23.185944,14.288887510975536,0.0879448754184408
23.188324,14.310030467170328,0.0877200352081579
23.19072,14.330893884111395,0.0875019689628776
23.193108,14.34612308586555,0.0873204007816002
23.195504,14.356789007619431,0.0871695143169162
23.197904,14.367874238253894,0.0870091823776527
23.200292,14.379750864821272,0.0868492176518584
23.202672,14.394420988067983,0.0866820139058456
23.205068,14.411232981687975,0.0865036881502862
23.207456,14.432188946427663,0.0863056069959993
23.20984,14.455938407846686,0.0861003499599608
23.212236,14.480758804452346,0.0858906591154939
23.214624,14.498874050684451,0.0857222037882449
23.217008,14.51913116728984,0.0855427586831698
23.219404,14.53831734870858,0.0853692398779628
23.221792,14.557735847552806,0.085209608074149
23.224176,14.572730836023617,0.0850757918214752
23.226572,14.591170947479815,0.0849388570678601
23.22896,14.609331519682296,0.0848082298945017
23.231344,14.624558825578584,0.084688145284978
23.23374,14.640577527407787,0.0845692947754403
23.236132,14.653383423677075,0.0844674079972176
23.238512,14.665909780692642,0.0843718059890996
23.240908,14.682440339201044,0.0842608668852011
23.243292,14.696037631403252,0.084159990404425
23.245676,14.712940276963993,0.0840598195870212
23.248072,14.734266432898146,0.08393531280693
23.250456,14.757874228832437,0.0837980521983789
23.252836,14.781993881445924,0.0836685137137259
23.255232,14.808907030738744,0.0835333072529629
23.25762,14.838381359285425,0.0833796479624671
23.260004,14.860918220033074,0.0832504829558566
23.262396,14.88787859115414,0.0830977844342558
23.264784,14.917772228581404,0.0829367861895179
23.26718,14.949016340449024,0.0827650694632633
23.269576,14.980679761197226,0.0825847920600674
23.271964,15.015044130826146,0.0823824448502305
23.274344,15.052109449335784,0.0821594075408988
23.27674,15.09611223564445,0.0819143717078047
23.279128,15.145469697886307,0.0816455708269401
23.281508,15.192452972329413,0.081374716486765
23.283904,15.240786721212878,0.0810937063825728
23.286292,15.293171893417416,0.0807814790869281
23.288688,15.339318445957227,0.0804777171912295
23.291084,15.390168048124178,0.0801461043011921
23.293468,15.438783232119231,0.0798106048440341
23.295852,15.486467250554504,0.0794795732970893
23.298248,15.527353570817612,0.0791689091324926
23.300636,15.56786780402838,0.0788497627455716
23.303016,15.604936914253756,0.0785339957356161
23.305412,15.639352297426656,0.0782232038154436
23.3078,15.677260025413196,0.0778917736933591
23.31018,15.71051192560084,0.0775703843054496
23.31258,15.740458472429951,0.0772493291592043
23.314968,15.76896199702009,0.0769240577488623
23.317348,15.799235304931166,0.0765815193738007
23.319752,15.827925820976406,0.0762376836176447
23.32214,15.851169113289837,0.0759025482951379
23.32452,15.86645122444584,0.0755751132360649
23.326916,15.877217277429814,0.075254254006901
23.329304,15.893477775973842,0.074909886074871
23.331684,15.910576892279032,0.0745499623568666
23.334088,15.923811576718249,0.0742002875541496
23.336476,15.942121397836935,0.0738346477853161
23.338856,15.959779592649562,0.0734666364070554
23.341252,15.975063599663438,0.0730952460406215
23.34364,15.98690248369192,0.072724748819972
23.34602,16.001162777347403,0.0723399547106583
23.348416,16.013840279137046,0.0719531295338364
23.350804,16.024003823501072,0.0715648852808887
23.3532,16.02788152637213,0.0711982282135267
23.355596,16.03283016442983,0.0708276645045852
23.357984,16.037127176181468,0.0704522209454541
23.360364,16.03700067755969,0.0700954294106285
23.362764,16.03845697080375,0.0697419090753443
23.365148,16.035489753674398,0.0694077681512115
23.367528,16.02996135729119,0.0690894272441667
23.369932,16.02294271684076,0.0687826798471759
23.37232,16.018438033815944,0.0684773489373641
23.3747,16.013653811537406,0.0681774144771552
23.377096,16.000302107765755,0.0679094448157074
23.379484,15.981967815113256,0.0676707431512898
23.381864,15.96614747988637,0.0674340000675433
23.38426,15.95190993652532,0.0672008486538324
23.386648,15.933900509096912,0.0669900246648746
23.389028,15.918916895773316,0.0667882217159398
23.391424,15.907378405435114,0.0665873790295013
23.393812,15.89542060621633,0.0663944419581154
23.396208,15.884254202930466,0.0662030081737467
23.398604,15.874670591510435,0.0660144673768442
23.400992,15.870301886396742,0.065809358389003
23.403372,15.868075051656325,0.0655971930803612
23.405776,15.870643814341657,0.0653774359357024
23.408164,15.879638188146822,0.0651355784314145
23.410544,15.88490789971287,0.0648976498914186
23.412944,15.8923194816522,0.0646524384469246
23.415332,15.9060169050845,0.0643884449861209
23.417712,15.923858299636494,0.0641127645353104
23.420112,15.941839463815349,0.06383498999257
23.422496,15.96061202392712,0.0635593257711738
23.42488,15.986601591091642,0.0632644070442732
23.427276,16.015292107136883,0.0629514322581399
23.429664,16.04011819131615,0.0626452527772586
23.432044,16.060428217323384,0.0623415307858775
23.43444,16.085021984077173,0.0620243021250373
23.436828,16.106170627845568,0.0617055365048595
23.439208,16.12545694049441,0.0613893762115768
23.441604,16.14888722426294,0.0610631951980366
23.443992,16.172037968777754,0.0607429760745775
23.446372,16.196911274785265,0.0604245001729247
23.448768,16.221784580792775,0.0601068421169534
23.451156,16.247169743479482,0.0597981999001036
23.45354,16.27013349653919,0.0595024409669129
23.455936,16.291467235904822,0.0592215976507438
23.458324,16.319319134188902,0.0589369637284387
23.46072,16.349964529152317,0.058651782320256
23.463116,16.378468053742452,0.0583745388775508
23.465504,16.408833909452145,0.0580976053079971
23.467888,16.438780456281258,0.0578290021709702
23.470284,16.47193980867029,0.0575523094557508
23.472672,16.5018863554994,0.0572861845311797
23.475056,16.534207090127264,0.0570270284653399
23.477452,16.56745899031491,0.0567674659586292
23.47984,16.605226948674588,0.0565089212282083
23.48222,16.639782101474346,0.0562602774666522
23.48462,16.678201686140085,0.056008055959994
23.487008,16.716481501178958,0.0557590701740784
23.489388,16.751408741031057,0.0555226750793636
23.491788,16.788198312002713,0.0552862920314582
23.494172,16.826989983720782,0.0550478259169537
23.496552,16.86629351211805,0.0548172794563652
23.498956,16.901592839022488,0.0545941276407745
23.501344,16.938102870740423,0.0543663374507902
23.503724,16.97489244171208,0.0541344430961995
23.50612,17.00795735044462,0.0539051909259758
23.508504,17.03580735287083,0.0536881044650331
23.510888,17.062306880856678,0.0534792381769375
23.513284,17.08452266809598,0.0532820860890812
23.515672,17.10902009533541,0.0530776690977565
