Time,Force,Position
7.753932,1.3258172243940969,0.1137569425478706
7.756312,1.3350816581636369,0.1135790753820093
7.758707999999999,1.348490063052871,0.1131716060614299
7.761092,1.364459647195963,0.1124917622322119
7.763476,1.3771238779805215,0.11188161255674
7.765872000000001,1.3980760510044683,0.1107621946258924
7.768260000000001,1.421309864028553,0.1095228580860286
7.770651999999999,1.445474842612415,0.1082334894921648
7.773048,1.4673581811961405,0.1071264772164725
7.775436,1.488822210899285,0.1061017497866449
7.777816,1.511357175789068,0.105036229002663
7.780220000000001,1.531890039932434,0.1040383803943295
7.782608000000001,1.5533540696355783,0.1029783417411358
7.784987999999999,1.573886933778945,0.102024735956267
7.787392,1.5972132946016462,0.1009736146502624
7.789779999999999,1.6180256979987326,0.0999765842033171
7.79216,1.6409799717690965,0.098878731321882
7.794555999999999,1.6637944759125998,0.0978617705727685
7.796944000000001,1.6807424474437127,0.0970985148088443
7.799323999999999,1.699692519721243,0.0962626559008959
7.80172,1.7199930664391314,0.0953631125205071
7.804104,1.7400140739033,0.0945608974389423
7.806484,1.7538890095013575,0.0940409960905251
7.808876000000001,1.769486506592112,0.0935101001317923
7.811264,1.7866667955487023,0.0929893581183201
7.813643999999999,1.801705214132016,0.0926071125360444
7.816056000000001,1.8136705967822735,0.092356111931306
7.818444,1.827265993126611,0.091969277561371
7.820823999999999,1.8416527854038665,0.0915764105245982
7.823215999999999,1.8579019088006783,0.0911354544806323
7.885336,1.991557169523092,0.0911321147648196
7.88774,2.0011483643745955,0.090925866539848
7.890128,2.01702540071907,0.0905241750164419
7.892508,2.0279670700109325,0.0902568763929282
7.894908,2.037186177810099,0.0900032573208862
7.897296,2.053482523035154,0.0895615099066254
7.899676,2.070570264193127,0.0891106180844011
7.902080000000001,2.0876580053511007,0.0886597262621768
7.904468,2.1139648543082403,0.0879331686547562
7.906847999999999,2.1414824080788786,0.0871463539807805
7.909244,2.1714213714765145,0.0862403495735144
7.911632,2.1994980037545933,0.0853561382932717
7.914012,2.2298562760328093,0.0843689392391652
7.916408,2.2580726779377485,0.0834784262744738
7.918795999999999,2.2853579142829097,0.0826277229461613
7.921176,2.3175785176806825,0.0816605258930717
7.923571999999999,2.3528721570115105,0.0806168675373108
7.925956,2.388026026715479,0.0796114150451688
7.928339999999999,2.415962889366698,0.0788351304643211
7.930732,2.4385450760847243,0.0782255740201676
7.93312,2.4551209605635003,0.0777698665278916
7.957007999999999,2.472206805863604,0.0777170010713498
7.959404,2.478445425528332,0.0776780916600078
7.961792,2.4848238148199195,0.0776237343536718
7.973728,2.5048429264262184,0.077567551315205
7.976116,2.507496653478693,0.0775559499663185
7.978496000000001,2.516296452397279,0.0774169902099845
7.980892,2.5269585824354217,0.0772549557486753
7.983275999999999,2.5428356187798964,0.0769712839523753
7.985656,2.5597835903110098,0.0766540796383281
7.988067999999999,2.5748692307225656,0.0763485033520346
7.990455999999999,2.59223651113426,0.0759728435697495
7.992836,2.614539158598566,0.0755062423238446
7.995247999999999,2.631906439010259,0.0751416303468227
7.997636000000001,2.649273719421953,0.0747770183698008
8.000032000000001,2.661845402407895,0.074483859792125
8.002427999999998,2.675488020580475,0.0741714109655865
8.004812000000001,2.687128538006639,0.0738973198680594
8.007192,2.6975583506193037,0.0736740604015436
8.009584,2.704635588045193,0.0735437237572408
8.011972,2.7098504943515254,0.0734335304956578
8.014368000000001,2.719209371777551,0.0732422417169363
8.016763999999998,2.725634982897382,0.0730937386379942
8.019148000000001,2.735273399577129,0.0728711994749868
8.021532,2.746122521070375,0.0726063253284262
8.023924000000001,2.7586942040563165,0.0723483603417202
8.026312,2.7663305199896464,0.0721641677769784
8.028692,2.7742463751766966,0.0719479965194939
8.031096000000002,2.781231064803969,0.0717445714476411
8.033484000000001,2.7915683296180167,0.0714600833445384
8.035864,2.8079118966713152,0.0710848164412209
8.038267999999999,2.8189007877914207,0.0708228460547035
8.040652000000001,2.8284466566725506,0.070535818097479
8.043032,2.8387839214865984,0.0702565113387711
8.045428000000001,2.8492609559275066,0.0699625119052978
8.047812,2.8636024222343885,0.0696255168085204
8.050196,2.8748708526082143,0.0693432173022519
8.052592,2.8874897574224,0.0690103217805606
8.054976,2.8951732951839726,0.0687397703770648
8.057376000000001,2.9070008040652398,0.0683946964441654
8.059771999999999,2.9168262122000894,0.0680771277539846
8.062156000000002,2.9222281099615257,0.0678666601252594
8.064536,2.9321460658949925,0.0676387323329783
8.066932000000001,2.937268424402708,0.0674595150885391
8.069320000000001,2.9454638188434785,0.0672344651095368
8.0717,2.9490033854853577,0.0670427387191921
8.074100000000001,2.9557557576871525,0.0667868752788891
8.076488000000001,2.9643704610085035,0.0665216471189772
8.078868,2.970563754702858,0.0663280351646592
8.081264000000001,2.9735442428372965,0.0661992240778487
8.083652,2.9754537957850964,0.0660931438762974
8.086032,2.9816470894794502,0.0659054465836904
8.088432000000001,2.985418973546807,0.0657875351982533
8.090816,2.9902617928008013,0.0656504089311708
8.093212000000001,2.998037878360992,0.0654856996410301
8.095607999999999,3.005022567988264,0.0653151354015033
8.097995999999998,3.0138695887350924,0.0651345204194536
8.100376,3.020434969481784,0.0650064967298474
8.10278,3.031004551721309,0.0648278846578621
8.105167999999999,3.0395720332144167,0.0646754025755731
8.107548000000001,3.051864176946638,0.0645027845081246
8.109943999999999,3.0653670254923586,0.0642946631265831
8.112331999999999,3.076216146985604,0.0640909047647605
8.114712,3.093723197024158,0.0638397078482553
8.117116,3.1069465063161577,0.0636670766855636
8.119504,3.1216128378471337,0.0635243166467226
8.121887999999998,3.137070565311028,0.0633947194305642
8.124284,3.1483843216552274,0.0633246146162462
8.126667999999999,3.161048552439787,0.063207321713033
8.129048000000001,3.173852552851206,0.0630768212592015
8.131452,3.184794222143069,0.0629579312984197
8.13384,3.195875661061792,0.0628280403956025
8.136220000000002,3.212172006286847,0.0626255652779129
8.138624,3.228328581885042,0.0624388242104042
8.141008,3.244345387856377,0.0622717545043249
8.143388000000002,3.258080553827574,0.0621524062832907
8.145783999999999,3.271955489425632,0.0620216654957144
8.148167999999998,3.2861099642774105,0.0618637441406972
8.150548,3.29961281282313,0.0616854558956518
8.152944000000002,3.313255430995711,0.0614947903259154
8.155332000000001,3.3262464228622326,0.06128529024189
8.157727999999999,3.3395169539824754,0.0610513131801335
8.160124,3.3526477154758587,0.0608307623869309
8.162512,3.3620538147301287,0.0606276519969772
8.164891999999998,3.3746727195443134,0.060378028693832
8.167296,3.3899925732392164,0.0600496822145437
8.16968,3.401447995068146,0.0597471711028398
8.172063999999999,3.4133227257776566,0.0594023703485825
8.174468000000001,3.425057686860306,0.0590707998900754
8.176852,3.4369324175698166,0.0587283509073014
8.179236,3.446525508279189,0.0584276062790316
8.181632,3.4551874334287835,0.0581327243548665
8.184016,3.4558409555927114,0.057912262527411
8.186395999999998,3.4535612114504426,0.0577124783143775
8.188792,3.4446235387628663,0.0575450904781082
8.191175999999999,3.434754700515512,0.0573800901362858
8.193556000000001,3.421021430402184,0.0572389060953634
8.195964,3.408359095475494,0.0570802534945778
8.198348,3.395417221295083,0.0569464161841793
8.200728000000002,3.3826151167415333,0.0567984413250846
8.203123999999999,3.3676711418147067,0.0566804693786701
8.205511999999999,3.3555206635672143,0.0565536698385919
8.207892000000001,3.342578789386804,0.0564159877464316
8.210291999999999,3.327774584086837,0.0562816323474978
8.212679999999999,3.3080350117342587,0.0561831125082173
8.215060000000001,3.2828009938216263,0.0561711190585518
8.217464,3.2637130477751053,0.056091652650356
8.219847999999999,3.2484895335945585,0.0559895146940359
8.222228000000001,3.2336853282945914,0.0558480973155599
8.224623999999999,3.217670418181126,0.0557323457777207
8.227008000000001,3.2031457521348803,0.0555632882163062
8.229408,3.1903436475813294,0.0554027172401225
8.231804,3.181545744520614,0.0552081165908949
8.234192,3.172747841459897,0.0550120071372887
8.236571999999999,3.166743435078516,0.0548074842762455
8.238968,3.167956035749884,0.0545269067097179
8.241356,3.17009980198103,0.0542403124529999
8.243735999999998,3.174105899331733,0.0539528274759192
8.246132,3.1814645718692125,0.0536130106351608
8.24852,3.189614640339609,0.0532868355046293
8.250900000000001,3.196973312877088,0.0529467512541604
8.253295999999999,3.1993966183619538,0.0526408129198873
8.255683999999999,3.2027510894066,0.0523331918380961
8.258064000000001,3.208759287503719,0.0520341013896728
8.260468,3.218492147839952,0.0517281865298213
8.262856,3.233439914482517,0.0513628859612043
8.265239999999999,3.240099738885695,0.0510865703445553
