Time,Force,Position
7.361084,1.0090137754951918,0.1298949667131672
7.36346,1.0191621529962671,0.1297557300316213
7.365876,1.0334545016170364,0.1292334119667763
7.368264,1.0485382461707238,0.1286878856312143
7.370643999999999,1.0682778185233026,0.1278636420559684
7.373056,1.0899269438236812,0.1265042190934628
7.375444,1.10598907576539,0.1255085031349462
7.377823999999999,1.1229823732668769,0.1244612273541057
7.380236,1.1398359011415036,0.1234540984494147
7.382624,1.152033601217239,0.1227974469707864
7.385003999999999,1.162229200546557,0.122340595443924
7.387399999999999,1.1701431598757386,0.1221522070536175
7.389783999999999,1.1829924862575316,0.1215235912018799
7.392163999999999,1.1983557700649394,0.1207845874838874
7.394579999999999,1.2092955434989328,0.1205686221138676
7.396963999999999,1.2234481224928415,0.120070100054472
7.399343999999999,1.2390909455539698,0.1193697327094477
7.420855999999999,1.2638565368999084,0.1190312014334559
7.425635999999999,1.272142583281427,0.1190295586639476
7.428015999999999,1.2770307285057956,0.118929486275328
7.43042,1.285923075222998,0.1185552273599565
7.432808,1.2960261267536994,0.1180609626831557
7.435187999999998,1.3036152208587863,0.1175995525723083
7.437583999999999,1.3078517397770972,0.1174574006542261
7.439967999999999,1.3138580420163477,0.1170534898135618
7.442352,1.324567393882733,0.1162090629526918
7.444747999999999,1.329642530562205,0.1158662696737568
7.449515999999999,1.3289909042561472,0.1158385253048447
7.451919999999999,1.3331348753758414,0.1155511791979597
7.454303999999999,1.342586300600485,0.1150690462011859
7.456688,1.3561816969448222,0.1143181085706253
7.459079999999998,1.372850129222215,0.1133590059356616
7.461468,1.388447626312969,0.1125184551010591
7.463863999999999,1.3993892956048315,0.111881426560853
7.46626,1.4124728352699711,0.1110875654799068
7.468643999999999,1.427838014935248,0.1101683827074292
7.471027999999999,1.445904143481243,0.1090445109491594
7.473424,1.4650412072138763,0.1078676440153391
7.475807999999999,1.4851094365062878,0.106700286043217
7.478192,1.503175565052283,0.1056591565687188
7.480587999999999,1.51882028397128,0.1048014544132083
7.482971999999998,1.542845492928282,0.1036493131628914
7.485367999999999,1.57022327707206,0.1022659651071457
7.48776,1.594108716402202,0.1011964207784421
7.490148,1.612499710172291,0.100484557875574
7.492523999999999,1.6345228183828766,0.0994796414020454
7.494928,1.6593394232727974,0.0983545837372492
7.497316,1.6889516255884696,0.0970621270447802
7.499695999999998,1.7126972952917514,0.0960599510479992
7.502087999999999,1.7317871371961415,0.0952108645252902
7.504475999999999,1.749666274287033,0.0944946031574451
7.506871999999999,1.7683368073108423,0.0938100783936466
7.509264,1.78193220365518,0.0933184056232141
7.511652,1.8001834277984088,0.0926817508354663
7.5140319999999985,1.819226047874556,0.0920687493116951
7.525991999999999,1.8608923889233644,0.0917882628670999
7.528371999999999,1.8715072971332636,0.0916192762611322
7.530775999999999,1.8793287086638275,0.0915281961773317
7.533159999999999,1.8886403642616103,0.0913347454361759
7.535539999999999,1.895298292806919,0.0911703588702106
7.537935999999998,1.9048894876584224,0.09091488897591
7.540319999999999,1.914340912883066,0.0906922299174638
7.5427,1.9271449132944851,0.090331489687347
7.545095999999999,1.9375275040789068,0.0901104587353424
7.547479999999998,1.9496326563560251,0.0898701966204691
7.549875999999999,1.965602240499117,0.0895297247825897
7.5522719999999985,1.98064065908243,0.0892167035521748
7.554659999999998,1.99167487617291,0.0890226444557603
7.557043999999999,2.0095067914355584,0.0886418095352763
7.559439999999999,2.028549411511705,0.0882186481348184
7.561824,2.044658765281657,0.0878732241549272
7.564203999999998,2.05941764461125,0.087605377384634
7.566607999999999,2.074316293567703,0.0872981607330413
7.5689959999999985,2.090984725845096,0.0868352568861017
7.609615999999999,2.133536906483309,0.0863448030479461
7.612003999999999,2.1353066898042483,0.0862057862239285
7.614383999999999,2.140940904991161,0.0859849457402251
7.6167799999999986,2.1480181424170506,0.0858029551808395
7.619164,2.154303983910021,0.0856183663013266
7.621544,2.163383322082327,0.0853849940068699
7.623947999999999,2.172742199508354,0.0851162173142261
7.6263359999999984,2.1838236384270764,0.0848365700651298
7.628715999999999,2.1998404443984114,0.0844428496457001
7.631119999999999,2.220140991116301,0.0839263570039594
7.633507999999999,2.236949193020553,0.0835480384737113
7.635888,2.2540369341785262,0.0831349652360405
7.638283999999999,2.277690056083191,0.0825071986928826
7.640671999999999,2.302925969853693,0.0818910918181232
7.643051999999999,2.3350993514232226,0.0811429163295035
7.645455999999999,2.3652706322463355,0.0804592808005195
7.647839999999999,2.3979558704950628,0.0797790153987928
7.650219999999999,2.4312001872512314,0.0790401784601886
7.652616,2.462023094380402,0.0784160847412715
7.654999999999999,2.4934976278156307,0.0778132351276194
7.65738,2.521527038265466,0.07723437793478
7.659796,2.547135039088305,0.0767635179143185
7.662179999999999,2.5753042191650013,0.076209767809401
7.66456,2.5980261755098875,0.0757040659110831
7.666955999999999,2.6211202189071114,0.0752610789244725
7.743411999999999,2.725592065483779,0.0748174077078487
7.745816,2.731690915521647,0.0748076287224452
7.748203999999999,2.7397918663059317,0.0747681053715901
7.750584,2.7572516945162424,0.0745536003835542
7.752984,2.7723373349277987,0.0743141018817618
7.755367999999999,2.788773449779714,0.0740249093261683
7.757752,2.809772844631904,0.0736101438492313
7.760147999999999,2.825836872431482,0.0732667597249972
7.762535999999999,2.84748789358973,0.072876807273336
7.764915999999999,2.8663454180686427,0.0725261173280063
7.76732,2.888275978480611,0.0721246431669592
7.769708,2.912068870012136,0.0717010206463754
7.772088,2.9341392000509647,0.0712718482509267
7.774483999999999,2.9555579037837347,0.07082034660599
7.776871999999999,2.9823312834496987,0.0702666730501857
7.779252,3.0092444327425216,0.0697043938682004
7.781647999999999,3.032432919796232,0.0691662721860097
7.784035999999999,3.053107449424328,0.0686288148050394
7.786415999999999,3.0766226975600017,0.0679824623233499
7.788812,3.0984153842029785,0.0673312408622936
7.7912,3.1131308334200667,0.0667905819887817
7.793583999999999,3.122771145957683,0.0663302212350399
7.795979999999998,3.1324114584953,0.0658789704952625
7.798368,3.1363250080473843,0.0654875661851447
7.800747999999999,3.1451739246520827,0.0650452622255018
7.803151999999999,3.150670266070005,0.0646736382767872
7.805539999999999,3.15430427636837,0.0643157067286499
7.807919999999999,3.161942488159569,0.0639108312739555
7.810324,3.1701397784582097,0.0634617942878607
7.812707999999999,3.174193097637156,0.0630716167168236
7.815087999999999,3.177035712002603,0.0627144406663112
7.817492,3.18574485898044,0.062310495939222
7.819879999999999,3.1984582074511114,0.0618645799760646
7.82226,3.214616678907176,0.0614329253004053
7.8246639999999985,3.2226269777507124,0.0611004599515626
7.827048,3.2297061110344703,0.0607737194175514
7.829431999999999,3.238647575437786,0.060435176504753
7.831835999999999,3.2493116013337984,0.0601058927054098
7.834219999999998,3.2551328079758144,0.059896395321625
7.836599999999999,3.2616056409238885,0.0597075039531545
7.838999999999999,3.2740847761112137,0.0594577183441733
7.841384,3.287355307231456,0.059214222015566
7.843763999999998,3.295550701672227,0.0590290521099299
7.846159999999999,3.302255852045778,0.0589009351414545
7.848547999999999,3.3026751609263587,0.0588611045786007
7.850928,3.3072384409266333,0.0587673121980466
7.853332,3.3135242824196047,0.0586812039144236
7.85572,3.3188789583527973,0.058599863729994
7.8580999999999985,3.3219519942858526,0.0585652759276268
7.860495999999999,3.326095965405546,0.0585141576578366
7.862883999999999,3.328377605405684,0.0584689058090221
7.865264,3.323070151300734,0.0584609093985593
7.867655999999998,3.315900366076228,0.0584576237498892
7.870044,3.3051456882394685,0.058452132060032
7.872435999999999,3.303330578948155,0.0583715640906445
7.874832,3.300444534470203,0.0583060156201364
7.877219999999999,3.3015626914850853,0.0582054700706439
7.8796,3.298816416633993,0.0581274403987008
7.8820039999999985,3.300773191410036,0.057951774702123
7.884392,3.303009505439799,0.0577498584845399
7.886771999999999,3.3001706827900903,0.0575984611932088
7.889175999999999,3.2997532697673795,0.0573921025381039
7.891559999999998,3.3013379574910853,0.0571657934094703
7.893939999999999,3.303993580401429,0.0569234318238694
7.896343999999999,3.310793174431467,0.0566306335066524
7.898727999999998,3.3163820636480064,0.0563691237535303
7.901107999999999,3.3199688521181288,0.0561268794168125
7.903504,3.3216933094686945,0.0558897178296435
7.905892,3.3232779971924,0.0556665810154631
7.908271999999998,3.325933620102744,0.0554282010563667
7.910675999999999,3.331662278946143,0.0551579054988423
7.9130639999999985,3.339904895215157,0.0549039221961904
7.915448,3.348938907417089,0.0546624769426026
7.917843999999999,3.3598352507385774,0.0544178487785959
7.920231999999999,3.3648650614476754,0.0542140433680305
7.922611999999999,3.370965807343413,0.0539956869612962
7.925008,3.376926783612289,0.0537941940475453
7.927396,3.3850296302544427,0.0535644585570888
7.929775999999999,3.393644333575794,0.0533745564622546
7.932179999999999,3.40626323838998,0.0531583441314139
7.934567999999999,3.423957279883637,0.0529013667370933
7.936947999999999,3.4415115517504344,0.0526611514527661
7.939351999999999,3.463070025110065,0.0523961437062708
7.941739999999999,3.4829059369769992,0.0521206632883908
7.94412,3.504883719217211,0.0518263182378186
7.94652,3.5262098751513644,0.0515120976227447
