Time,Force,Position
17.165523999999998,1.033775411663467,0.0860500958918437
17.167904,1.041457053567171,0.0860233529555477
17.170308,1.0491386954708748,0.0859966100192517
17.172696,1.0587298903223783,0.0856789208274296
17.175075999999997,1.0746069266668532,0.0850661831673114
17.177471999999998,1.0899721063321302,0.0843491830364717
17.179859999999998,1.1044061204376283,0.0836641693097449
17.18224,1.1185605952894069,0.0830691028277205
17.184644,1.1328548397680454,0.0824465989380969
17.187032,1.1430051131269894,0.0819996064523127
17.189411999999997,1.1619551854045196,0.0812091012478122
17.191807999999998,1.179182696189353,0.0804373438105068
17.1942,1.198784394772941,0.0797025161663041
17.196579999999997,1.223321460409141,0.0787470573990155
17.19898,1.2498606267917578,0.0776030746302987
17.201368,1.2757481668683168,0.076423081979164
17.203747999999997,1.3037775773181528,0.0751322402023085
17.206144,1.3270113903422367,0.0740077776350283
17.208531999999998,1.3480107851944267,0.0728415762347142
17.210912,1.360070611501171,0.0721075708665989
17.213312,1.364401574075968,0.0716502728912346
17.2157,1.3691046237031026,0.0713279621331988
17.227639999999997,1.3813023237788378,0.0712636325214488
17.230027999999997,1.3867495475106475,0.0712079356524689
17.232412,1.3895430441899823,0.0711647767761354
17.234807999999997,1.3979707560562304,0.0708307213205415
17.237195999999997,1.4008114745638085,0.070589343354629
17.23958,1.4041640497505845,0.070423926134283
17.241975999999998,1.4097982649374976,0.0701485111759714
17.244363999999997,1.4152927104975506,0.0699124191780642
17.246748,1.423999961617519,0.0695563917880478
17.249143999999998,1.432287903856907,0.0692855327086229
17.251531999999997,1.436571644603461,0.0691214467017066
17.253912,1.4425779468427111,0.0689518431039559
17.256307999999997,1.4498875016940775,0.0688784374911347
17.258695999999997,1.461852884344336,0.0687327156702591
17.261076,1.4779622381142876,0.0684439940424614
17.263475999999997,1.492209260764683,0.0681824072968738
17.265863999999997,1.5067358226687986,0.0678673375358331
17.268244,1.5214021541997744,0.0675391061535552
17.270643999999997,1.5403522264773044,0.0670256993193065
17.273031999999997,1.5593022987548344,0.0665219449505744
17.275412,1.572106299166254,0.0662301509689768
17.277811999999997,1.5802544717787816,0.0659990113185023
17.280199999999997,1.593989637749979,0.0657087743118161
17.28258,1.608096890773514,0.0655381390985264
17.284979999999997,1.625789036409302,0.0653579925428783
17.287367999999997,1.6471132964855864,0.0650046197933729
17.289748,1.6662956861885936,0.0647388877094169
17.292147999999997,1.6818931832793478,0.0644840829329882
17.294535999999997,1.6962799755566031,0.0642977566199219
17.296916,1.7090839759680223,0.0640694677909177
17.299315999999997,1.7288254441784705,0.0637194378896672
17.3017,1.751779717948834,0.0632699981860078
17.304084,1.7759446965326966,0.0627735783599309
17.306487999999998,1.7993182791836408,0.0622682394149827
17.308871999999997,1.8224123225808648,0.0618308808003142
17.311252,1.8467170707915872,0.0613424123597694
17.313647999999997,1.869950883815671,0.0608911396217216
17.316036,1.89025143053356,0.0604896596280673
17.318431999999998,1.9105519772514488,0.0600989781941243
17.320828,1.9308525239693384,0.0597134173602703
17.323211999999998,1.950361674754309,0.0593010957392935
17.325592,1.976249214830868,0.0588715944476514
17.327996,1.99426812154862,0.0585591067722031
17.330384,2.0094935315870366,0.0582712584162873
17.332763999999997,2.020574970505759,0.0580698106840613
17.33516,2.028024294983985,0.0580235872669818
17.337547999999998,2.0334715187157952,0.0580101183992149
17.339927999999997,2.046507836552692,0.0579349114456904
17.342336,2.0604753199493664,0.0578565034778145
17.34472,2.079517940025513,0.0576955261280279
17.347103999999998,2.090971465996573,0.0576004034574321
17.3495,2.102564761594494,0.0574912956489312
17.351884,2.1150892227521925,0.0573841344714696
17.354267999999998,2.123889021670779,0.0572908643014679
17.356664,2.1286846190965303,0.0572513367213864
17.359047999999998,2.1345511517089206,0.0571908919265988
17.361428,2.140277914694451,0.0571493753553457
17.363823999999997,2.1489379439861764,0.0570785654970859
17.366211999999997,2.155595872531485,0.0570349208770287
17.368596,2.1616021747707355,0.056957624569792
17.370991999999998,2.170541743316181,0.0568514650341308
17.373379999999997,2.1738943185029567,0.05676556351713
17.375764,2.183253195928984,0.0566005307118636
17.378159999999998,2.1898185766756746,0.0564432215859647
17.380547999999997,2.202949338169057,0.0561322405074955
17.382932,2.2162198692893003,0.0557975766503314
17.385327999999998,2.2344257674621555,0.0554109956561654
17.387715999999998,2.2427609315297863,0.0551400307898263
17.390096,2.249373534104721,0.0548601917481178
17.392495999999998,2.2524937918660197,0.0546869944414713
17.394883999999998,2.2599903381724893,0.0545347776392106
17.397264,2.265345014105681,0.054428152531136
17.399663999999998,2.264833157426484,0.0543757139158777
17.402051999999998,2.2701878333596768,0.0542700882158899
17.404448,2.275030652613672,0.0541078701701722
17.406851999999997,2.274518795934474,0.0540541493337254
17.409236,2.2754971833224955,0.0539226455491578
17.411616,2.272191829963963,0.0538781240351603
17.414023999999998,2.2699574117920687,0.0538113782440725
17.416407999999997,2.2683746199262327,0.0537793631701894
17.418788,2.266652058433537,0.0537660449269364
17.421191999999998,2.269725094366592,0.0537214828472494
17.433131999999997,2.2810388507107917,0.0536745309689303
17.435527999999998,2.283320490710928,0.05361686252748
17.437915999999998,2.284531195524428,0.053579011974014
17.440296,2.2872321444051456,0.053467773414579
17.442691999999997,2.289281466979806,0.0533243089691332
17.445079999999997,2.2914705591813256,0.0531633954851766
