Time,Force,Position
18.28382,0.9317906245477346,0.0882417953308122
18.286208,0.9420334457052962,0.0878790733315859
18.288588,0.9564202379825516,0.0872472428382461
18.290992,0.9702479517523662,0.0868479290388325
18.29338,0.984867061455099,0.0864614915426283
18.295764,0.9996259407846918,0.0860529721625871
18.29816,1.0114515538080897,0.0857964835083636
18.300548,1.0254190372047642,0.085403164397846
18.302928,1.0388746639222417,0.0848984414296794
18.305324,1.053401225826357,0.0843128365976462
18.307712,1.072351298103887,0.0833853892556398
18.310092,1.092651844821776,0.0823491653205222
18.312488,1.1152340315398022,0.0811470489805925
18.314876,1.1414011108700814,0.0798507429210488
18.317256,1.1669165638943029,0.0785754869071699
18.319652,1.1910815424781656,0.077457448033895
18.32204,1.2134767377410882,0.0765970502580647
18.324424,1.238013803377288,0.0755985251982867
18.32682,1.2596176027072927,0.0747845915527633
18.329208,1.2824321068507962,0.0738548682924166
18.331588,1.3023133446881046,0.073045053814896
18.333984,1.315908741032442,0.0726115030995145
18.336368,1.326431101443724,0.0723245083806414
18.420012,1.3212634169656343,0.0721904649552814
18.4224,1.3254073880853283,0.0720420296146194
18.42478,1.33183299920516,0.0717833030701263
18.427176,1.342914438123883,0.0714781819772517
18.429564,1.3602817185355764,0.0709472660123438
18.431944,1.3773694596935495,0.0704683975220498
18.434348,1.3963195319710795,0.0699729140762403
18.436736,1.4180631009279443,0.0694437202566079
18.439116,1.4396669002579492,0.0689489643125307
18.441512,1.4646232747747296,0.0683365636981106
18.4439,1.4845045126120378,0.067859926680339
18.44628,1.501452484143151,0.0674321814547342
18.448676,1.5222648875402378,0.0669215747421589
18.451064,1.5444277653776834,0.066320732377008
18.453444,1.569523909521324,0.0656637386372754
18.45584,1.5972737807174393,0.0649981034112302
18.458228,1.6276773789660297,0.0642824201179879
18.460612,1.653937006094926,0.0637290856371183
18.463008,1.67498172691749,0.0633592041100578
18.465396,1.696957613299832,0.0629972619137473
18.46778,1.7198646652419527,0.0626435174435999
18.470176,1.737836350131461,0.0624062359571583
18.477356,1.7748959810674907,0.0622613272462116
18.479744,1.7888634644641657,0.0621523857525052
18.482124,1.8021793215547823,0.0620101480224332
18.484524,1.814564013085621,0.0618782043265673
18.489292,1.828251957228576,0.0618268507458468
18.491688,1.8367722168934408,0.0617443408915243
18.494072,1.8486450517450812,0.0615466451602978
18.496452,1.8598662602906644,0.0613165315977715
18.498852,1.872810030328944,0.0611080533230237
18.50124,1.883891469247667,0.0609165085442812
18.50362,1.88938591480772,0.060753597893747
18.506016,1.89730176999477,0.0604923486223037
18.508404,1.9093615963015145,0.0601472258454015
18.5108,1.923703062608396,0.059717652075368
18.513196,1.9380445289152768,0.059301817335536
18.515584,1.9485215633561852,0.0589305709278719
18.517964,1.963794195222845,0.0585157557279141
18.52036,1.976924956716228,0.0581545744920884
18.522748,1.9928964367171884,0.0576388186021328
18.525128,2.0070055855985927,0.0571368256999598
18.527528,2.0149686626138865,0.0567544029185302
18.529912,2.0207898692559025,0.0564242300342783
18.532296,2.02675084552478,0.0560773879903442
18.534692,2.0337827569802944,0.055708727747879
18.53708,2.050033776234976,0.0551670197560222
18.53946,2.062001054743104,0.0547388946210564
18.54186,2.070895297318176,0.0543636256346017
