Time,Force,Position
20.672924,1.1170430897075652,0.1084766251727192
20.675312,1.1426510905304037,0.1066841544504875
20.677692,1.1636032635543505,0.1052610694940093
20.680088,1.1861382284441335,0.1038870402677548
20.682472,1.2089527325876372,0.1024876499694029
20.684868,1.2295328185592465,0.1011816329894594
20.687264,1.2561192067701066,0.0993971602238094
20.689652,1.291645163526412,0.0972579593781624
20.692032,1.31916271729705,0.0956878326029612
20.694436,1.35147586849344,0.0938878282574482
20.696824,1.3775957259954763,0.0927713066130684
20.6992,1.401853252377956,0.0917391038642792
20.701608,1.426762405066493,0.0907571231574718
20.703992,1.4544650544343656,0.0896712165947884
20.706372,1.4768602496972882,0.0887297889245893
20.708776,1.496322178654016,0.087953388280941
20.71116,1.5162959642899416,0.0872789350233807
20.71354,1.527749490261002,0.0869024045993759
20.715936,1.542276052165117,0.0863993166600105
20.718324,1.55866494518879,0.0858762173961
20.720704,1.577195708585739,0.0852563654359519
20.723108,1.5954469327289682,0.0846969936320049
20.787616,1.6878117311706478,0.084275826862393
20.79,1.69274709822326,0.0841333065362794
20.79238,1.6981943219550697,0.084052254825367
20.799552,1.7099727131502245,0.0840335106463053
20.801948,1.7194241383748676,0.0838336112482111
20.804336,1.7268734628530942,0.0836901243643954
20.806716,1.7343227873313207,0.0835435593464582
20.809112,1.7419118814364074,0.083376259866167
20.8115,1.75271378110141,0.0830775981185693
20.813892,1.7636554503932729,0.0827357462577617
20.816288,1.772455249311858,0.0824868520518866
20.818676,1.7832571489768605,0.0821753686208023
20.821056,1.796992314948058,0.0817743516744581
20.82346,1.808725380172839,0.0814527520466187
20.825844,1.8205982150244795,0.0811073155267124
20.828224,1.8304689491297037,0.0808306468836766
20.83062,1.8375461865555929,0.080614525905137
20.833008,1.8466255247278984,0.0803339412841227
20.835388,1.854633927713566,0.0800991141686037
20.837792,1.8595692947661784,0.0799713551393887
20.84018,1.865296057751708,0.0798524216241863
20.84256,1.8753065614837925,0.0795770657138168
20.844956,1.881312863723043,0.0794067637937745
20.847344,1.8911835978282667,0.0791569684672389
20.849724,1.8984006048810165,0.0789439727395693
20.852128,1.9126948493596545,0.0785520040175061
20.854516,1.929922360144488,0.0781016497411526
20.856892,1.946498244623264,0.0776337515411765
20.859288,1.9607924891019024,0.0772601134292738
20.861676,1.9793704743270943,0.0767511135568828
20.864068,1.9952947324998125,0.076241543064295
20.866464,2.01107922104567,0.0757631961701498
20.868852,2.0280744144050264,0.0752420773332262
20.871232,2.043067507017966,0.0747657387877982
20.873636,2.060062700377322,0.0742555979051261
20.876024,2.0764062674306207,0.0737148853983934
20.878404,2.09153912967042,0.073226352971555
20.8808,2.111747128589692,0.0726386517887656
20.883184,2.1328862930687427,0.0720433684160676
20.885564,2.155608249413629,0.0714753888064005
20.887968,2.176747413892679,0.0708875153370876
20.890352,2.1938823768788955,0.0703954225290983
20.892732,2.219677369156837,0.0697697558753717
20.895136,2.235741396956415,0.0693041312664147
20.897524,2.249803324009576,0.0688902356460808
20.899904,2.2587901143832654,0.0685989005058619
20.9023,2.2677769047569543,0.0683157301616662
20.904688,2.2772755518098404,0.0680870270958937
20.907072,2.291989105169059,0.0677475793031894
20.909468,2.306283349647697,0.067475230867054
20.911852,2.327794601179085,0.0670636350097349
20.914236,2.348514456777555,0.0666452702751592
20.916632,2.366952672375888,0.0663022456944889
20.91902,2.3895348590939136,0.0658822371179505
20.921416,2.4087644706251643,0.0655573410146674
20.923812,2.42943710439539,0.0652741599063845
20.926196,2.4531827740986727,0.0649363453251233
20.92858,2.469851206376065,0.0647239197639992
20.930972,2.4865196386534576,0.0645139322501886
20.93336,2.4974613079453203,0.0643546826151707
20.93574,2.51012553872988,0.0642008827925178
20.93814,2.524652100633995,0.0640340826754281
20.940524,2.5325207339928024,0.0639325200844697
20.942908,2.5471870655237785,0.0637447903219668
20.945304,2.5617136274278938,0.0635759465685875
20.973984,2.587459502019723,0.0635158548630717
20.976368,2.585876710153887,0.0634934329211062
20.978752,2.584573457541771,0.0634385603499105
20.981148,2.5904872119824045,0.0632678151118741
20.983536,2.5946784049303413,0.0630910637478095
20.985916,2.600871698624695,0.0628920597885111
20.988312,2.610789654558163,0.0626742069100202
20.9907,2.623920416051545,0.0624027054574962
20.99308,2.639193047918205,0.0620955700397297
20.995476,2.6532549749713663,0.0618249505015441
20.997864,2.6677362109051086,0.0615062405230249
21.00026,2.683707690906069,0.0611215193258694
21.002656,2.706104782026861,0.0606201370403469
21.005044,2.7272911683341543,0.0601523899795595
21.007424,2.744613122775474,0.0597124368677324
21.009824,2.75765133647024,0.05935261060469
21.012208,2.765754183112394,0.0590440106894676
21.014588,2.778140770501101,0.0586572198561779
21.01698,2.7945315593826434,0.0582302986818214
21.019368,2.810503039383605,0.0578543802222823
21.021744,2.827824993824924,0.0574333717282036
21.02414,2.843424386773548,0.0570074627260609
21.026524,2.8548798086024774,0.0566392958197667
21.028904,2.861911720057992,0.0563640761388095
21.0313,2.868664092259787,0.0561175618681965
21.033684,2.87076063666269,0.0558885413563029
21.036064,2.873416259573034,0.0556035558444215
21.03846,2.872207450617404,0.0553484598308305
21.040848,2.8677858361018598,0.0551454334892477
21.043228,2.8637835304668946,0.0548983435453437
21.045632,2.86522844856374,0.0546555159093673
21.04802,2.866393827406865,0.0544421549502603
21.0504,2.863927091809493,0.0543218345872503
21.052816,2.861739895465843,0.0541722153618179
21.0552,2.862625735055247,0.0539866329681326
21.05758,2.868726480950984,0.0537345651024392
21.059996,2.879902363526193,0.0534292011139017
