Time,Force,Position
23.600052,1.0642540520882438,0.0846743738467885
23.60244,1.0719356939919478,0.0846502682125637
23.60482,1.0848322422019838,0.0843835292006586
23.607216,1.0987997255986588,0.0840765191028522
23.609608,1.1101134819428589,0.0837967273190329
23.611988,1.125990518287333,0.0832184016186039
23.614384,1.14680292168442,0.0824480326047929
23.616772,1.1673357858277862,0.081718996075514
23.619156,1.1861460884784558,0.0810245106013777
23.621552,1.208029427062181,0.0801165587625925
23.62394,1.229912765645906,0.0792086069238072
23.62632,1.2567314712822435,0.0781289178637633
23.628716,1.2872748391576945,0.0769705551531609
23.631104,1.3153967974061471,0.0760182664951273
23.633488,1.3396543237886265,0.075212476637474
23.635884,1.3627011453576072,0.0745146123996365
23.638272,1.385515649501111,0.0736592385150267
23.640652,1.403534556218862,0.0729295982690063
23.66696,1.4209943844291733,0.0721712787057253
23.676516,1.430817896706154,0.0721060296460607
23.678912,1.430957666333014,0.0720775919575335
23.681296,1.435893033385626,0.0719587146202616
23.68368,1.4418993356248766,0.0717992529537954
23.686076,1.4522819264092983,0.0716455357734567
23.688464,1.4689503586866912,0.071287456750117
23.690848,1.4825457550310286,0.0710167738069348
23.693244,1.4987948784278404,0.0707259953691552
23.695632,1.521050304063903,0.0702787044391485
23.698012,1.54009292414005,0.069946572715949
23.700412,1.5690062783214211,0.0693547261501272
23.7028,1.5983389413833728,0.0686688154336459
23.70518,1.626460899631826,0.0680745117461858
23.707584,1.653931231574221,0.067454818675568
23.709972,1.6772575923969222,0.0669670685318412
23.712352,1.7033774498989582,0.0664645448500975
23.714752,1.728286602587496,0.0660155567670159
23.71714,1.7419745467304502,0.0658998810950301
23.71952,1.753939929380708,0.0657824175188446
23.755348,1.8291282305815364,0.0657320876822377
23.760132,1.8300593961413147,0.0657238055247588
23.762516,1.832341036141452,0.065640354270806
23.764912,1.8386268776344228,0.0654725111675513
23.7673,1.8464955109932304,0.0653339814275888
23.76968,1.8532932091653989,0.0652341133334169
23.772076,1.8583683458448712,0.0651280289866975
23.774464,1.8669358273379797,0.0648831221842158
23.776856,1.8736409777115308,0.06465419077913
23.77926,1.8800665888313617,0.0644706738360104
23.781648,1.8922189629367232,0.0642144778502561
23.784028,1.905861581109304,0.0638604145489784
23.786424,1.9162913937219688,0.0636023279878283
23.788812,1.926860975961494,0.0633265503557808
23.791192,1.939432658947436,0.0630187877474266
23.793588,1.9506538674930187,0.0627908615681984
23.795976,1.9638771767850187,0.0625254546156113
23.79836,1.9772402557038784,0.0622434519831266
23.800756,1.9923258961154355,0.0619674685289119
23.803144,2.0076910757807123,0.0616477695444665
23.805524,2.013185521340765,0.0614833874902856
23.807928,2.024686269140069,0.0612176456207951
23.810316,2.034604225073536,0.0609357980782627
23.812696,2.047874756193779,0.060561778450715
23.815092,2.0624957617543807,0.0601286876036834
23.817484,2.073392105075869,0.0597192060357009
23.819864,2.0850798443302763,0.0593244695771597
23.82226,2.099700849890878,0.0589135874091984
23.824648,2.118326056944314,0.0584540122119315
23.827032,2.1403038391845253,0.0579154222818902
23.829428,2.1593483551185417,0.0574128861189639
23.831812,2.178253101425698,0.0569401708465274
23.834196,2.1992997181061305,0.0564221276160256
23.836592,2.218484003667007,0.0559151823808841
23.83898,2.2358059581083274,0.0554231665127502
23.84136,2.2523365166167286,0.0549161241364083
23.843756,2.267796139938491,0.0544315901903296
23.846144,2.2843266984468933,0.0539369564782619
24.106576,1.3827374943032174,0.0538070380116385
24.108972,1.3645334919882317,0.0537785397260075
24.11136,1.3541981230320528,0.0536384196861108
