Time,Force,Position
23.41952,1.031494329533905,0.0915987650162999
23.421908,1.0283287458022323,0.0915676802938264
23.424292,1.0295394506157314,0.0914413983002775
23.426688,1.0386187887880374,0.090864023521287
23.429072,1.044764860654148,0.0904931186739475
23.431456,1.0529130332666756,0.0900207967593918
23.433852,1.0571967740132298,0.0897136779961086
23.43624,1.06306330662562,0.0894167348632218
23.43862,1.0765189333430971,0.0888586036953248
23.441016,1.0951894663669066,0.0880369848300208
23.443404,1.1126492945772175,0.0873151440871342
23.445784,1.1319714539070849,0.0865743424905636
23.44818,1.1454270806245623,0.0861041249559687
23.450568,1.165121327006767,0.085529608161052
23.452952,1.1844434863366344,0.084808928890891
23.455348,1.2054882071591986,0.0841110331857021
23.457736,1.2379864539528227,0.0829721091195138
23.46012,1.264106311454859,0.0820925752988564
23.462516,1.291017564889813,0.0812432653220571
23.4649,1.32901025724349,0.0798891047659285
23.4673,1.3619278129176948,0.0788835332935115
23.469696,1.399501196390791,0.0778179432374136
23.472084,1.4376336583713285,0.0766687532534843
23.474468,1.4713898318066945,0.0756155358234009
23.476864,1.502724595615063,0.0747298894176388
23.479252,1.5312658627440965,0.0739102163545675
23.481636,1.5647424969257422,0.0729213287958892
23.484032,1.6007803103612457,0.071787034113805
23.48642,1.6260162241317464,0.0710004769269651
23.488804,1.644826526782416,0.0705042661303234
23.491204,1.662985203127028,0.0699503647884957
23.493588,1.6762085124190282,0.0695285520373182
23.495972,1.692504857644083,0.0690052642474948
23.498368,1.7024228135775503,0.0685593412610475
23.500756,1.714063331003714,0.0681150885151094
23.503136,1.7246329132432394,0.0677264567066666
23.505536,1.7288241061911764,0.067418001025711
23.507924,1.7345980910049497,0.0671406758268972
23.510304,1.7386495143260263,0.0668620325718004
23.5127,1.7376258009676309,0.0667294640986833
23.522256,1.711647608950324,0.0666782624875425
23.52464,1.7086217948455118,0.0665926914867897
23.527036,1.7075980814871166,0.066463732296276
23.531804,1.702849705889608,0.0663711767279751
23.534204,1.7035485540239088,0.0662515512287541
23.536588,1.7063892725314869,0.066063829010964
23.538972,1.712675114024458,0.0658888042440799
23.541368,1.7223135307042048,0.0655872531229795
23.54376,1.7326035736900096,0.0653342495946905
23.54614,1.747689214101566,0.06501342875023
23.548536,1.7647769552595391,0.0646637960006033
23.550928,1.7809335308577343,0.064324961705072
23.553308,1.796950336829069,0.0640073526320366
23.555708,1.813758538733322,0.0637096824374828
23.558096,1.8322893021302715,0.0634217339919888
23.56048,1.8468158640343872,0.0632050225749063
23.562876,1.8654863970581967,0.0628910058269518
23.565264,1.891234167507896,0.0624343744364481
23.567644,1.9136293627708183,0.0621098493075274
23.570044,1.935884788406881,0.0618053822155938
23.572432,1.9524134510574132,0.0615710119103661
23.574812,1.969733509640864,0.0613594614921996
23.577212,1.983608445238922,0.06114049971284
23.5796,2.0036294527030902,0.0607995863951216
23.58198,2.020577424234203,0.0605275339067023
23.584376,2.039527496511733,0.0602278785659351
23.586764,2.057825942483205,0.0598973348334461
23.589148,2.0739825180814004,0.0596241895295129
23.591544,2.0861348921867617,0.0594118439812263
23.593932,2.0993582014787617,0.0591843595498508
23.596316,2.1077859133450096,0.0590042417236847
23.598712,2.116353394838118,0.0588047780364685
23.601104,2.1258520418910045,0.05859944654256
23.603484,2.1349786018915538,0.0583238096942124
23.60588,2.1443847011458232,0.0580133691126483
23.608272,2.160076641893064,0.0575792810218839
23.610652,2.174977186707385,0.0571486789925247
23.613052,2.1866649259617907,0.056799019866909
23.61544,2.1983526652161967,0.0564469593734956
23.61782,2.211390878910961,0.0560382194279546
23.62022,2.22815375484484,0.0556119744616249
23.622612,2.2441252348457987,0.0551780177646525
23.624992,2.258886010033261,0.054785769069276
23.627388,2.269363044474168,0.0544852659464499
23.629772,2.284635676340826,0.0541581142857409
23.632156,2.2960438763415114,0.0538610599703135
