Time,Force,Position
23.4294,1.0083578502044614,0.0841166684038218
23.43178,1.017809275429105,0.0837924545464375
23.441344,1.026282313265727,0.0837616480571931
23.443728,1.0317295369975368,0.0836456024239643
23.446112,1.0371767607293465,0.0835206561729477
23.448508,1.0460691074465491,0.0833596061926433
23.450896,1.0617591523359202,0.0828515800443926
23.472412,1.152493937083521,0.0824940247308732
23.474788,1.1649711764129769,0.0822465571590009
23.479568,1.1858742317508109,0.0822410757628687
23.481948,1.1996547236923822,0.0821544618346007
23.484352,1.212923358954756,0.0819893252203661
23.486736,1.2317789875757998,0.081715314442848
23.489116,1.2497034506370652,0.081468092098724
23.491512,1.268047222578911,0.0811611987651108
23.493896,1.2902554263867303,0.0807489206729493
23.496276,1.313814104634909,0.0802443132365993
23.498672,1.3385834876965863,0.0796888366639227
23.50106,1.366565676318179,0.078985262061425
23.50344,1.3977606704996874,0.0781646557780239
23.505836,1.4301663694946942,0.077257353857505
23.50822,1.4625720684897014,0.0763146685614871
23.5106,1.4893907741260386,0.0754568423663207
23.513016,1.5159299405086557,0.0746758903883265
23.5154,1.5467528476378265,0.0736346465787039
23.517796,1.577575754766997,0.0725934027690812
23.520192,1.6033235252166955,0.0717893211777429
23.52258,1.6258584901064788,0.0711628521536962
23.52496,1.6476020590633436,0.0705597338665215
23.527364,1.6704165632068473,0.0699021645471076
23.5608,1.7626907097077795,0.0695554939381532
23.563196,1.7718625956787026,0.069483371066171
23.565584,1.7851784527693195,0.0693129038690994
23.567964,1.803709216166269,0.0690159986051524
23.57036,1.8225195188169387,0.0686732906388779
23.572748,1.8365342240418567,0.0683966087154057
23.575144,1.850828468520495,0.0680785547058564
23.57754,1.865681791506574,0.0676790785547918
23.579928,1.880814653746374,0.0672403071423429
23.582308,1.8971582207996724,0.0667461586364887
23.584704,1.9148522622933295,0.0661778885352525
23.587092,1.9374816708395988,0.0655209237623441
23.589472,1.9571778130796729,0.0649184488361794
23.591872,1.9816695527454995,0.0642505190362246
23.594256,2.0040194220380485,0.0636517445234086
23.59664,2.032096054316127,0.0630078211860384
23.599036,2.0603124562210664,0.0623302201212877
23.601424,2.088668627752866,0.0616253824075588
23.603804,2.117444108165246,0.060874459670934
23.606208,2.1400735167115155,0.0602695715496715
23.608596,2.157907327832033,0.0597201874228799
23.610976,2.1749497430196323,0.059187804814238
23.613372,2.187708417460678,0.0587722476027383
23.61576,2.193389854475834,0.0584762645233499
23.61814,2.201864788170325,0.0581717071686688
23.62054,2.216066484850346,0.0578204545687521
23.622924,2.2293370159705894,0.0574784794393136
23.62532,2.240186137463835,0.0572250181123968
23.627716,2.250104093397302,0.0569791001978623
23.630104,2.262024150077186,0.0567121415838947
23.632484,2.2740839763839302,0.056432563272744
23.634888,2.2814879748917827,0.0561714682341176
23.637272,2.2908940741460526,0.0558859212034192
23.639652,2.3003001734003217,0.0556073478299985
23.642048,2.3110567470949506,0.0552735890505303
23.644436,2.312733982617273,0.0550575250952035
23.646816,2.31706494519207,0.0548509844453739
23.649212,2.323909865192482,0.0546720737155818
23.6516,2.3292645411256747,0.0545691646327536
23.65398,2.338623418551701,0.0544193168387527
23.656384,2.354500454896176,0.0542501512238793
23.658772,2.363160484187901,0.0541899695324913
23.661152,2.372239822360207,0.0540772208334575
23.663548,2.386114757958265,0.0539312266346179
23.665936,2.393983391317072,0.0538549995967796
23.668316,2.399058527996544,0.0537891191721206
23.67072,2.4049250606089347,0.0537389194345812
23.673108,2.414935564341018,0.0536278281912541
23.675488,2.4246665288193827,0.0535514677014483
23.680276,2.4384942425891976,0.0535352248443522
23.682656,2.448876833373619,0.0534964657270172
23.685056,2.4606098985984,0.0534101112208182
23.689824,2.474856921248795,0.0533535246358654
23.69222,2.486589986473576,0.0532663592626057
23.694608,2.49701979908624,0.0531178337024631
23.696988,2.508008690206346,0.0529075309864835
23.699384,2.52020828613995,0.0526639134136297
23.701772,2.52947461576736,0.0524423922304441
23.704168,2.5323625561031813,0.0522146691952672
23.706564,2.539394467558697,0.0519286430626618
23.708952,2.545867300506771,0.0517084586689197
23.711332,2.548615471215732,0.0514934388815065
23.713736,2.5555076130443872,0.0512211803521404
23.716124,2.5610492804326834,0.0509987583509623
