Time,Force,Position
7.366195999999999,0.025560481731889184,0.0
7.370344,0.021298331312994995,0.0
7.374424,0.017036180894100812,0.0
7.378564,0.011876813600194804,0.0
7.382647999999999,0.009409096931324263,0.0
7.386727999999999,0.008735814012477368,0.0
7.390807999999999,0.007165314218618651,0.0
7.394951999999999,0.005484089524825063,0.0
7.398984,0.004700081706043298,0.0
7.403064,0.0017894654374332726,0.0
7.407144,0.0008947327187166363,0.0
7.411228,0.0,0.0
7.415308,0.0,0.0
7.4194,0.0,0.0
7.423479999999999,0.0,0.0
7.427511999999999,0.0,0.0
7.4316,0.0,0.0
7.435692,0.0,0.0
7.439784,0.0,0.0
7.443812,0.0,0.0
7.447895999999999,0.0,0.0
7.451984,0.0,0.0
7.456072,0.0,0.0
7.460168,0.0,0.0
7.464263999999999,0.0,0.0
7.468355999999999,0.0,0.0
7.472456,0.0,0.0
7.476551999999999,0.0,0.0
7.480647999999999,0.0,0.0
7.484739999999999,0.0,0.0
7.488831999999999,0.0,0.0
7.492923999999999,0.0,0.0
7.49702,0.0,0.0
7.501048,0.0,0.0
7.505135999999999,0.0,0.0
7.509223999999999,0.0,0.0
7.513312,0.0032542086439474914,0.0
7.517395999999999,0.004492533738001593,0.0
7.521427999999999,0.00673880060700239,0.0
7.525467999999999,0.009095792375938057,0.0
7.529556,0.014365884569778938,0.0
7.533651999999999,0.016612151438779733,0.0
7.537743999999999,0.01874769340784566,0.0
7.541844,0.01987529360196489,0.0
7.545936,0.02290805244604264,0.0
7.550031999999999,0.02403565264016187,0.0
7.554127999999999,0.02505252793434623,0.0
7.558219999999999,0.02505252793434623,0.0
7.562319999999999,0.02505252793434623,0.0
7.566415999999999,0.02731021247887988,0.0
7.570512,0.029346447223543785,0.0
7.574608,0.03216917394328465,0.0
7.578708,0.03634343481330966,0.0
7.5828,0.041869229833618835,0.0
7.586899999999999,0.04784934212920035,0.0
7.590996,0.051370671275148994,0.0
7.595088,0.051084167277475785,0.0
7.599184,0.053378589004903186,0.0
7.603276,0.05881897863263838,0.0
7.607371999999999,0.06639739438573469,0.0
7.611515999999999,0.07039836031431658,0.0
7.615656,0.0787746857180227,0.0
7.619735999999999,0.09152637059685303,0.0
7.623876,0.1084319651509379,0.0
7.628016,0.12276805165545501,0.0
7.63216,0.14136877273516152,0.0
7.636256,0.1646770279897969,0.0
7.640396,0.19214812643892434,0.0
7.644543999999999,0.224105309263111,0.0
7.64868,0.2533619079430245,0.0
7.652767999999999,0.2862073741229853,0.0
7.656895999999999,0.3205150993531651,0.0
7.660984,0.35672798323330346,0.006913029789380756
7.665119999999999,0.3910357084634833,0.014147075363642223
7.669256,0.42433549191871633,0.01414707536364222
7.673391999999999,0.4640265183989672,0.021474539886505377
7.677528,0.5074171372792001,0.028641594391029118
7.681676,0.5561910574095039,0.035379014862343544
7.685807999999999,0.6029490939899145,0.042132799223278145
7.689899999999999,0.6488099136953129,0.04892715676765258
7.693988,0.6972516591258122,0.05582301327239282
7.698023999999999,0.7473771134064002,0.06266087649976702
7.702163999999999,0.7950437845373554,0.06963180133977914
7.706252,0.8403623974186125,0.07683617806110743
7.710335999999999,0.8880404862251006,0.08419815407397668
7.714431999999999,0.93763515135708,0.0915473092567085
7.718459999999999,0.9827665674650659,0.09933014812585594
7.722535999999999,1.0291387928234013,0.10704064251213632
7.726615999999999,1.071158494057678,0.11515766808755591
7.730695999999999,1.1184621893176236,0.12325926599255657
7.734772,1.1671288364033863,0.13137938910948788
7.738851999999999,1.2183878268897823,0.139485585525988
7.742888,1.2704447270267882,0.14069290123598432
7.746916,1.327785621189463,0.1415942160990652
7.751,1.3915291760526884,0.14964042413995865
7.755088,1.4561813654664584,0.15035107284404267
7.759175999999999,1.5212992898310336,0.15133257750424325
7.763264,1.5839698487215086,0.15287076259612759
7.7673,1.6499085180877595,0.15439946306253127
7.771332,1.7197910650049277,0.15591543935385802
7.775419999999999,1.7958548228227766,0.15721485639235458
7.779507999999999,1.876981124866425,0.15847034104897964
7.783599999999999,1.9614862622857834,0.15964165408841716
7.787684,2.0541884941557162,0.16045632327832596
7.791768,2.1510560533764362,0.16116188692823805
7.795851999999999,2.252421114647748,0.16180304191155337
7.79994,2.3622047201695042,0.16197061625612655
7.804032,2.4768294201171894,0.16217611725570277
7.80812,2.6041372988905076,0.1618452667104297
7.812212,2.7371834889647677,0.1615104796748271
7.816299999999999,2.8762008578153715,0.1612012420397108
7.820388,3.0269162990677274,0.16084609222605026
7.824483999999999,3.1859852303727236,0.16061858417152758
7.828575999999999,3.3653043385809163,0.16030620494062384
7.832672,3.5636670674685553,0.1601420568620143
7.836764,3.7879303950114633,0.1600119925918436
7.84086,4.051231817310546,0.15969258084321564
7.844948,4.35773666171659,0.1591897167882012
7.84904,4.71341610700594,0.15862352403041433
7.853139999999999,5.120851078903695,0.1579677065376512
7.857235999999999,5.5780142761844305,0.15734591587056287
7.861327999999999,6.0804196144730875,0.1567953431717071
7.865424,6.6304151520193635,0.15616521960255703
7.869519999999999,7.21925016987301,0.15565495760843076
7.87362,7.852407276508498,0.15506514973355542
7.877716,8.523163054201008,0.1545531637541071
7.881811999999999,9.231849677650345,0.1540786544479695
7.885903999999999,9.979917988231193,0.15361818255268828
7.89,10.758617266993305,0.15329174793555223
7.894099999999999,11.572643630436078,0.15296428474354148
7.898195999999999,12.417942476108658,0.15258314913485102
7.902292,13.285862392285196,0.1522528804966782
7.906384,14.180633760514286,0.15175590784984028
7.910479999999999,15.081364889844187,0.15131658434101988
7.91462,15.98890732644778,0.15077796200148028
7.918752,16.886966188648316,0.1501988760717225
7.922892,17.75374115094351,0.14969778491160163
7.927036,18.580447241356527,0.14924803440833118
7.931119999999999,19.351663959734548,0.14884518788835038
7.935263999999999,20.063458846202202,0.1484954255495393
7.939403999999999,20.711590101535357,0.14824339547572035
7.943547999999999,21.30413267760912,0.14802446665411031
7.947688,21.845240484098753,0.1478241882744934
7.951823999999999,22.34087328210507,0.1476227741197874
7.95596,22.79047744712838,0.1474408278689081
7.960095999999999,23.199989904918443,0.14723347786810725
7.96418,23.571537263925073,0.14698877454221965
7.968315999999999,23.89548300599855,0.14675892302760993
7.972456,24.178561966539238,0.14651652469124848
7.976591999999999,24.418315362397493,0.14628622316417916
7.980728,24.62181020367348,0.146038849071208
7.984815999999999,24.786034082717887,0.14580248209908422
7.988851999999999,24.91570595138118,0.14556998895328183
7.992987999999999,25.01634267116443,0.14534092611482843
7.997115999999999,25.086394093468545,0.14514467457311395
8.001259999999998,25.13921916419431,0.14494143554337652
8.005388,25.182694220768024,0.14472842274568282
8.009471999999999,25.221438907815735,0.14451183181727012
8.0135,25.26299738806395,0.1442961685156913
8.017588,25.306816037012993,0.14409119710089144
8.021719999999998,25.359385404912288,0.14385564483174598
8.025852,25.415100740711893,0.1436144142415601
8.029979999999998,25.470594626711623,0.14337793159959888
8.034064,25.52294254481105,0.1431471997111486
8.038143999999999,25.5722552199101,0.14292079659573145
8.042279999999998,25.61259572625903,0.14272903414877913
8.046420000000001,25.641837455408023,0.1425849160747541
8.050504,25.67399228498191,0.14242720517075436
8.054583999999998,25.70389836353051,0.14227185049073096
8.058668,25.730437024378926,0.14212606887021376
8.062743999999999,25.752378875952353,0.14199970987993293
8.066828000000001,25.773534235550695,0.14187458003056647
8.070912,25.79311661119889,0.14175276723787195
8.074991999999998,25.81471487039698,0.1416208475632303
8.079072,25.835415912720055,0.14149238249940208
8.083155999999999,25.8514094208682,0.14138464597358394
8.087236,25.865608495266326,0.14128363523574777
8.091324,25.878345310614225,0.14118336242074062
8.095412,25.890295633987055,0.1410845505483936
8.099495999999998,25.905601957384526,0.140964308000516
8.103583999999998,25.92034323860679,0.14084177726895242
8.107668,25.935416694528858,0.14071348826118782
8.111756,25.95160881712581,0.14057833545261664
8.115844,25.97384859037244,0.1404126245439915
8.119924000000001,25.998325696968838,0.14023322861744875
8.124008,26.027731787540034,0.14003010218374545
8.128084000000001,26.06375057093611,0.13979914393340495
8.132168,26.095172545057196,0.13958650446764465
8.136243999999998,26.127602460953224,0.1393690924880338
8.140328,26.16417486884898,0.13912979264351344
8.144411999999999,26.199960784769655,0.13889199018014015
8.148495999999998,26.242913018014896,0.138617667420037
8.152572,26.28205493396021,0.1383602346478468
8.156652000000001,26.31671076553048,0.13811894622534854
8.160732,26.35730352285049,0.1378505475756046
8.164812000000001,26.40361175612037,0.13755878395863919
8.168892,26.453730306690172,0.13725182589129986
8.172979999999999,26.506540507885006,0.13693661341687427
8.177063999999998,26.561477317529672,0.13661060575018205
8.181155999999998,26.61518473559952,0.1362945921009658
8.185251999999998,26.66676554521954,0.13599102279846167
8.189347999999999,26.720140788589582,0.1356824050519584
8.193435999999998,26.770492206634792,0.13538888616097866
8.197572000000001,26.814795974030314,0.13512561448027643
8.201656,26.857648900051153,0.13487576629015008
8.205744,26.90509863534698,0.13461090714937252
8.209831999999999,26.95232692084294,0.13435119291260175
8.213916000000001,27.00616789916379,0.13406655312998073
8.218004,27.063376295184813,0.1337753327624403
8.222088,27.121149733381046,0.13348840589502728
8.226168000000001,27.1832985310524,0.13319012391600893
8.230248,27.24108338692417,0.13291792727102872
8.234396,27.304472993845877,0.13262602768455228
8.238484,27.372348685142644,0.13232090111865666
8.242572,27.43305805911485,0.1320512699586527
8.246655999999998,27.49197299933703,0.13178889115696313
8.250732,27.55010144758413,0.13152889308788204
8.254815999999998,27.608229895831233,0.1312701386843366
8.258904000000001,27.662437301878484,0.13102837939243353
8.262988,27.716190390650464,0.13078282023326834
8.267076,27.773864521622293,0.13052184456288304
8.271172,27.83007639354391,0.13026181313961085
8.275264,27.893343857890144,0.12997151664526757
8.279356,27.95996732226103,0.12966295874752762
8.283444,28.026468644056447,0.12934544043893656
8.287531999999999,28.0829898553268,0.12905983504964114
8.291623999999999,28.138491707146667,0.12876833870693238
8.295763999999998,28.186815823966445,0.12849881196586488
8.299848,28.2334448142606,0.12822249440314742
8.303944000000001,28.277149286454325,0.12794684406285597
8.308032,28.31635625659745,0.12767337588626787
8.312128000000001,28.354765317089967,0.1273897290681453
8.316220000000001,28.3895740924069,0.12710583377940812
8.320308,28.419663915873375,0.12682715255460972
8.3244,28.453995538563973,0.1265167890353683
8.328492,28.486975627104286,0.12620538906983386
8.33258,28.51994429796907,0.125883704624987
8.336676,28.54920195875833,0.12556276512368972
8.340764,28.583266460946927,0.12521355394341505
8.34486,28.61609015388517,0.1248611181093222
8.348948,28.648005212272874,0.12450109876095951
8.35304,28.68091679475999,0.12412649371393475
8.357123999999999,28.707990758721763,0.12376311239388192
8.361208000000001,28.737855680532977,0.12338106200794151
8.365292,28.766479793093836,0.12299582620422782
8.36938,28.799800022154095,0.12258406981884262
8.373463999999998,28.8292985162389,0.12217440663394237
8.377548,28.861809417973017,0.12174168709088254
8.381632,28.889158468256937,0.12131995189727778
8.385715999999999,28.91436949241549,0.12089686859498057
8.389803999999998,28.938339707323692,0.12047000851426486
8.393892000000001,28.96084766318168,0.12004299238598777
8.397976,28.980885418214502,0.11961969048016725
8.402064,29.004500623071838,0.11917661817397862
8.406104,29.02474841022899,0.11873995630737486
8.410135999999998,29.040277245535695,0.1183065559182809
8.414224,29.04773112896728,0.117893030564096
8.418316,29.059770403998325,0.11745612958099291
8.4224,29.06305896007913,0.1170377821185077
8.426435999999999,29.069814241084508,0.11660179452196337
8.430523999999998,29.070731903564546,0.11617433054798684
8.434608,29.06727420656946,0.11575598948138327
8.438696,29.06459158387392,0.11532608188476849
8.442784,29.050810183978427,0.1149263975280003
8.446876,29.034780033057643,0.11452594597780488
8.450963999999999,29.019192781736596,0.11411900102520717
8.454999999999998,29.001700371765587,0.11371713755722825
8.45908,28.980508369394606,0.11332488166945237
8.463155999999998,28.959537816823484,0.11292850543656863
8.467236,28.936772830502342,0.11253543240507712
8.471315999999998,28.914905061056206,0.11213985492297115
8.475344,28.891464307659923,0.11174439859213012
8.479432,28.867015612488697,0.11135192512082101
8.483515999999998,28.83685144136759,0.11097607402251256
8.487592,28.801869011171622,0.11061426852610017
8.491679999999999,28.76644368137591,0.11025811247897892
8.495764000000001,28.735393711055323,0.10989273873381597
8.499852,28.69774246558538,0.10955733498324974
8.50394,28.666039563540718,0.10921240426681211
8.508023999999999,28.624146518846654,0.10890484923324151
8.512111999999998,28.583162108703135,0.10860594595889626
8.516200000000001,28.541181174460203,0.10832135027408621
8.52028,28.494282673918,0.10806395943377996
8.524359999999998,28.453443241701017,0.10779551342922009
8.528444,28.41418821110972,0.10753749865585334
8.532523999999999,28.370126339119096,0.10730510773799559
8.536604,28.329886202103918,0.10707266453997473
8.540688,28.289546757864336,0.10685283225981858
8.544775999999999,28.254823482350226,0.1066294250326033
8.548856,28.227510809311617,0.1063988530411045
8.552992,28.200098829048603,0.10618119487874209
8.557127999999999,28.178081567711196,0.10596370003741556
8.561208,28.160783258224246,0.10574494732992745
8.565287999999999,28.147085233912875,0.10553004472005713
8.569372000000001,28.140908536976944,0.10530667407685398
8.573452,28.140680183466287,0.10507540153207007
8.577531999999998,28.144605739630883,0.10484031129478603
8.581616,28.153803872145613,0.10459606969532063
8.585695999999999,28.162448380160672,0.10436045007929248
8.589780000000001,28.18589125777566,0.10408980085390657
8.59386,28.212701553090824,0.10381553935964245
8.597995999999998,28.24680030830602,0.10352581866051204
8.602076,28.286171639871355,0.10322708894754348
8.60616,28.326783780687034,0.10293373323729399
8.610240000000001,28.369190355252737,0.10263736263546856
8.614328,28.41989333149342,0.1023226866713487
8.618412,28.467572482409256,0.10201835303199752
8.622504,28.52006989239996,0.10170086197740565
8.626596,28.567749043315803,0.10139771412880054
8.630683999999999,28.609934168081637,0.10110731576778337
8.634771999999998,28.65323795952235,0.10081229912972091
8.638863999999998,28.689364015962973,0.10053112728280762
8.642944,28.721790480003616,0.1002587680727917
8.647020000000001,28.752533235194164,0.09998829901872279
8.651163999999998,28.783497440184583,0.09971540842472408
8.655252,28.813675153199924,0.0994433271721806
8.65934,28.841050490690296,0.09917858724643867
8.663424,28.86450478598082,0.0989256201674244
8.667511999999999,28.88885629814635,0.09867144218680445
8.671596000000001,28.901776858412134,0.09844711623061407
8.675684,28.910997826277935,0.09823089467432278
8.679776,28.914835492893662,0.09802460645836363
8.683864,28.91911605910913,0.0978121379242579
8.687952,28.922610133349515,0.0975998344682007
8.692039999999999,28.923301832064936,0.09739391822010401
8.696136,28.914578462430498,0.09721018594786923
8.700223999999999,28.90966541009598,0.09701692271242368
8.70432,28.90262574931163,0.09683176694818724
8.708412,28.896372580502355,0.09664655250361258
8.712508,28.893597554293194,0.09645685089782048
8.716608,28.892506236934132,0.0962659043592229
8.720703999999998,28.89948987145016,0.09606132228054302
8.724795999999998,28.909275881491173,0.09585068246872674
8.728895999999999,28.922540034132297,0.09563579623229851
8.732987999999999,28.932780361448575,0.09543050580164165
8.737088,28.942688514065047,0.09523034536536644
8.741228,28.95316170885673,0.09503372749788014
8.745315999999999,28.962626961873465,0.09483997290551613
8.749403999999998,28.973775923740288,0.09464529803347213
8.753556,28.98851375310716,0.09444463331240097
8.757643999999999,29.01143725924907,0.09422968541562952
8.761727999999998,29.0384039501663,0.09401417292574067
8.765812,29.062801133033965,0.09381295103605818
8.7699,29.089668516726793,0.09361107138038201
8.773976000000001,29.119338275944592,0.09340354251034745
8.778068000000001,29.155399278187414,0.09318449326254467
8.782156,29.193254714180252,0.09296334672427065
8.786248,29.2320073670481,0.09274122633065068
8.790344000000001,29.27647549586583,0.09250673700443837
8.794443999999999,29.316568265208442,0.09227795498220645
8.798535999999999,29.354755875901084,0.09205407405929567
8.802627999999999,29.388346677318737,0.09183924889513066
8.806719999999999,29.424850579161294,0.09161804399714273
8.810811999999999,29.457544163703936,0.09140565073764388
8.814948000000001,29.49192145709667,0.09119240175744449
8.819028,29.52529080871445,0.09098242032476545
8.823115999999999,29.558095118157027,0.09076951343145444
8.827207999999999,29.59952800397438,0.09053749121570048
8.831304,29.637482747191626,0.09030975472998534
8.835396,29.678461315733706,0.09007408142615755
8.839488,29.711254207500748,0.08985228925736433
8.843584,29.74201979804236,0.08962570978179106
8.847676,29.77591993880875,0.08938945208306377
8.851772,29.806674111674834,0.08915267832806993
8.855871999999998,29.839444168090807,0.08891104616669951
8.859967999999999,29.872546399206588,0.08866555767869179
8.864063999999999,29.902170487722255,0.08842407602363893
8.868155999999999,29.93503985136263,0.08817212402241333
8.872252,29.963644580427818,0.0879241326839838
8.876352,30.00065643606792,0.08766139465713108
8.880448000000001,30.040692117032858,0.08739123287357502
8.884540000000001,30.08475956509759,0.08711095426704572
8.888639999999999,30.122325045237364,0.08684256509457959
8.892736,30.16615962582669,0.08655576819571038
8.896832,30.211555772690634,0.08625962899193601
8.900928,30.261205136454237,0.08595085691436602
8.90502,30.312981108667667,0.08563622065251204
8.909108,30.358808737455817,0.08532634063459013
8.913204,30.407992366268616,0.08500497262139126
8.917296,30.454030027181105,0.08468303232943503
8.921392,30.507123280518222,0.08434380787631954
8.925487999999998,30.560327258755276,0.0840039032156605
8.929576,30.61229042774198,0.08365973204643139
8.933675999999998,30.663467104753604,0.08331551078097932
8.937763999999998,30.712284305839997,0.08297118220126613
8.941859999999998,30.76154440652613,0.08262224191925835
8.945951999999998,30.81203389878708,0.08226843538861524
8.950043999999998,30.85624287292295,0.08192273819733993
8.954148,30.897760196433783,0.08158041729954277
8.95824,30.931202568069512,0.08124813356661428
8.962336,30.959593813154967,0.08091804116768839
8.966435999999998,30.984728365440183,0.08058831773253256
8.970527999999998,31.012432425774964,0.08024655567466603
8.974564,31.034974634659548,0.07990855141977267
8.978596,31.051347050318984,0.07957598723409834
8.982683999999999,31.05885802212824,0.07925167057077737
8.986771999999998,31.06289085133738,0.07892999348726273
8.990859999999998,31.06535069659637,0.07860724925338443
8.994948,31.067024049880274,0.07828460210297437
8.999036,31.065108535664134,0.07796529601679007
9.003128,31.05691250332291,0.07765258530155715
9.007168,31.046135545256586,0.0773409878652152
9.011247999999998,31.033896328140045,0.07702682355217379
9.015339999999998,31.02591032792316,0.07670079068805882
9.019427999999998,31.01265175135614,0.07637807401707067
9.02346,30.99019955623913,0.07606622814718361
9.027552,30.96359345144687,0.0757538545695704
9.031592,30.936200854679527,0.07544026532979554
9.035684,30.91115631616188,0.07511752143586023
9.039768,30.885878910168834,0.07478639203956412
9.043855999999998,30.860822953975664,0.07445186743513343
9.04794,30.833186072057387,0.07411783859978487
9.052028,30.804651973264097,0.07378429506719537
9.056116,30.77399126602098,0.07345600624422792
