Time,Force,Position
5.453464,0.45619256484698983,0.0
5.457544000000002,0.45786485602154575,0.0
5.461628000000001,0.4615530307459951,0.0
5.465712,0.46894079787042653,0.0
5.469795999999999,0.47453413124483435,0.0
5.473887999999999,0.4799060148193725,0.0
5.477971999999998,0.4889774907938927,0.0
5.482060000000001,0.5015271093685254,0.0
5.4861479999999965,0.514863219918235,0.0
5.4902399999999965,0.5260727220181163,0.0
5.494327999999999,0.5372822241179978,0.0
5.498408000000001,0.5521913186178613,0.0
5.502492,0.5728158890676004,0.0
5.506579999999996,0.5853769253177659,0.0
5.510664000000002,0.598270136267736,0.0
5.514748000000001,0.6110526223177712,0.0
5.518775999999999,0.6248430501427533,0.0
5.522803999999997,0.6381905783679958,0.0
5.526887999999996,0.6503087150184218,0.0
5.530975999999999,0.6587272592688658,0.0
5.535064000000002,0.6617625022692386,0.0
5.539156000000002,0.6697267292444101,0.0
5.543243999999998,0.6766830144446351,0.0
5.547335999999998,0.6819555907947711,0.0
5.551432000000002,0.6881253840199191,0.0
5.555527999999999,0.6905955848450847,0.0
5.559616000000002,0.6844372092954697,0.0
5.563703999999998,0.6748006911457423,0.0
5.567795999999998,0.664266956121003,0.0
5.571879999999997,0.6500336286962816,0.0
5.575963999999996,0.6358003012715601,0.0
5.580051999999999,0.6217884236467084,0.0
5.584143999999998,0.6069900540467797,0.0
5.588227999999997,0.6017174776966437,0.0
5.592316,0.5948833350718865,0.0
5.596352,0.5895000338218155,0.0
5.600444,0.5810929072469044,0.0
5.604527999999998,0.5729072304718631,0.0
5.608619999999998,0.5630378448467331,0.0
5.612711999999998,0.5579867182964668,0.0
5.616744000000001,0.5574216761212596,0.0
5.620828,0.551816925071319,0.0
5.6249239999999965,0.5415046398464494,0.0
5.629020000000001,0.5323110212964614,0.0
5.633115999999998,0.5241253445214201,0.0
5.6372040000000005,0.5177341014964024,0.0
5.6412960000000005,0.5179555512962721,0.0
5.645383999999996,0.5181770010961418,0.0
5.649471999999999,0.5205250593458398,0.0
5.653555999999998,0.5247782762454963,0.0
5.657647999999998,0.5262291176201827,0.0
5.661736000000001,0.5277906838948037,0.0
5.665831999999998,0.5215101657697209,0.0
5.669928000000002,0.5079411877446086,0.0
5.674015999999998,0.49783893464407614,0.0
5.678107999999998,0.48617511526892243,0.0
5.682204000000002,0.47282758704367994,0.0
5.686296000000002,0.457574900168479,0.0
5.690383999999998,0.4451245888182483,0.0
5.694480000000002,0.42695880151814214,0.0
5.698567999999998,0.4062120884929353,0.0
5.702659999999998,0.39050508434246195,0.0
5.706756000000002,0.3797270641667872,0.0
5.710848000000002,0.36603594356620733,0.0
5.714943999999999,0.35055038921560366,0.0
5.719039999999996,0.33719144331482837,0.0
5.723131999999996,0.3230460054389761,0.0
5.727228,0.311714360763627,0.0
5.731323999999997,0.3038836940394561,0.0
5.735423999999998,0.3060788085424814,0.0
5.739515999999998,0.3277490256491594,0.007539139407068917
5.7435519999999975,0.37657206833698825,0.015461486038636913
5.7476439999999975,0.47093517370594407,0.023005315303387196
5.751771999999999,0.6034619923071282,0.030688214399357483
5.755860000000002,0.7780849840159252,0.03826940480148326
5.760000000000002,0.9977058315817078,0.04571125536870853
5.764095999999999,1.258170625329221,0.05312479872620597
5.768143999999996,1.55981153995827,0.06050046728535454
5.772231999999999,1.9015099087939726,0.0678214732190571
5.776315999999998,2.2840522238114063,0.0751526123501122
5.780404000000001,2.709687236035867,0.08245273736101826
5.784496000000001,3.1753911201425136,0.08973820494904262
5.788588000000001,3.683179759681242,0.09699295121533816
5.792680000000001,4.237982138626848,0.10420477643134493
5.796767999999997,4.832509797079304,0.11142286029065288
5.800859999999997,5.465865518163597,0.11863564243488939
5.804948,6.136587042829509,0.12584891271007148
5.80904,6.846900286751269,0.13302667790181372
5.8131359999999965,7.590501896452732,0.14017727731755683
5.817215999999998,8.358152582681775,0.14729553751899802
5.821307999999998,9.136558453735427,0.14682560820437818
5.825399999999998,9.899608878834085,0.14593152906566662
5.829488000000001,10.62945882770191,0.14539444251915043
5.833575999999997,11.332243840537455,0.14466205489740144
5.837616000000001,11.991691871015036,0.14401213740145907
5.8417039999999965,12.606241352860033,0.14348532681905213
5.845787999999995,13.18421152309849,0.14297842904600036
5.849875999999998,13.728183307455504,0.14248383363827646
5.853964000000001,14.234235663731228,0.14203689978671313
5.858048,14.709424184350283,0.14154248651359821
5.862131999999999,15.146227541937241,0.14105188913291328
5.866215999999998,15.542286260566872,0.14055972348420734
5.870296,15.896935990839564,0.14008918330399586
5.8743719999999975,16.210852499830462,0.13964348382851965
5.878451999999999,16.492110739414667,0.13916023768281402
5.882535999999998,16.738694826042288,0.1386586709851846
5.886611999999996,16.954980119188452,0.1381174791252966
5.890691999999998,17.131219375803493,0.1376088085186047
5.894775999999997,17.274258156187702,0.13710033028725171
5.898859999999996,17.38792961299206,0.136601702694029
5.9029440000000015,17.478537099692723,0.1361160174938137
5.907028,17.557679381467036,0.1356533505354843
5.911108000000002,17.631537669215678,0.1351998353492786
5.915195999999998,17.701020597489194,0.13477249744476286
5.919279999999997,17.777459810962938,0.1343198892263213
5.923359999999999,17.854021167012146,0.1338835139292449
5.927448000000002,17.931922639536108,0.1334342433632816
5.931479999999997,18.007243186334964,0.1329987164124258
5.935559999999999,18.0805364319084,0.13256090322192618
5.939643999999998,18.146762667381672,0.1321577574528524
5.943732000000001,18.20917858555503,0.13177913174311817
5.947811999999995,18.271483778828458,0.1314048019668839
5.951843999999998,18.336137030351576,0.13101074963870982
5.955932000000001,18.39630419749964,0.13063863200260925
5.9600199999999965,18.450301571422553,0.13029514195661396
5.964116000000001,18.498239877020257,0.1299764700875308
5.968208000000001,18.537316738767775,0.129698133164928
5.9722959999999965,18.576836500115032,0.129409750766936
5.9763879999999965,18.610862235312286,0.1291495282107589
5.980476,18.641188378109554,0.12890913456171021
5.984563999999995,18.667826346182373,0.12870632185653474
5.988648000000001,18.694697181730604,0.12851641398399838
5.992727999999996,18.722022334554094,0.12833387750404374
5.996815999999999,18.742967662028104,0.12819966577775682
6.000907999999999,18.755628005502672,0.12812445146611318
6.004991999999998,18.768853391152447,0.1280533517208994
6.009080000000001,18.779165676377318,0.12799967809784485
6.013172000000001,18.791493845152083,0.1279333428648162
6.017267999999998,18.803600564126974,0.12787248112402935
6.021359999999998,18.817390991951957,0.12780669219197452
6.025456000000002,18.833651620602105,0.1277348496441112
6.029551999999999,18.85417688382744,0.1276497946961102
6.033647999999996,18.86551994617832,0.12762541471224864
6.037739999999996,18.879665384054178,0.1275870138860429
6.041839999999997,18.894486589005172,0.12755012659113135
6.045979999999997,18.913793878331223,0.1274944550210583
6.050124,18.9345634267075,0.12743905980843426
6.054259999999996,18.954103583508953,0.12739556731108354
6.058344000000002,18.973422290510538,0.1273572176605603
6.062431999999998,18.99173305573717,0.12732526516995538
6.0665159999999965,19.006565678363703,0.12730570782539546
6.070612000000001,19.01702294151511,0.1273024969321314
6.0747079999999976,19.02590722071636,0.12730166517657396
6.078804000000002,19.037139558167308,0.12727994076717533
6.082899999999999,19.04881479521799,0.1272475118834482
6.0869839999999975,19.058352006143313,0.12721329859788258
6.091080000000002,19.067324174893436,0.12717506435585935
6.0951640000000005,19.06631623311849,0.12718152937754912
6.099251999999996,19.06183014874343,0.12720067107275881
6.103323999999997,19.052182212918165,0.12723753604106214
6.107415999999997,19.034570050117736,0.12730648678006593
6.111504,19.00596983501729,0.1274269045812781
6.115591999999996,18.983749445266334,0.1275007221436938
6.119676000000002,18.95715369604025,0.12759116419910113
6.123763999999998,18.92999290463896,0.1276773490574166
6.127860000000002,18.8974488119876,0.12778633839503253
6.131955999999999,18.861758751435932,0.12790035574275932
6.136051999999996,18.824827881633915,0.12800861963355653
6.140148,18.78945857810652,0.12809698498910946
6.144243999999997,18.7526270155289,0.1281853745136135
6.148340000000001,18.719262177875866,0.12824358968729066
6.152432000000001,18.686340239822574,0.12829149153632305
6.156527999999998,18.652177492518923,0.12833360801462237
6.160624000000002,18.620584253264845,0.12834870379756147
6.164719999999999,18.58909032123517,0.12834343115434088
6.168815999999996,18.558260738605107,0.12832192953905477
6.172907999999996,18.5241744631748,0.12830763193111028
6.177004,18.494341404644143,0.12826187860630425
6.181096,18.470888171462974,0.12816845154079395
6.185191999999997,18.448885779656493,0.12805748932759467
6.189288000000001,18.43258744612436,0.12789718519794868
6.193383999999998,18.42289038774157,0.12768349210692928
6.197483999999999,18.41228469480824,0.1274559149221739
6.201579999999996,18.40424850992448,0.1272013628997113
6.205676,18.39440647361516,0.1269364702138087
6.209771999999997,18.38354507785536,0.12665970408200616
6.2138680000000015,18.37525319014513,0.1263558295648801
6.217963999999999,18.365499043384684,0.12605106314806425
6.222055999999999,18.353274695799065,0.1257520613323788
6.226151999999996,18.347208723763064,0.12541116923132795
6.230248,18.339237593077108,0.125080430319675
6.2343439999999966,18.336084721466015,0.12472252074410166
6.238440000000001,18.334615558705014,0.1243595842159934
6.242535999999998,18.327209470194262,0.12403272296977166
6.246632000000002,18.32194140780887,0.1237080487723314
6.250727999999999,18.320716530198798,0.12337573846910681
6.254823999999996,18.32364556226398,0.12303250671518734
6.25892,18.328712620454525,0.12269161948253013
6.263015999999997,18.32728912839565,0.12240023553080044
6.267112000000001,18.331592529962183,0.12209669630676055
6.271212000000002,18.339385491804357,0.12179973308342434
6.275307999999999,18.34607120464719,0.12152983391679353
6.279403999999996,18.355127811090785,0.1212754289679652
6.2835,18.368903369384842,0.12101632629041005
6.287595999999997,18.388073646604497,0.12075402831261452
6.291692000000001,18.412860092549632,0.120482982222179
6.295784000000001,18.44157899837015,0.12020869794992309
6.299879999999998,18.474230364066052,0.11993033972865884
6.303979999999999,18.51552172381227,0.11962639565071109
6.308075999999996,18.55413285060898,0.11935219744719215
6.312172,18.59913522043071,0.11905267892023208
6.316267999999997,18.64391614045257,0.11876024376812806
6.320364000000001,18.688475610674566,0.11847365723014591
6.324459999999998,18.740544990596455,0.11815286829000655
6.328551999999998,18.792835820318214,0.1178282833513293
6.332647999999995,18.84523737493991,0.11750341083016193
6.3367479999999965,18.89886832113642,0.11716903667661731
6.340844000000001,18.952044950057658,0.11682864824059173
6.344939999999998,19.012387896303462,0.11644565533481378
6.349039999999999,19.071711483098785,0.11605408572601611
6.353131999999999,19.12620539314371,0.11567063845666616
6.357227999999996,19.18460892771295,0.11525138516667228
6.361319999999996,19.239301452206682,0.11483151250765365
6.365416,19.287369866199988,0.11442597560574404
6.369511999999997,19.332845936792665,0.1140124546381946
6.373608000000001,19.37472172220976,0.11359562794370101
6.377695999999997,19.411767830876457,0.11318635222884367
6.381792000000001,19.44532437926751,0.11277054585926947
6.385887999999998,19.468667949658094,0.1123802572504455
6.389987999999999,19.48941917664805,0.11197984151557978
6.394088,19.500633192712677,0.11160572036036584
6.398175999999996,19.508811965776935,0.11123166384984538
6.402272,19.519105929615485,0.11082795397904235
6.406364,19.519862682528704,0.11044932753062918
6.410459999999997,19.51657625066661,0.11007532785616876
6.414551999999997,19.506887158103964,0.1097073335088145
6.418648000000001,19.493941372741077,0.10934366816335
6.422743999999998,19.478857561252827,0.10897590600636928
6.426843999999999,19.45401508903938,0.10863695628212025
6.430939999999996,19.424686532450878,0.10831196694919921
6.435036,19.394903658587097,0.10797902825143525
6.439128,19.35861881679837,0.10767033239194078
6.443223999999997,19.324128408759663,0.10735537354345642
6.447320000000001,19.290645942495907,0.10703421134290057
6.451415999999998,19.253020984232425,0.10673576431134195
6.455515999999999,19.21528530106901,0.10643886090673936
6.459607999999999,19.17575518415557,0.10614641819986638
6.4637080000000005,19.139592484942312,0.1058471021032904
6.467803999999997,19.105002769679203,0.10554608003945
6.471895999999997,19.073780472116272,0.10523838724381149
6.4759920000000015,19.049735909553437,0.10490820015700966
6.480087999999999,19.025580622090665,0.10457977914877256
6.484179999999999,18.996274900853223,0.10427895564260348
6.488275999999996,18.976162798165777,0.1039457828622036
6.492372,18.959528838078437,0.1036038652253709
6.496464,18.94794600454136,0.10325301924822926
6.500556,18.935355229229348,0.10290661149274227
6.5046519999999965,18.925123929842556,0.1025594606875973
6.50874,18.92307830723081,0.10218592579746966
6.512815999999997,18.920921959719127,0.1018141526160287
6.516899999999996,18.921911580107757,0.10144202801253496
6.520987999999999,18.922458300896647,0.10107873545714897
6.525076000000002,18.922329254610393,0.10071324984618311
6.529163999999998,18.923883917174226,0.10034520627391384
6.533252000000001,18.9284624050629,0.09996164747526831
6.537344000000001,18.937526977326634,0.09956632901497037
6.541423999999996,18.951077633965422,0.0991586622236593
6.545515999999996,18.96362034882927,0.0987568259419298
6.549603999999999,18.97817894724301,0.09834498930415665
6.553692000000002,18.989713720331906,0.09794823917571806
6.5577760000000005,18.998446117895835,0.09756198686174611
6.561863999999996,19.01054593315994,0.09717167027544583
6.565951999999999,19.028815541649195,0.0967676522154046
6.570040000000002,19.042721208338858,0.09639120643258013
6.574124000000001,19.056294700328714,0.09602266822400889
6.578211999999997,19.070543959393717,0.09565788386459906
6.5823,19.0884928108587,0.09528186844133439
6.586392,19.10812537117377,0.09490483297280584
6.590484,19.127425756789034,0.09453661471109466
6.594579999999997,19.151998718754434,0.09415826608147805
6.598711999999996,19.175674463844825,0.09378303985432365
6.602852000000002,19.20887600218501,0.09337537902574607
6.606944000000002,19.240626699150507,0.09298213520191334
6.611036000000002,19.271258729441122,0.09259646134946446
6.615171999999998,19.304250235656966,0.09221271849168028
6.619308,19.332312757898016,0.09185007106601532
6.623391999999999,19.35892443876438,0.0915023021792879
6.627483999999999,19.388227770255774,0.09114978515943978
6.631572000000002,19.42089851944735,0.09079515716493068
6.635659999999998,19.45737958593884,0.09042859754445566
6.639748000000001,19.49464714440541,0.09006316639025677
6.643835999999997,19.529223052246945,0.08970479724313803
6.647975999999996,19.560099367688498,0.08935781107992466
6.65212,19.59242652450473,0.08899771266399606
6.656215999999997,19.6248644062209,0.08863604344790683
6.660307999999997,19.652705478662078,0.08828686052606403
6.664447999999997,19.68323820172829,0.08793390679687627
6.668539999999997,19.7111899990694,0.0875852602469119
6.672628,19.73555292891047,0.08724474620363197
6.676728000000001,19.758121425001512,0.0869092624797487
6.680820000000001,19.783603021517457,0.08656501100182903
6.684915999999998,19.800788216358427,0.08624274840252029
6.689007999999998,19.818305585899203,0.08591344966708903
6.693104000000002,19.837838838989875,0.08557660841009085
6.697199999999999,19.855012616155314,0.0852388981571322
6.701291999999999,19.87173207604548,0.08489346226862891
6.705383999999999,19.890910319085275,0.0845318032417007
6.709484,19.906388969725093,0.08418015622610056
6.713579999999997,19.919286694639805,0.08383230572344691
6.717671999999997,19.93150865247938,0.08348268541831948
6.721768000000001,19.945746493868846,0.08312618330039051
6.725863999999998,19.9640161023581,0.0827552878808292
6.729963999999999,19.984523044197115,0.08237291143631244
6.734059999999996,20.0078323615611,0.08198502806891482
6.738156,20.032371070499906,0.08158990897818133
6.742248,20.059036387888533,0.08118499717429895
6.746343999999997,20.077405303602188,0.08079875579810163
6.750440000000001,20.09812227756554,0.08039929684673247
6.754535999999998,20.119957918203777,0.07999405641163249
6.758632000000002,20.13954480781672,0.07958494112517675
6.762727999999999,20.153748396179587,0.07918522999613156
6.766823999999996,20.17265951871738,0.07877449679656139
6.77092,20.194373016780148,0.07835789062746452
6.775015999999997,20.215521472667707,0.07793713928092058
6.779112000000001,20.23588343658019,0.07751582251303683
6.783207999999998,20.262858093317558,0.07707967987078326
6.787303999999995,20.285346665679874,0.07665099671814896
6.791399999999999,20.3064837038919,0.07621620157001135
6.795495999999996,20.324142599503816,0.07578435587619875
6.7995920000000005,20.341801495115728,0.0753537696805479
6.8036879999999975,20.352171930827613,0.0749353326336901
6.8077760000000005,20.357724107464634,0.07453044128965908
6.8118719999999975,20.361371125451697,0.07413068526000786
6.815968000000002,20.357618958638795,0.0737449510176275
6.820060000000002,20.352969574950883,0.07336089976331672
6.824155999999999,20.348430916162904,0.07297465425165947
6.828247999999999,20.350615675099746,0.07257154995202542
6.832343999999996,20.350341650886957,0.07218412448212351
6.83644,20.35197278532413,0.07179273445504016
6.840532,20.3561848454864,0.07140055456922673
6.844627999999997,20.364207222948586,0.07099998351822447
6.848719999999997,20.367522066235843,0.07060930538507705
6.852824000000002,20.374979401522825,0.07020548832169336
6.856916000000002,20.382215287009934,0.06980651937280374
6.861011999999999,20.391024156447198,0.06941000014371967
6.865107999999996,20.396809200559623,0.06902423468008542
6.869199999999996,20.40696960414717,0.06863620866934732
6.873299999999997,20.420608150334836,0.06824690710937158
6.877391999999997,20.44355103997242,0.0678433456202539
6.881483999999997,20.464478046060112,0.06744656759564269
6.885580000000001,20.49661455424768,0.06703183917961894
6.889675999999998,20.529980454010072,0.06661043508942427
6.893772000000002,20.564243570647477,0.06618901210425886
6.897864000000002,20.60590587208484,0.0657574664839236
6.901956000000002,20.64656023174726,0.06532984846913541
6.906051999999999,20.689906242034713,0.06490134817980626
6.910143999999999,20.732133585647283,0.06447969122805905
6.914235999999999,20.77738475458469,0.06405087385254143
6.918331999999996,20.824430357272128,0.06362275493906376
6.922416000000002,20.87427833548454,0.06319291174238091
6.926503999999998,20.92390486389707,0.0627689923855247
6.930595999999998,20.98025481003443,0.06233383574583869
6.934687999999998,21.031565047297057,0.06191486308679756
6.938771999999997,21.08219951748454,0.061493697565727014
6.94286,21.138881638321703,0.061059502274073356
6.946947999999996,21.19668242583375,0.060622828239059144
6.951032000000001,21.251115795645614,0.060185968027800366
6.955124000000001,21.304541223682534,0.059753270016289606
6.959211999999997,21.352472625569444,0.05932857585544434
6.9633,21.402641360806125,0.058896243392474644
6.967387999999996,21.448102561867874,0.058473170750572984
6.971484,21.49614468865472,0.05805218411258002
6.975576,21.545526931916324,0.05762451025997805
6.979663999999996,21.591320307677876,0.05720028864741917
6.983748000000002,21.641034725639283,0.05677024062604275
6.987832000000001,21.690970593400557,0.056338519036874354
6.991924000000001,21.740341418986624,0.055902940779595595
6.996008,21.787020593947656,0.05546996341348845
7.000103999999997,21.829324409433564,0.055038293601336476
7.004195999999997,21.863331823244497,0.05461442534121917
7.008292000000001,21.895655528205342,0.05419023394671895
