Time,Force,Position
7.673311999999999,0.14906276943472324,0.0
7.677408,0.15141082768442127,0.0
7.681504,0.16137952053395335,0.0
7.685599999999999,0.1773958640331656,0.0
7.689696,0.19509591638246662,0.0
7.693792,0.21750350290669646,0.0
7.697887999999999,0.2376737560811632,0.0
7.701983999999999,0.2543658666555175,0.0
7.706084000000001,0.27127942702974156,0.0
7.710176000000001,0.290995362928936,0.0
7.714271999999999,0.30667953172834367,0.0
7.718372,0.3270712347026801,0.0
7.722467999999999,0.3434311705772298,0.0
7.726559999999999,0.3557593393519928,0.0
7.730656,0.36920617480163725,0.0
7.734752,0.3805264018014535,0.0
7.738847999999999,0.3945382794263052,0.0
7.742944,0.404629114851305,0.0
7.747043999999999,0.41640365912639354,0.0
7.751139999999999,0.4315456211016597,0.0
7.755231999999999,0.4470197577767304,0.0
7.759332000000001,0.45767563537693734,0.0
7.763427999999999,0.4665370792271208,0.0
7.767519999999999,0.47125603107758246,0.0
7.771616,0.4713781736530502,0.0
7.775712,0.46477689850369563,0.0
7.779807999999999,0.4596264647290273,0.0
7.783908,0.45795417355447143,0.0
7.788,0.4570683743549923,0.0
7.792095999999999,0.44968060723056086,0.0
7.796192,0.43949046458115915,0.0
7.800291999999999,0.4284031050567455,0.0
7.804383999999999,0.4145133700073615,0.0
7.808479999999999,0.40005859278277034,0.0
7.81258,0.38761969910807254,0.0
7.816672,0.37529153033330953,0.0
7.820767999999999,0.3593744940584993,0.0
7.824864,0.3446868493585056,0.0
7.82896,0.32842622070835786,0.0
7.8331,0.3123870418580799,0.0
7.837192,0.297134354982879,0.0
7.841279999999999,0.284229726357376,0.0
7.845368000000001,0.26661756355694405,0.0
7.849463999999999,0.2503455172312636,0.0
7.85356,0.24057543883053556,0.0
7.857652,0.23562361950467126,0.0
7.861748,0.23156901705381874,0.0
7.86584,0.2259414306528124,0.0
7.869935999999999,0.21650352695188899,0.0
7.874032,0.2117731574258944,0.0
7.878124,0.21309043854958,0.0
7.88222,0.21339977789831893,0.0
7.886308,0.22144047674682676,0.0
7.890404,0.23195137642050034,0.0
7.894499999999999,0.23865195879425688,0.0
7.898595999999999,0.24613903314309038,0.0
7.902692,0.2574364247918409,0.0
7.906788000000001,0.2664964830908283,0.0
7.910880000000001,0.2761215835650229,0.0
7.914975999999999,0.28373080048932414,0.0
7.919072,0.289324133863732,0.0
7.923168,0.29537178451341217,0.0
7.927268,0.3019844773382996,0.0
7.931364,0.3063598368134238,0.0
7.935456,0.30703560388856593,0.0
7.939556,0.30659270428882646,0.0
7.943652,0.30312597936424684,0.0
7.947744,0.2994378046397975,0.0
7.951839999999999,0.2985520054403185,0.0
7.955931999999999,0.29565032269094615,0.0
7.960027999999999,0.29342440701671585,0.0
7.964128,0.29119849134248554,0.0
7.968228,0.2822491579434331,0.0
7.97232,0.27172684059422664,0.0
7.976419999999999,0.2629989569950439,0.0
7.980511999999999,0.25819211559571303,0.0
7.984608,0.24935350709659534,0.0
7.988655999999999,0.24623037454735322,0.0
7.992747999999999,0.24310724199811115,0.0
7.996836,0.24256503517396963,0.0
8.000924,0.24864693885024833,0.0
8.005004,0.2620287201020894,0.0
8.009088,0.28495912995478867,0.0
8.01318,0.3185682527587607,0.004992530821442
8.017268,0.36006513066456797,0.010592867728209509
8.021352,0.4175247155473169,0.016250219157309065
8.025444,0.4927528588325639,0.02213549953893875
8.029524,0.5912550043458477,0.028091255335642794
8.033616,0.710495897064199,0.03458779772263404
8.037704,0.8701492540400746,0.041406656874594036
8.041788,1.071245852399487,0.04844496484651198
8.04588,1.3279197123427553,0.05544627912262896
8.049968,1.636028341870158,0.06254996831416923
8.054056,2.0021730161310494,0.06955803937603441
8.058136,2.421291190899631,0.07649364909784988
8.062272,2.8834027556508373,0.08342721540386669
8.066364,3.394223186334545,0.09036401143712851
8.070492,3.9457996736511127,0.09733613280944552
8.074584,4.541388910400785,0.1043526207039194
8.078676,5.186817097433373,0.11135118065666219
8.082764,5.872203431448213,0.11836097273753984
8.086852,6.596860727694629,0.1253567935522168
8.090944,7.358639542371729,0.13233016979902565
8.095032,8.155058256978814,0.13428553121226522
8.099112,8.982738036140173,0.13562465411896021
8.1032,9.831355176955404,0.13690410560857968
8.107336,10.69764156894873,0.13796238128201582
8.111416,11.570697049369011,0.13896080853546294
8.115504,12.449987377212244,0.13937272633641865
8.119636,13.30188059432339,0.13941879284341657
8.123728,14.114002861225554,0.13920969512797066
8.127812,14.864366655643185,0.13904661133717927
8.131904,15.566075220650584,0.13874509787566713
8.135988,16.20559383124924,0.1385527690856342
8.14008,16.792039634115802,0.13845154604593193
8.144168,17.33405262330059,0.13836412282818766
8.148296,17.83465662412844,0.13826832085558555
8.152384,18.295523927773903,0.13812856738604337
8.156508,18.717086016161193,0.13791862809448832
8.160596,19.08622822854047,0.13773295790665915
8.164672,19.413274267812128,0.13752305337046786
8.168759999999999,19.69374946727665,0.13733203912586023
8.172844,19.934732254709726,0.13714776940176981
8.176931999999999,20.13376384696172,0.1369911122466426
8.181016,20.297124762157715,0.13683007762519603
8.185108,20.42459355049785,0.1366679028576213
8.189192,20.518751137707213,0.1364941130184724
8.19328,20.586897401361377,0.1362910921989982
8.197327999999999,20.629188737062396,0.13612145107113355
8.201476,20.659804835712734,0.1359881001583786
8.205504,20.68538122548833,0.13588695758171404
8.2096,20.7185896675393,0.13576100603870067
8.213683999999999,20.748564252141097,0.1356750399527889
8.21772,20.78414358779283,0.13556102183409602
8.2218,20.817905654343473,0.13542260241831508
8.225883999999999,20.84849891764275,0.13525809914612538
8.229916,20.872113060390728,0.135088095952127
8.234,20.889645299462433,0.13490877039641003
8.238088,20.89751818503335,0.134750773987736
8.242168,20.902344409928347,0.13457947103023687
8.246248,20.898851397797305,0.13441542424391376
8.25022,20.89231172499036,0.1342381089008678
8.254304,20.874650439632404,0.13408179327261416
8.258384,20.857077043823317,0.1338912614599512
8.262471999999999,20.836567712238264,0.13368523470356664
8.266556,20.810995836427402,0.1334780956013022
8.270648,20.784626050965933,0.13325605109160021
8.274676,20.75308299637873,0.13303523976334622
8.278756,20.718271831315754,0.13280565424002147
8.28284,20.68053614815234,0.1325757131160041
8.286932,20.64088388866343,0.13233915613470915
8.291024,20.59841783597402,0.1320995748037837
8.295119999999999,20.55594036560908,0.13184334012563736
8.299216,20.50908753576901,0.13160245747576982
8.303312,20.462566880628746,0.1313533384389041
8.307404,20.413133125063577,0.1311193691823659
8.3115,20.36560452814837,0.1308746273603457
8.3156,20.31640364005861,0.13064994154794837
8.319692,20.27012727006928,0.13042450738925518
8.323788,20.22666469328046,0.13020078702442092
8.327884,20.189604777192184,0.12996404545118545
8.33198,20.155358654304415,0.12972924186075094
8.336076,20.128633858792078,0.12947294104452842
8.340164,20.098896655630433,0.12925096399234434
8.344256,20.063233944394575,0.1290792125149654
8.348348,20.03296595208432,0.12890112113296867
8.352435999999999,20.002709377449598,0.12873887672512677
8.356524,19.973815754640697,0.12859513456959154
8.360616,19.946617258357414,0.12846239944707194
8.364704,19.922564729974436,0.1283246390534562
8.368788,19.904128370316936,0.1281760631558985
8.372868,19.88727641228512,0.12804127483217154
8.376952,19.875032681203834,0.12790199717308973
8.38104,19.869855960222708,0.12773617966668369
8.385128,19.870627582666856,0.1275528704367447
8.389212,19.877568998336155,0.1273469208197967
8.393296,19.885529773455932,0.1271515236715672
8.397383999999999,19.89999251650066,0.12692647930731651
8.401472,19.916360418195353,0.12669195394257124
8.405555999999999,19.936538637189955,0.12643876940147575
8.40964,19.95301726378458,0.1262022594053291
8.413724,19.971733223728965,0.12594923892681523
8.417807999999999,19.987081765973173,0.12570537899430342
8.421896,20.004889091367016,0.1254397417815625
8.425988,20.030870675860363,0.12512362984926756
8.43008,20.057516609753325,0.12479363838435684
8.434172,20.08662132679592,0.1244425319377992
8.43826,20.117619784812938,0.12406615852796007
8.442347999999999,20.14895041752977,0.12368303176597416
8.446439999999999,20.179494558271514,0.12330128517495026
8.450531999999999,20.205884789338004,0.12293000435998312
8.454623999999999,20.23193142802916,0.12255007832409974
8.45872,20.259318183195063,0.12215868869957192
8.462816,20.282108129085977,0.12178726581811455
8.466911999999999,20.296380223502045,0.12145585447717733
8.471008,20.308747159268147,0.12113422697360507
8.475104,20.317746677334075,0.12082086989559186
8.479204,20.322825153200156,0.12052855753464352
8.483296,20.329476613016386,0.12023506731166347
8.487392,20.33400146438279,0.1199558774298377
8.491488,20.34290167522432,0.11966298064464216
8.495584,20.35124826156617,0.11938274121214035
8.499676,20.36464597445829,0.11909079229162749
8.503772,20.37558490420078,0.11881973356438147
8.507856,20.385859484543655,0.1185639800128548
8.511956,20.39345383193703,0.1183340197866217
8.516052,20.400383829930796,0.1181189198627697
8.520147999999999,20.409230404250053,0.11791177430362682
8.524244,20.419428512719602,0.11770839593343106
8.52834,20.432318271814182,0.11749615635240755
8.532436,20.44835399880906,0.11728141918680812
8.536532,20.466859926629112,0.11706275394526267
8.540628,20.482342029124325,0.11686106858629615
8.544724,20.500626507144506,0.1166481710694709
8.54882,20.52753956153947,0.11639662466813576
8.552916,20.555460557709377,0.11614036172509772
8.557012,20.588986304929232,0.11586205744638875
8.561107999999999,20.624638660598908,0.11557134066343716
8.565199999999999,20.659050207018232,0.11527585677448755
8.569284,20.69580981168726,0.11496386868961164
8.573364,20.733344490655828,0.11463715183459725
8.577452,20.771432794124067,0.11429982577255526
8.581536,20.80626440479207,0.11396804332539708
8.585628,20.843665523509642,0.11361451702605577
8.589712,20.878031399226835,0.11326142360442895
8.593804,20.91888782519345,0.11286973586971909
8.597888,20.959400658784727,0.11247025025285186
8.60198,20.994862365825735,0.11208121047213304
8.606072,21.02628088809143,0.11169725807927039
8.61016,21.05803158505693,0.11130805500998589
8.614256,21.089660139446963,0.11090688680085653
8.618344,21.119715709886837,0.11050767461384388
8.622436,21.148984788351637,0.1101092678158663
8.626524,21.179372533491318,0.10970497400833211
8.630616,21.208752336856048,0.10930787627313487
8.634696,21.239361531795595,0.10890276094889512
8.638776,21.266381859235096,0.10850926003411658
8.642864,21.290710536049563,0.10812404121742383
8.646956,21.31762013858913,0.10773470186560477
8.65104,21.34139519090392,0.10736286758311189
8.655132,21.364616618719044,0.10700368342013448
8.659224,21.387051554559083,0.10664568447526147
8.663316,21.41441547437392,0.1062676689010097
8.667404,21.44357382793879,0.10588596977941402
8.671488,21.478447657453525,0.10548434956344782
8.675576,21.50570085236843,0.10511227566297661
8.679663999999999,21.5351913806331,0.10472794922126759
8.683752,21.569832342672434,0.10431930452791517
8.687832,21.610631680261378,0.10388240211043565
8.691912,21.649636584100307,0.10345175381143337
8.695988,21.687854995964162,0.10302273984487222
8.700072,21.725729815452674,0.10258607609604933
8.704156,21.763371767465785,0.10213908012586904
8.708236,21.7987649684536,0.10169161397839416
8.71232,21.83022570956603,0.10124583216144273
8.7164,21.85742181610327,0.10080766951201428
8.72048,21.88718743069008,0.10035108061112989
8.724556,21.920309045301533,0.09987589712743514
8.728644,21.949387475137666,0.09940426960897199
8.732732,21.98125686282324,0.09891010280036654
8.73682,22.011098949283383,0.09841071645442356
8.740912,22.041051760643466,0.09791022950516994
8.745,22.06428115427872,0.09743400217561142
8.749084,22.086945505738772,0.09695509179995439
8.75318,22.105013047923826,0.09649002997310413
8.757268,22.12520719855871,0.09601447030831425
8.76136,22.143164015843826,0.09555260386071827
8.76544,22.158097007804113,0.09510399773801333
8.769528,22.167547391289915,0.09468488683852636
8.773603999999999,22.17509261612577,0.09427189496619104
8.777683999999999,22.179392565836913,0.09387508992415775
8.781768,22.183028166148443,0.09349092699786343
8.785843999999999,22.19081767613523,0.0931042015391779
8.789924,22.200069445172232,0.0927205347296956
8.794008,22.20787037283455,0.09234884873460192
8.798088,22.218927993297108,0.09197619442576961
8.802168,22.228424047485046,0.09161860264484269
8.806248,22.239382360723205,0.0912648320390977
8.810331999999999,22.250684266336698,0.09091967175387834
8.814411999999999,22.25851944702562,0.09059466589812468
8.818496,22.265125236139717,0.09027766801311196
8.822583999999999,22.27173102525382,0.08996110688145267
8.826675999999999,22.283597973042525,0.08962193583234027
8.830767999999999,22.289638719981415,0.08930115407592384
8.834859999999999,22.29679813359519,0.08897493276661876
8.838948,22.305186938783784,0.0886413025392543
8.843032,22.31301070179716,0.08830351684152293
8.84712,22.323182523060243,0.08795284329698393
8.8512,22.334350868422735,0.08758375764385368
8.855288,22.348088721834802,0.08719758408457096
8.859372,22.368317125496286,0.08678233888896789
8.863456,22.390439270132195,0.08634793263895696
8.867544,22.407621013117772,0.0859156087094788
8.871632,22.423451221953066,0.08547907174510525
8.875724,22.442637430813,0.08502607251772323
8.879816,22.461701497097472,0.08456159115220499
8.883916,22.47941402923166,0.08409242562001892
8.888004,22.4938698685656,0.08362434532585286
8.892092,22.50809284042414,0.08314582867071765
8.896188,22.524774595432316,0.08265280406306376
8.900276,22.540780583365347,0.08215693793269657
8.904372,22.55622152912317,0.08165715744959652
8.90846,22.56561482423131,0.08117799527353438
8.912544,22.578818436639374,0.08068878160622407
8.916628,22.588887498822658,0.08021169540932153
8.92072,22.600308095156226,0.07974100070228618
8.924808,22.611617966589865,0.0792725989444939
8.928892,22.619461113098918,0.07882245023311002
8.932984,22.629331560833407,0.07838078513024313
8.937068,22.63820548446847,0.07795751600954028
8.94116,22.640478132954183,0.077563958221479
8.945243999999999,22.64399159069024,0.07717862051194586
8.949332,22.651437508301694,0.07679737246020883
8.95342,22.659227018288473,0.0764250910068634
8.957504,22.667470845550532,0.07606014552120346
8.961587999999999,22.67314516476302,0.07571141471031843
8.965676,22.68117895990074,0.07536543853397046
8.969764,22.688437680738918,0.07503323635016843
8.973848,22.697047935727376,0.07470681451237438
8.977936,22.70622323289104,0.07438578259447695
8.982024,22.719773889529836,0.07406170516991706
8.986115999999999,22.730976487918927,0.0737494326567978
8.990207999999999,22.74912395383271,0.07341874006300515
8.994296,22.770073795271465,0.07308385909283104
8.998384,22.793039520260116,0.07274315783091884
9.002472,22.81274855244852,0.07240141800610041
9.006568,22.834362743286885,0.07205650591253694
9.01066,22.86112736789992,0.07169616555839904
9.014752,22.88934283388764,0.07132664429694735
9.018852,22.918333374174907,0.0709445896891744
9.022944,22.949893422511735,0.0705474637651037
9.027044,22.979659037098546,0.07015337507430695
9.031136,23.006278683785045,0.06975611404445478
9.035232,23.032333288296343,0.06935466316924686
9.039332,23.057822850632423,0.06894942455410369
9.043428,23.086114788493482,0.06854030212387587
9.04752,23.1140631339792,0.06812375601893957
9.051616,23.14379449553941,0.06769207522117418
9.055712,23.175652465549447,0.0672544959038496
9.059808,23.204929509834386,0.06681817043068478
9.063904,23.23173635329416,0.06638154293521752
9.068,23.26436939760374,0.06593387149636364
9.072096,23.290954791263644,0.06550272963762048
9.076196,23.315745751173527,0.06507426671259961
9.080288,23.343560536408244,0.06463929071431851
9.084384,23.372948305593116,0.06420723938710914
9.088484,23.399533699253016,0.06377974936733402
9.09258,23.421300833838053,0.06336209010141856
9.096672,23.435336608923325,0.06295872783846304
9.100772,23.448142992433773,0.0625620026747361
9.104864,23.463641026569263,0.06216434726813147
9.108964,23.478352568729676,0.06176593768228089
9.11306,23.496542253490198,0.06136779976558055
9.117152,23.514731938250723,0.06097007225921163
9.121248,23.53370811498632,0.060574538442197734
9.125348,23.553127191321664,0.06017281535906485
9.12944,23.572779135132407,0.05978231260795284
9.133536,23.59288539621842,0.05939947503156905
9.137636,23.61176226572962,0.05902362257974562
9.141728,23.63512521961588,0.058646377522218664
9.145824,23.659950432552357,0.058274359224456986
9.14992,23.681076053088855,0.05790690425514262
9.154016,23.709035816250104,0.057528590140887494
9.158112,23.739687230036388,0.05715040053646685
9.162204,23.76630687672289,0.05678164793423827
9.1663,23.79572889893436,0.0564112631105281
9.170396,23.829858455320757,0.056036651151828376
9.174496,23.863766561907287,0.05566573397522043
9.178592,23.909105620393568,0.05528141890129429
9.182688,23.955452620654796,0.05489596817095024
9.186784,23.99978373736613,0.05451601895917475
9.19088,24.04109102875262,0.05414234703724174
9.194976,24.076682844189243,0.05377609990897341
9.199072,24.110148051176033,0.053415835591558526
9.203164,24.137897782212953,0.05306246003119155
9.207264,24.161505021250143,0.05271918363605536
9.211364,24.17793452528724,0.05237736810499589
9.215456,24.187862061399393,0.052040307818991376
9.219552,24.193303513136478,0.05170422999306771
9.223648,24.190116388498787,0.05137841770054174
9.227744,24.18042729593614,0.05105685937138326
9.231844,24.168500870023728,0.05074223673479559
9.23594,24.144700592611827,0.05044639370999729
9.240032,24.11327968060009,0.050158287885539984
9.244132,24.078613493463646,0.04987839188318585
9.248224,24.030389745977622,0.049614837234975236
9.252324,23.968497713242087,0.049369156634647554
9.256416,23.900779479656737,0.04912976445412166
9.260512,23.81906078612207,0.048913637577644206
9.264604,23.729954325462973,0.04871447203218724
9.2687,23.632673605704365,0.04853052251019002
9.2728,23.531028944146165,0.04835782331991845
9.2769,23.426925499438337,0.048194557527365074
9.280992,23.318568837830856,0.048040862024061985
9.285088,23.207531943273867,0.04790025621174031
9.289184,23.090225948267328,0.047773005338880264
9.293276,22.97382858781133,0.04765881353502317
9.297372,22.8546402695059,0.04755977042469112
