Time,Force,Position
4.8529160000000005,0.19144360227653126,0.0
4.856956,0.19132145970106348,0.0
4.861048,0.19400169265056613,0.0
4.86514,0.19679265050000358,0.0
4.869228,0.20529908429931662,0.0
4.873263999999999,0.21078169277378955,0.0
4.877307999999999,0.2219797771981381,0.0
4.881404,0.23138342787246294,0.0
4.885491999999999,0.24291368699661608,0.0
4.889588,0.255341162995781,0.0
4.893688000000001,0.2650769883699105,0.0
4.897776,0.27301837999401635,0.0
4.901872000000001,0.28084904671818733,0.0
4.905968000000001,0.2840829041673643,0.0
4.910064000000002,0.2845143860915709,0.0
4.914159999999999,0.2859538097907242,0.0
4.918256,0.289409117039771,0.0
4.922348,0.2897298740640427,0.0
4.926444,0.2920665146382078,0.0
4.930540000000001,0.2961975889623967,0.0
4.934636000000001,0.2993207215116388,0.0
4.938732000000002,0.3011037375861296,0.0
4.942824000000002,0.2992978861605731,0.0
4.946919999999999,0.29547615118512316,0.0
4.951015999999999,0.288852040684703,0.0
4.955112,0.28704618925914643,0.0
4.959211999999997,0.2843431209585781,0.0
4.963303999999997,0.2806321108830631,0.0
4.967395999999997,0.27277860880782645,0.0
4.971484,0.26593304850753646,0.0
4.97552,0.25886603840737676,0.0
4.9796080000000025,0.2562851126822762,0.0
4.9837000000000025,0.25157757850734735,0.0
4.987787999999998,0.2524747953823592,0.0
4.991884000000002,0.25987398018232344,0.0
4.995971999999998,0.2643600645573826,0.0
5.000063999999998,0.2694111911076489,0.0
5.004152000000001,0.27647820120780864,0.0
5.008244000000001,0.2804106610831934,0.0
5.012336000000001,0.2861375547086018,0.0
5.016428000000001,0.29074578165912857,0.0
5.020523999999998,0.29456751663457853,0.0
5.024623999999999,0.2981678018101586,0.0
5.028707999999998,0.3025545789608157,0.0
5.032799999999998,0.30840361516169185,0.0
5.036888000000001,0.3110073762378581,0.0
5.040975999999997,0.31126307906432643,0.0
5.045060000000003,0.31298104094101376,0.0
5.049144000000002,0.3182878703177483,0.0
5.053224000000004,0.3205708743696429,0.0
5.057312,0.3255455290465729,0.0
5.061404,0.3249154326735623,0.0
5.0654920000000025,0.3261904949505101,0.0
5.0695840000000025,0.3263468905525764,0.0
5.07368,0.3226929688547257,0.0
5.077760000000001,0.32374658133180384,0.0
5.081847999999997,0.32602958538369836,0.0
5.085936,0.32798041473578826,0.0
5.090019999999999,0.33474950316274193,0.0
5.094108000000002,0.3423050835647725,0.0
5.098195999999998,0.34907417199172613,0.0
5.102280000000004,0.3556218106188101,0.0
5.106359999999999,0.3690035918706511,0.0
5.110448000000002,0.3881008490723677,0.0
5.1145320000000005,0.4065223391989422,0.0
5.118615999999999,0.42527600402532134,0.0
5.122699999999998,0.44267813470141626,0.0
5.126783999999997,0.46321481560228617,0.0
5.130868000000003,0.4828542796281443,0.0
5.134944000000001,0.50888498667902,0.004243671132751432
5.139019999999999,0.5336863021550793,0.00866465661999136
5.143108000000002,0.562641527306393,0.013265913305195047
5.147188000000003,0.5939562283829377,0.017892038875238603
5.151280000000003,0.6283061724598553,0.02259127944448918
5.155364000000002,0.665580634637211,0.02743854195393384
5.159451999999998,0.7075740486650283,0.03221928017818503
5.163543999999998,0.7501439225435856,0.03723592668969625
5.167627999999997,0.7955275896226462,0.04239389525148286
5.171712000000003,0.837566674352595,0.04794511011449911
5.175799999999999,0.8774905683082485,0.053848084775295554
5.179880000000001,0.9243821651396594,0.05977094680525911
5.183960000000003,0.9801466234967869,0.06559059992641743
5.188044000000001,1.0363882344802522,0.07160327936460684
5.192128,1.0926526808147832,0.07776971656210521
5.196264000000003,1.1523073802005575,0.08415391284854802
5.200340000000001,1.2209570836875157,0.09050518395503648
5.2044200000000025,1.3008505423009538,0.09691767695246933
5.208499999999997,1.3807782539409903,0.10360678919552699
5.212584000000003,1.466344969657566,0.11047500805736106
5.216663999999998,1.5543054143259716,0.11330825198595808
5.220744,1.650153614096212,0.116125702290225
5.224827999999999,1.759948637293501,0.11872059417513413
5.228911999999998,1.8784407429187675,0.12152869277574714
5.232991999999999,2.0149456920974678,0.12426321345353145
5.237075999999998,2.1682455109303183,0.12702398583274985
5.241159999999997,2.340932542817952,0.12991951111843972
5.245248,2.54243327378576,0.13258577677049527
5.249336000000003,2.772194079334067,0.13513558989953425
5.253428000000003,3.03593043541275,0.13727627737517206
5.257524,3.3353260508718963,0.13902615943298952
5.261619999999997,3.6632031907114118,0.14074119261729723
5.265711999999997,4.013059887006344,0.14260307225358082
5.269808000000001,4.391275965106178,0.14426151606280707
5.273895999999997,4.800543075635951,0.14572756388001715
5.277992000000001,5.240517626220322,0.14694131531723684
5.282079999999997,5.703689707159394,0.14818709967210417
5.286164000000003,6.192739551402669,0.1493376996519784
5.290251999999999,6.712706867824879,0.15017313717839503
5.294332000000001,7.258319080075891,0.15081561015193526
5.298424000000001,7.827659611830214,0.1512387486192227
5.302512000000004,8.42340869603735,0.15144401619136033
5.3066,9.031985936996652,0.151674120671038
5.3106880000000025,9.658396790556257,0.1516003816883615
5.3147800000000025,10.279855824789996,0.15152919116382238
5.3188720000000025,10.898123220421295,0.15125866838993943
5.3229640000000025,11.503528206273828,0.15089133529072662
5.3270560000000025,12.084384127621377,0.15050692882941347
5.331143999999998,12.639671625013463,0.15008342919411036
5.335240000000002,13.167252672324722,0.14964966424992845
5.339335999999999,13.662419735380226,0.14925049152209388
5.343432000000004,14.126967247930002,0.14885886266728085
5.3475280000000005,14.568626569473814,0.1483872132122203
5.3516239999999975,14.982247266237001,0.1479089294016518
5.355723999999999,15.362678904444886,0.14747896286644793
5.359820000000003,15.713399626697585,0.14707546095244287
5.363912000000003,16.03900624227009,0.14665515677281155
5.368008,16.336142751137764,0.14626195297137287
5.372096000000003,16.60548492037574,0.1458957538377351
5.376192,16.848151416658908,0.14553581954666991
5.380284,17.07042275811234,0.14514726156179814
5.384372000000003,17.262219526986573,0.14481525084202
5.388468,17.434762643057027,0.14447802311480007
5.392568000000001,17.582580915524755,0.14420782446900413
5.396663999999998,17.72048413166522,0.1439223458447255
5.400760000000002,17.8517404019542,0.14363295838820828
5.404852000000002,17.974013085817532,0.14337798781893685
5.408947999999999,18.098523103030622,0.14310679565259657
5.413039999999999,18.22202517846877,0.14284607697384985
5.417136000000003,18.34239270368214,0.142613732577421
5.421235999999997,18.464554662645536,0.14237428678880418
5.425328000000004,18.587170938884206,0.1421428648053327
5.429427999999998,18.710462982198017,0.1419187107289799
5.433524000000002,18.832182041561673,0.1417010756007071
5.437619999999999,18.95624915917503,0.14146175391582294
5.441711999999999,19.07918619243797,0.14121762206545507
5.445803999999999,19.196507056975438,0.14099062680225485
5.449900000000003,19.310449086137194,0.1407608035642628
5.453992000000003,19.421909496798257,0.14052480024538058
5.458088,19.534477156458664,0.1402658430049931
5.46218,19.64042070561865,0.1400327715428012
5.466275999999997,19.743882636277934,0.1397916075203006
5.470375999999998,19.839811821886254,0.13956173627799892
5.474467999999998,19.932694346818668,0.13932029220642933
5.478564000000002,20.018941343575133,0.1390846272843727
5.482651999999998,20.0955289868308,0.1388754590983573
5.486735999999997,20.170188636085445,0.13864527624099385
5.490824,20.237880582464335,0.1384290798333465
5.494916,20.304652476617147,0.13818657138127846
5.499004000000003,20.371855852694168,0.13791931191496112
5.503096000000003,20.436688335170423,0.1376425853798696
5.507180000000002,20.49937137384578,0.13735050223225762
5.511267999999998,20.552738651395686,0.13709127250266814
5.515364000000002,20.6067702783452,0.136819127063933
5.519456000000002,20.658098836994142,0.1365443910959579
5.523548000000002,20.71098896191771,0.13625338758622907
5.5276359999999976,20.765329928215966,0.135947296464995
5.5317240000000005,20.819327302138873,0.13563419409653346
5.5358160000000005,20.86558189888649,0.13534848578569192
5.539904000000004,20.904769485533944,0.1350921843636534
5.543996000000004,20.939913887406078,0.13484573776654898
5.5480920000000005,20.975390463978016,0.1345928457379568
5.5521800000000034,21.008851157000063,0.1343525519572411
5.556264000000002,21.04196825764677,0.13410474490827062
5.560356000000002,21.077887733818446,0.13384419448397217
5.564440000000001,21.114139384689928,0.13357667539416349
5.568527999999997,21.14870732671132,0.1333149042477717
5.572616,21.181813009682497,0.13305401451493648
5.576708,21.20931394160373,0.1328208092349779
5.580803999999997,21.23266096384971,0.13259950384275954
5.584900000000001,21.251632626620566,0.13239446344518954
5.588992000000001,21.267347596591176,0.1321970446628867
5.593087999999998,21.280924540436427,0.13199814564559254
5.597184000000002,21.2859722151313,0.1318261221224546
5.601279999999999,21.286976705050858,0.1316626739483002
5.605376000000003,21.275641608520115,0.1315449195614142
5.609468000000003,21.25846889346403,0.13144274508712928
5.613564,21.237928760707767,0.1313500202571279
5.617652000000003,21.22253906172617,0.13122482835656757
5.621748,21.207813712144183,0.13108514566348345
5.62584,21.189720944862017,0.130954757787253
5.629935999999997,21.16780644260441,0.13082772810161966
5.634024,21.14487258089631,0.1306908689667844
5.638119999999997,21.11734190991322,0.13057402057322803
5.642211999999997,21.08543587945501,0.13047237027700856
5.646303999999997,21.052964806821592,0.13036677247156145
5.650395999999997,21.01981796711303,0.1302596368176563
5.654495999999998,20.984090201679372,0.1301604072707612
5.658592000000002,20.948251711345776,0.13006339386120844
5.662687999999999,20.913088988087324,0.12996729150162892
5.666779999999999,20.879499248779027,0.12986866863645474
5.67088,20.84949837697077,0.1297555866622237
5.674975999999997,20.823983589537576,0.12962466627753444
5.679067999999997,20.805535812204543,0.12946782466374845
5.683164000000001,20.790234002771818,0.129306343654693
5.6872640000000025,20.787603954489192,0.12909340112346995
5.69136,20.790135757656767,0.12886422597857128
5.695456000000004,20.7971536451994,0.12861798502730443
5.699552000000001,20.80272069136735,0.1283874473159388
5.703644000000001,20.81042576366066,0.12815879051781567
5.707739999999998,20.824189904279184,0.1279106656070045
5.711836000000002,20.84166505497322,0.1276622274614907
5.715936000000003,20.861167506892684,0.12741770798774033
5.720028000000003,20.88583181026235,0.12715742369180028
5.724124,20.915879414882085,0.12687742964179616
5.728224000000001,20.952096812726968,0.1265776370366803
5.732316000000001,20.989887194522005,0.12627640341049287
5.736411999999998,21.03384736954219,0.12595490599095496
5.740511999999999,21.081617861862288,0.12561585403661082
5.744603999999999,21.13219072970736,0.12526577452370175
5.748700000000003,21.185898147777213,0.12489782210078573
5.752796,21.237478957397233,0.12454465679263552
5.756891999999997,21.28905976701725,0.12419270083158056
5.761036000000001,21.336830259337354,0.12385948705688787
5.765124000000004,21.38683808500722,0.12351205213943184
5.769216000000004,21.42854950900211,0.1231995582833561
5.773308000000004,21.469363716121986,0.122891329836411
5.777452,21.503343780617108,0.1226172128265775
5.781535999999999,21.53844251178711,0.12233587301088704
5.785624000000002,21.57118176703188,0.1220577434298108
5.789711999999998,21.60346670500138,0.12177454296398782
5.793792,21.634178659020726,0.12149363697471119
5.797884,21.66993032191481,0.12118697283400384
5.801976,21.704330450658603,0.12087824974100596
5.806068,21.73424449502734,0.12058594747999081
5.81016,21.75754584657119,0.12032304116539534
5.814252,21.779052764365016,0.12006651827987004
5.818344,21.79674936485892,0.11982743347617475
5.822427999999999,21.816351124002786,0.1195811791105826
5.826524000000003,21.831134624071787,0.11935695500717967
5.83062,21.843902240590896,0.11914390755351302
5.834716000000004,21.860923074009662,0.11890638875922806
5.838815999999998,21.876825240753544,0.11867662056651415
5.842912000000002,21.89384607417231,0.11843957134891606
5.847004000000002,21.908740299141247,0.11821580154696174
5.851099999999999,21.927444841410104,0.11797604137740852
5.855191999999999,21.946481558378757,0.11773020108970225
5.859292,21.975154793497147,0.11744288883299464
5.863384,22.003041536640453,0.11715684524896981
5.867484000000001,22.03149332195897,0.11687482599128053
5.871584000000002,22.061407366327703,0.11659485012159451
5.875676000000002,22.090424193821427,0.11631789341938624
5.879776000000003,22.113725545365277,0.11606539478823032
5.883868000000003,22.139386372834355,0.11581192523310045
5.887964,22.16695235895339,0.11555114319414506
5.892059999999997,22.19462906997236,0.11528817066993577
5.896156000000001,22.228918473816222,0.11500057339554928
5.900251999999998,22.261634893709928,0.11471415589223216
5.904351999999999,22.28773862077875,0.11445396649870666
5.908443999999999,22.31719834787221,0.11417277390546283
5.9125440000000005,22.345760858090664,0.11389486806895908
5.9166360000000005,22.371078093184405,0.1136371396651267
5.9207360000000016,22.398521936727974,0.11336817287097033
5.9248280000000015,22.427870938921497,0.11309244990054101
5.928923999999999,22.454639015389926,0.11282274773664679
5.933020000000003,22.4849959593584,0.11254384782320194
5.937116,22.516139395301952,0.11226548342787751
5.941216000000001,22.5417888050955,0.11200618373822777
5.945308000000001,22.567327489989115,0.11174942669308978
5.949403999999998,22.596897941982515,0.11147483087370538
5.953500000000002,22.625227584725565,0.11119578442668172
5.957600000000003,22.659715603018228,0.11088802943814831
5.961696,22.694535796010697,0.11057412483263002
5.965788,22.726885788178,0.11026442491955625
5.969883999999997,22.757330621695345,0.1099622845576631
5.973983999999998,22.789004846787503,0.10965167177638438
5.978075999999998,22.81439855375458,0.10935957922677472
5.982172000000002,22.845507736671536,0.10904739271740846
5.986267999999999,22.882664570238163,0.10870865337399978
5.990368,22.919710678904863,0.1083731000295345
5.99446,22.956978237371427,0.10803397376870331
5.998560000000001,22.99267281188785,0.10769594514647864
6.002652000000001,23.026905127354045,0.10735747406500815
6.006752000000002,23.061358892620106,0.10701618536333539
6.010844000000002,23.10174958363592,0.10665164282216665
6.014939999999999,23.13496253965164,0.10630660372192206
6.019036000000003,23.165373120142384,0.10597119748096051
6.023132,23.19690236730801,0.10563015710466488
6.0272320000000015,23.233139148648565,0.10527503424310349
6.0313240000000015,23.266795004264022,0.10492619184908483
6.035419999999999,23.300229410079606,0.10458249484153564
6.0395160000000025,23.326829673270435,0.10426565165096582
6.043612,23.356232311986236,0.1039409314890481
6.047712000000001,23.38854805112694,0.1036066761688402
6.051804000000001,23.421982456942526,0.10326658145681515
6.055904000000002,23.45642480453306,0.10292315419883977
6.059996000000002,23.490867152123595,0.10258004311629515
6.064096000000003,23.52172063221408,0.1022467912523442
6.068188000000003,23.548874519904587,0.10192497266771992
6.072284,23.576249857394963,0.10160005879116421
6.076380000000004,23.604743861560216,0.10126984672763706
6.080476000000001,23.63345931552534,0.10093589767795122
6.084571999999998,23.66385847834055,0.10060083549038797
6.088668000000002,23.69268465720561,0.10026689942882064
6.092763999999999,23.71747906897088,0.09995013377278862
6.096860000000003,23.74619452293601,0.09961970744267898
6.100956,23.774455659625858,0.09928346142570804
6.105051999999997,23.801819579440696,0.09894996632651522
6.109148000000001,23.827045473130177,0.09861424855690078
6.113243999999998,23.85148487484458,0.09827926559420319
6.117343999999999,23.875027059683973,0.09794684404813943
6.121440000000003,23.902601011623144,0.09759954289463874
6.125532000000003,23.932190847112214,0.09724619051158624
6.129631999999997,23.959310481776114,0.09689573505304677
6.133728000000001,23.988556724889847,0.09653672913710827
6.137823999999998,24.01824586760332,0.09617111190223862
6.141915999999998,24.049275126791542,0.09579653806748066
6.1460120000000025,24.0778341851546,0.0954237899065564
6.150112000000004,24.110425010617444,0.0950373265745526
6.154204000000004,24.142118619205277,0.094653586620241
6.1583000000000006,24.173025735818033,0.09427066260931101
6.162400000000002,24.20527296890554,0.09387902691971554
6.166492000000002,24.237065884717772,0.09348285663594587
6.170587999999999,24.26997746720489,0.09308229687760855
6.174684000000003,24.304672065766496,0.09266592428649055
6.178784000000004,24.33779368037795,0.09225002294431979
6.182880000000001,24.377749437614163,0.09181469470188694
6.186972000000001,24.422069136649963,0.0913615994409895
6.191067999999998,24.460784084635826,0.09092274809229037
6.195164000000002,24.498036773571467,0.09048213309919445
6.199259999999999,24.53595381190672,0.0900312491592156
6.203356000000003,24.572187141391883,0.08958304131642955
6.207452,24.604377286101727,0.08913680776860533
6.211547999999997,24.63689960551137,0.08868602308718608
6.215647999999998,24.6708727662957,0.08822652394838967
6.219739999999998,24.705632419055114,0.08776900570553163
6.223836000000002,24.74218650556455,0.08730995151403323
6.227936000000003,24.781542967598952,0.0868451412714401
6.232028000000003,24.818207779008322,0.08638639399602294
6.236127999999997,24.857331373567327,0.08591537704759095
6.240224000000001,24.896565693026258,0.08544357997110288
6.244316000000001,24.936586504460273,0.0849735549912997
6.248416000000002,24.972796998594376,0.08451334344594283
6.252511999999999,25.005983667403633,0.08406342192791565
6.256603999999999,25.034130627338147,0.08362971729819924
6.260700000000004,25.06519068769758,0.08318956471835096
6.2647960000000005,25.08941660543225,0.08276899764626464
6.268896000000002,25.106586930742296,0.08237096483767259
6.272991999999999,25.129251282202347,0.08196385389857073
6.277083999999999,25.155393776262507,0.08155430915042017
6.281180000000003,25.182433487197684,0.08114464270769467
6.285276,25.208354531457978,0.08074035059063446
6.289376000000001,25.231706067668703,0.08035109392063222
6.293468000000001,25.255622646054636,0.07996690546850457
6.297563999999998,25.27416734086603,0.07960368854975461
6.301663999999999,25.290696152127527,0.07924718827197177
6.305760000000003,25.305319804739067,0.07889558171902732
6.309852000000003,25.323532324850657,0.07854055469486575
6.313948,25.33939678671255,0.07819681561092151
6.318043999999997,25.353699682299816,0.07786569439103529
6.322140000000001,25.36800257788709,0.07753510723617596
6.326235999999998,25.38320269034937,0.07720435419200435
6.330332000000002,25.402888887186712,0.07686870797916875
6.334427999999999,25.42929850174888,0.07651985131330571
6.338524000000003,25.461202142461044,0.07616346105813908
6.34262,25.489074016073427,0.07581886168562967
6.346715999999997,25.52008043991059,0.07546496227302778
6.350812000000001,25.55511863084753,0.07510065657660363
6.354907999999998,25.589370329809398,0.07473692701493942
6.359004000000002,25.6211518279461,0.07437369393374055
6.363104000000003,25.65080671763297,0.07401833055816139
6.367196000000003,25.685612041094508,0.07364934565669887
6.371292,25.725567798330722,0.07326620297619361
6.375387999999997,25.761148196091803,0.07288631408162909
6.3794840000000015,25.79851160992738,0.07249234888427945
6.383579999999999,25.83575288118748,0.07208824000442231
6.387676000000003,25.87354777694727,0.07167669111471779
6.391772,25.90819670480674,0.07126345492542108
6.395868000000004,25.946755257190535,0.07083003148598781
6.399964000000001,25.984073000323978,0.07039080702198909
6.404056000000001,26.021722918157227,0.06994761309778273
6.408151999999998,26.058021301840196,0.06950072128869916
6.412248000000002,26.092292384297732,0.06904734702490234
6.416335999999998,26.11748057310522,0.06860412098594282
