Time,Force,Position
7.345675999999999,29.380892878956594,0.05392653904683385
7.349772,29.36368245901851,0.053660696553806446
7.3538679999999985,29.34479974790587,0.05340497348784578
7.357968,29.326482078968446,0.05315325411800261
7.36206,29.305927076681257,0.05290729649894576
7.366159999999999,29.28593711656928,0.05266504186157549
7.370255999999999,29.267630865307385,0.052423420856038475
7.374352,29.24373128067108,0.052196468656954466
7.378444,29.21794937273589,0.051993307970669
7.382539999999999,29.202193246027893,0.05183251263497238
7.386635999999999,29.20220121184803,0.051730608840191025
7.390732,29.229316332547192,0.0516997423052223
7.394827999999999,29.280980517751335,0.051759164049778046
7.398923999999999,29.356185825685515,0.051908113551606724
7.40302,29.456493822624356,0.052135886671373644
7.4071159999999985,29.57842636596774,0.05244070502688169
7.411211999999999,29.717718821140487,0.052819933617114685
7.415312,29.86719345314249,0.05327450824522037
7.419407999999999,30.031679938724157,0.053808506358837306
7.423499999999999,30.211854044960624,0.05442218094994452
7.427595999999999,30.41713084020175,0.055105577567846786
7.431692,30.64437577422276,0.05586298528813158
7.435787999999999,30.889545662248338,0.05669008117025675
7.439883999999999,31.149273086578294,0.05758509965654058
7.44398,31.425463205862602,0.05854571046572451
7.448072,31.717894570301386,0.059573169811088504
7.452167999999999,32.025337788319824,0.060670887885689
7.456263999999999,32.35339761096787,0.06183264212727557
7.460363999999998,32.70170761051911,0.06303009543260797
7.464499999999999,33.04331702769659,0.06424360022571454
7.468591999999999,33.37469063152253,0.06542420734376422
7.472679999999999,33.676166122620025,0.06655077281996583
7.476775999999999,33.944009655562475,0.06759906520191311
7.480867999999999,34.17160853752502,0.06857931371773693
7.484955999999999,34.358863461283214,0.06950509515501763
7.489044,34.51274212971285,0.07038659242250547
7.493136,34.64020082801413,0.07122409459399281
7.497228,34.74651213253721,0.07201687731417948
7.5013239999999985,34.8324396999061,0.07274694426631738
7.505424,34.8897864356702,0.07341331755692546
7.509516,34.91025593815456,0.07402570770726748
7.513611999999998,34.889362122984124,0.07459005105479907
7.517707999999999,34.8342941428345,0.07511235086685981
7.521808,34.750557441531235,0.07559823841328558
7.5259,34.64319172794906,0.0760381711226471
7.529995999999999,34.503900600413004,0.07644380365774263
7.534091999999999,34.33536429187257,0.07680427405921623
7.538188,34.13443683442745,0.07711822411274931
7.542283999999999,33.90246976222792,0.07738921699250162
7.546384,33.64756086250017,0.07763219347371283
7.550476,33.37793006504582,0.0778660043571106
7.5545719999999985,33.102007331790844,0.07809922246078038
7.558667999999999,32.82183138163623,0.07834745208061318
7.562764,32.545355023881584,0.07859453327048614
7.566859999999998,32.26921084082675,0.07884225806882574
7.570955999999999,31.988901330421125,0.07908479815973703
7.575047999999999,31.70386145048951,0.07931823198179898
7.579143999999999,31.411067375707045,0.07954933212295148
7.58324,31.106609481549444,0.07979672622458571
7.587332,30.797001153617167,0.08006263053643696
7.591424,30.48762569316029,0.08034197384104808
7.595516,30.18621445967859,0.08061974737604329
7.599596,29.887937776421662,0.08089419677847134
7.603688,29.58785524173918,0.08116572332679366
7.607775999999999,29.282721580506433,0.0814438155784587
7.611855999999999,28.983967744623165,0.08170716942198657
7.615936,28.68678689269006,0.08197768491983522
7.620028,28.39185479178225,0.08225709340230809
7.62412,28.097720600525044,0.08255367059527417
7.628211999999999,27.812447853118023,0.08284591982756154
7.632303999999999,27.52796159768608,0.08314403457769066
7.636387999999998,27.247961426629193,0.08344106884769889
7.640476,26.971660847972288,0.08373809507335042
7.644563999999999,26.697719745240615,0.08404123687709603
7.648648,26.42613811843417,0.08435274115112788
7.6527319999999985,26.162409993702962,0.08466143813600481
7.65682,25.89981195332217,0.0849844242266521
7.660903999999999,25.639573388866616,0.0853153579132113
7.664987999999999,25.385726067436075,0.08564269677051098
7.669075999999999,25.137594221955407,0.08596416664444094
7.673155999999999,24.895177852424617,0.08627853740812469
7.677247999999999,24.65646107529381,0.08659039491482935
7.681336,24.419095832313282,0.08691350712185175
7.685423999999999,24.18711389058283,0.08723382054891574
7.689508,23.95872081635242,0.08755464160541881
7.693591999999999,23.728876900747327,0.0878923165064649
7.69768,23.503064752242025,0.08822276191849261
7.701763999999999,23.28184941301171,0.08854998566343343
7.705843999999999,23.06332572440643,0.08887987144812688
7.7099199999999986,22.846940061926514,0.08922014409393865
7.714003999999999,22.635826975796732,0.08955826893938788
7.718088,22.423263048292267,0.08991505811993579
7.722163999999999,22.217201088712756,0.0902606639735307
7.726243999999999,22.013155012683136,0.09060396369647972
7.730323999999999,21.81672957125335,0.09093034045534293
7.734404,21.62097989689871,0.0912639307693447
7.738484,21.43374807401891,0.09157788476665969
7.742567999999999,21.253915435939078,0.09187759785754752
7.746651999999999,21.078458157334374,0.09217536805698352
7.750739999999999,20.91017861372976,0.0924620838397529
7.754823999999999,20.743693503875164,0.09274968335317921
7.758911999999999,20.57777343619578,0.09304673842999775
7.763003999999999,20.417679569366204,0.09332812872007656
7.767087999999999,20.264652712636792,0.09359852086432371
7.771175999999999,20.11678770735758,0.09386566023847667
7.775252,19.975313945103384,0.09412083205741328
7.779335999999999,19.839112759199327,0.09436896217201536
7.783415999999999,19.705824673720173,0.09460969130082877
7.7875,19.57914928106591,0.09483202056171457
7.79158,19.45482194666134,0.09504150211613979
7.795655999999999,19.33217832110686,0.09525223264594587
7.799735999999999,19.217266055052146,0.0954367377749469
7.80382,19.102132339197567,0.09562825521104162
7.8079,18.98835015749327,0.09582841785021319
7.811983999999999,18.875243742864114,0.0960332588665518
7.816115999999999,18.7622480531349,0.09623943248390465
7.8202,18.646449987880708,0.09645777120766451
7.82428,18.53065192262652,0.09667815336539372
7.828363999999999,18.415075307172202,0.09689692708618179
7.832443999999999,18.29994159131762,0.09710673201817899
7.836532,18.18660230921306,0.09731501796661547
7.840611999999998,18.074492418683324,0.09751690852409929
7.8447,17.96316902012866,0.0977213556222716
7.848791999999999,17.84477861147384,0.09794660317509071
7.852879999999999,17.72212356824382,0.09818417940549758
7.856964,17.596998324188647,0.09842816392389576
7.8610479999999985,17.46458462023344,0.09870163481197027
7.865124,17.330155032728335,0.09899079540518066
7.869211999999999,17.190120694173295,0.0993072134922952
7.873296,17.049864905818385,0.09963328235889801
7.877383999999999,16.907925408613384,0.09996810472666688
7.881475999999999,16.76374857805862,0.10032409594986823
7.885567999999999,16.619571747503855,0.1006852488662879
7.889664,16.47382193299894,0.10105431971443084
7.893751999999999,16.32459397589391,0.10143882604177511
7.897848,16.177381902338777,0.10181743176997447
7.9019439999999985,16.032861479408677,0.10219230698576463
7.906032,15.882847030328572,0.1025968107133477
7.9101279999999985,15.733840523023412,0.1030008855055219
7.914216,15.579007814868438,0.10344299761610201
7.918308,15.425404498288286,0.10387779542006556
7.9224,15.272698398583145,0.10431598412212822
7.926492,15.119316531802859,0.10475699911842548
7.930579999999999,14.966610432097719,0.10521230128663907
7.934676,14.81681743281748,0.10566038018668888
7.938763999999999,14.670613301037292,0.10610075974686793
7.9428519999999985,14.535729396256919,0.10648751422716415
7.94694,14.405663750551406,0.10685186964377352
7.951032,14.283108014545798,0.10718274319629038
7.9551159999999985,14.161670945215072,0.10750814975205299
7.959199999999999,14.045838626934282,0.1078085053048862
7.963284,13.932243642003257,0.10809245571931247
7.967367999999999,13.818759381972168,0.10837840907784294
7.971451999999999,13.710547698291213,0.10865023061831774
7.975536,13.607608590960394,0.1089068501053877
7.979619999999999,13.505234525804784,0.1091746539659034
7.983711999999999,13.40252828594937,0.10945804398206255
7.987795999999999,13.310588648594095,0.10969625089662718
7.99188,13.223024370713944,0.10991923078699578
7.995967999999999,13.139724727408986,0.11013486695512328
8.000055999999999,13.060689718679212,0.11033724953219402
8.004147999999999,12.984235635674546,0.11053346755800597
8.008244,12.910030303695171,0.11073467888450465
8.012336,12.843002706715891,0.11090446048140855
8.016428,12.785844495361742,0.11102524216391559
8.020524,12.731267209732696,0.11113742320755564
8.024616,12.675128357829026,0.11127646137931005
8.028708,12.620673214775447,0.11141079607141599
8.0328,12.565996621921997,0.11155339938528518
8.036895999999999,12.512782288118766,0.11170040888294555
8.040987999999999,12.458338562740717,0.11186475312816019
8.045084,12.406475763087771,0.1120200258918079
8.049171999999999,12.361790698434918,0.11213891924190383
8.053263999999999,12.32091595108198,0.112231850488963
8.05736,12.285756679678919,0.11228478245418279
8.061456,12.255194217550853,0.11231127975701465
8.065551999999999,12.23247383982249,0.11227683741894783
8.069643999999998,12.20706181146909,0.11225636945465545
8.073739999999999,12.181428333315823,0.11224375666899587
8.077839999999998,12.164312706637402,0.11217298643057202
8.081931999999998,12.145181196409085,0.11211940130262875
8.086027999999999,12.130867945255634,0.11203008890918506
8.090128,12.117894810576935,0.11191994384744647
8.09422,12.11085860164798,0.11176157005670713
8.09832,12.103146625643882,0.11160035492104442
8.102416,12.097671982989551,0.11141389193814602
8.106511999999999,12.093648181709902,0.1112027622065538
8.110603999999999,12.090521597305267,0.11098660663577778
8.1147,12.092213271975496,0.11073541966076623
8.118796,12.0999525972954,0.11043274195885705
8.122891999999998,12.110826472840085,0.11009940836223801
8.126987999999999,12.122929739959583,0.10974931048424409
8.131084,12.134467964903875,0.10939290658360509
8.13518,12.148354248097867,0.10900914459755241
8.139275999999999,12.158319489092005,0.10865577971100285
8.143376,12.170522063435907,0.10827826777604788
8.147468,12.179811537354906,0.10792297742379418
8.151568,12.19425144504857,0.10752245552414333
8.15566,12.212047352766879,0.10708559661418766
8.159759999999999,12.231294101859875,0.10662896483312721
8.163851999999999,12.25479406785253,0.10613185043619454
8.167947999999999,12.280309917395076,0.1056217185110152
8.172044,12.311651967787428,0.1050724056282161
8.176139999999998,12.338729383604592,0.10453976563955343
8.18024,12.35829688972186,0.10405105953911727
8.184332,12.378085845638994,0.10355616599576793
8.188428,12.399214918030882,0.10304299377252728
8.192523999999999,12.417873789597603,0.10253304014773383
8.196615999999999,12.433275968364086,0.10202906358788563
8.200712,12.444978554730582,0.10154601284802761
8.204808,12.45970496642192,0.10104119010660625
8.208896,12.47532859498827,0.10053313479293186
8.212992,12.490165731579541,0.10002595443040178
8.217087999999999,12.502089767745908,0.09953944970971537
8.221184,12.517701978636723,0.09900832928122315
8.22528,12.534543581102353,0.09846493561213787
8.229375999999998,12.55082014139278,0.09791376136292113
8.233471999999999,12.566088759908258,0.09737275566135292
8.237568,12.58034943664879,0.09684071347839879
8.24166,12.58878391253951,0.09634685478681199
8.245759999999999,12.597107663530295,0.09585832199130076
8.249856,12.601842547021036,0.09538524469365241
8.253952,12.601759171436912,0.09494121678286069
8.258047999999999,12.600335679378038,0.0945147400203745
8.262124,12.605524880144051,0.09405241121145558
8.266212,12.612176339960282,0.09359580159340852
8.270299999999999,12.620068609026864,0.09315229431213827
8.274388,12.637486671343238,0.09265985641197351
8.27848,12.658161426459852,0.09216667475892297
8.282572,12.68500597480162,0.09165727418118537
8.286655999999999,12.713423507093538,0.09115304054586372
8.290747999999999,12.746216398860577,0.09064055856642395
8.294835999999998,12.781258041652913,0.09013501384523812
8.298928,12.821572260795389,0.08961840368948842
8.30302,12.864478823338496,0.08912642861042082
8.307112,12.910309903982043,0.08864927624975558
8.3112,12.964670253775965,0.08816203451488723
8.315328,13.024868222095233,0.08767507536083968
8.319415999999999,13.090903808939844,0.08718751581038162
8.323544,13.165579389834768,0.08668757827340987
8.327627999999999,13.24810847280493,0.08617832738529693
8.33176,13.33872392532573,0.08567546426817686
8.335844,13.442465456271902,0.08515178689029297
8.339936,13.556862864818283,0.08460760399588953
8.344024,13.680576034490118,0.08406218975580071
8.348111999999999,13.811921256437321,0.08351738806808673
8.352203999999999,13.951341430259632,0.0829614543015561
8.356331999999998,14.096156323007543,0.08243009777207107
8.360472,14.246587384480929,0.08190949780390608
8.364612,14.401061630729634,0.0814008291263149
8.368748,14.560476278628672,0.08090210785979852
8.372888,14.724155561102899,0.08040991456755471
8.377023999999999,14.898822895877139,0.07989846748319784
8.381176,15.075738981676674,0.0794022997159263
8.385307999999998,15.256354659876191,0.0789045343610442
8.389444,15.439772713600677,0.07840852169733568
8.393583999999999,15.627111809525019,0.07790994033555285
8.397668,15.812767196599268,0.0774218069728173
8.401751999999998,15.999762700148272,0.07693076601351263
8.405843999999998,16.183612235796964,0.07644405383445164
8.409975999999999,16.36218919509552,0.07597434093647716
8.414064,16.536268652343487,0.07549974417652726
8.418199999999999,16.70304823201589,0.0750313034736269
8.422339999999998,16.86567390201304,0.07457145464181017
8.426412,17.021221144234495,0.07411029643164634
8.430492,17.165547466680536,0.07366287369751595
8.434572,17.301123070176335,0.07323146963397786
8.438607999999999,17.423794045046623,0.07281396923000341
8.442635999999998,17.541513200591048,0.07238071854067733
8.446724,17.649351552834812,0.071947638906612
8.450816,17.744396001353007,0.07152240139402263
8.454851999999999,17.82743303812071,0.07110608512796489
8.458884,17.893755128962994,0.07071038662265722
8.462971999999999,17.952323024954442,0.07030245343204589
8.467056,18.000899392745296,0.06989435127571689
8.471139999999998,18.039484232335553,0.06948575853623702
8.475231999999998,18.058551750475416,0.06909889541026987
8.479268,18.06292020623976,0.06871842265415974
8.483364,18.053265366703705,0.06834863106484974
8.487452,18.036875691767303,0.06797778771861437
8.491544,18.0130754143554,0.06760155696936873
8.495636,17.981643084668132,0.0672241250795027
8.499728,17.93854693560571,0.06685865168771331
8.503824,17.884229866767875,0.06649521675900058
8.507916,17.82082990427999,0.06614233328257925
8.512011999999999,17.755402640566675,0.06577549120953861
8.516108,17.684027033428084,0.06540606518677909
8.520204,17.60939473348925,0.06503041844018485
8.524235999999998,17.528371190525394,0.06466136004939532
8.528327999999998,17.445663938711455,0.06428897270728028
8.532368,17.36766422107244,0.06390491812143888
8.536408,17.2898859532333,0.06351308372037685
8.540496,17.212218410294092,0.06311564738901372
8.544531999999998,17.130408375355167,0.06273087615588603
8.548611999999999,17.047590398641287,0.062346469230158734
8.552696,16.960629929927688,0.06197438587367494
8.55678,16.884657513514103,0.06158510512651642
8.560863999999999,16.81945169960066,0.06118364502558014
8.564948,16.761755795387113,0.0607659352212521
8.569028,16.705632875123722,0.06034961819511447
8.57306,16.649067055260588,0.059940386565058346
8.577136,16.595647203297766,0.059535990576942165
8.581223999999999,16.552096736960074,0.05912214400146912
8.585312,16.51651049759755,0.05870301933244133
8.589395999999999,16.48709405146018,0.05828023430219359
8.593483999999998,16.46395812344789,0.057852358826726194
8.597572,16.444411062935647,0.05742032658012294
8.601659999999999,16.429128636998595,0.056989055325630436
8.605747999999998,16.41710290386178,0.05656204434407795
8.609831999999999,16.4074366466502,0.05614019511260957
8.613923999999999,16.392730680563886,0.05573257504364329
8.618003999999999,16.383297290827706,0.05532440471271046
8.622088,16.380144419216606,0.05491275786571207
8.626168,16.38428000750554,0.05449467091495186
8.630248,16.392901680169533,0.054074540115280414
8.634328,16.409930479408438,0.053642838501763095
8.638407999999998,16.424943395097443,0.05321838655759237
8.642487999999998,16.437829702336625,0.05280296136953502
8.646624,16.44904371840125,0.05240610428871604
8.650704,16.45992555976607,0.05201652521676868
8.654788,16.474961310806147,0.05163255228963773
8.658868,16.494593871121218,0.05124571590116747
8.663003999999999,16.50907599766162,0.050875666839912737
8.667084,16.51840769042735,0.050521811817575965
8.67122,16.524604832968308,0.05017853263052224
8.675364,16.524422150159783,0.04985909540305689
8.679447999999999,16.523575117951648,0.04955433761230309
8.683527999999999,16.518364143943916,0.04926706614094258
8.687603999999999,16.508224185961392,0.04898965960723122
8.691747999999999,16.493941735979146,0.0487245849234944
8.695827999999999,16.480445777971976,0.04846058769076013
8.699976,16.456981127115274,0.04821973980290619
8.704056,16.423547783409038,0.04800187938372957
8.7082,16.38417751395306,0.04779661797358947
8.712335999999999,16.335625043622628,0.047616431357774096
8.716472,16.279009039092614,0.04745616137851555
8.720607999999999,16.212313616813145,0.04732078398159084
8.724687999999999,16.139570543883988,0.047199982955503074
8.728824,16.05808816968012,0.04709392398970094
8.732899999999999,15.971676811501448,0.04699715787231057
8.736979999999999,15.877976993422747,0.04690171409120271
8.74106,15.767917239469497,0.04683128876105585
8.74514,15.651355517591297,0.046764914690529916
8.74922,15.529975536638236,0.04670546949545503
