Time,Force,Position
15.296183999999998,28.859381587203334,0.05365588952409603
15.300275999999998,28.816705502389585,0.053383376609481184
15.304376,28.777175385476145,0.05311499415813077
15.308472,28.731154718313284,0.05286162473254758
15.312564,28.682675268000796,0.05261621881104712
15.31666,28.630164050588515,0.05237646810903108
15.320756,28.57440755805153,0.05214369398483003
15.324851999999998,28.51687946711558,0.05193376006918611
15.328952,28.461302205531723,0.05176840601248794
15.333044,28.41801089387589,0.05166343481415435
15.33714,28.394870451898857,0.05163118800093618
15.341236,28.392125164751548,0.05169028792441149
15.345332,28.41089369910886,0.05183570746055561
15.349427999999998,28.441528119145516,0.052065542901313495
15.353528,28.485589991136145,0.05237004418157803
15.357624,28.54800829905555,0.05274145499754542
15.36172,28.62585852480328,0.05317140020569038
15.365812,28.715341768754964,0.053674481376279476
15.369908,28.818928231735757,0.05425077691322244
15.374004,28.940993273220794,0.054899569387398914
15.378099999999998,29.077394401210345,0.05562815749516935
15.3822,29.232827732203813,0.05642006978034289
15.386292,29.398099647651204,0.05728143644476173
15.390392,29.580265739977143,0.05819952006732473
15.394488,29.7763021838568,0.059180185425086844
15.39858,29.98497958771535,0.06022736008752631
15.402675999999998,30.205179284877914,0.06134324329403119
15.406776,30.436313397818225,0.06250109344964211
15.410868,30.66970767945936,0.06366733253507219
15.414968,30.889055830449045,0.06480851873736354
15.419,31.083446270360604,0.06589968669897069
15.423087999999998,31.242299593467166,0.06691384550743157
15.427127999999998,31.36180548246882,0.06785889779282828
15.431216,31.452520507741365,0.06874357696010641
15.435304,31.519950113110333,0.06957452334523578
15.439392,31.56478148332641,0.07036510801500309
15.44348,31.58982841159009,0.07112400389239677
15.447528,31.59966487182531,0.07182668899747256
15.451503999999998,31.58688026155658,0.07247109336133785
15.455584,31.550909538608675,0.07305450192690884
15.459611999999998,31.49241705238121,0.07357021020297436
15.4637,31.406485236574916,0.07403931289770008
15.467788,31.304445735865155,0.0744575356094611
15.471872,31.17868933332762,0.07484849096646853
15.475955999999998,31.037058113362004,0.07519830861816264
15.480047999999998,30.877757642218295,0.07550974224426314
15.484184,30.70469754442081,0.07576432267420626
15.488272,30.515197587020047,0.07597558955532728
15.49236,30.31129648891696,0.07616062458460135
15.496439999999998,30.10658606348773,0.07632579217809148
15.500528,29.9044565637836,0.07649237277017981
15.504616,29.713902993905755,0.07667280705968059
15.5087,29.537949179179034,0.07686068017934837
15.512783999999998,29.37321628422773,0.07704467750883483
15.516875999999998,29.211175039901462,0.07722816646439533
15.520952,29.050130319674604,0.07740015718550204
15.525092,28.886714705846984,0.07756159885688307
15.529175999999998,28.723631266719174,0.07771977795298568
15.533264,28.562353679016915,0.07788943258692314
15.537396,28.401541826265458,0.07807802060518793
15.541488,28.24377663418991,0.07828422070592403
15.54558,28.092635552614784,0.07849306644736839
15.549668,27.9395893123897,0.07870781508168126
15.553755999999998,27.789899072189257,0.07891323144115603
15.557892,27.642335440438643,0.07911390484228857
15.561976,27.500708734437776,0.07930228944095571
15.566068,27.355393853712457,0.07951084074451262
15.570204,27.214011432862527,0.07972397867820842
15.574332,27.07678292168785,0.07993891882571834
15.578468,26.93350675986349,0.08017306074117657
15.5826,26.790108455463667,0.08039885208464548
15.586736,26.639299548588344,0.0806277863969109
15.59088,26.487471282262543,0.08084925516925806
15.595016,26.32846528093664,0.08108232059421407
15.599104,26.16968072941062,0.08131443958461188
15.603243999999998,26.0088802943347,0.08155499395720069
15.607328,25.848190584158715,0.08179669432141351
15.61146,25.685030673157563,0.08204054928467185
15.615548,25.516476043230806,0.08228270001864674
15.61968,25.34633701167837,0.08251458133720994
15.623812,25.17360563672529,0.0827388820743209
15.6279,24.99906841034666,0.08295517574257569
15.632039999999998,24.82676851731779,0.08316433433988034
15.636131999999998,24.654125031913583,0.08336840910139522
15.640216,24.48057291195883,0.0835618894304963
15.6443,24.30028595660373,0.08376080055723058
15.648388,24.124240800472744,0.08393209170732731
15.65248,23.94179298364121,0.08410371257353359
15.656572,23.752721056309262,0.08428029896023236
15.660664,23.568345245476706,0.08443531941041921
15.664751999999998,23.37668097474412,0.08460715835106157
15.668843999999998,23.18545960361127,0.08477535806396545
15.672924,22.988289889053146,0.08495082138568189
15.677016,22.791108756819487,0.08511531369505726
15.681104,22.590105889610378,0.08527806106792259
15.685187999999998,22.387972938050858,0.08543504139719542
15.689272,22.182583293691092,0.08559575978810324
15.693352,21.97472344850616,0.08576002283279462
15.69744,21.768768761971188,0.08592326502305356
15.701531999999998,21.560343874611046,0.08609118959837814
15.705616,21.353148378825725,0.08625395744090018
15.7097,21.142364015540362,0.08642697681184888
15.713779999999998,20.922828933304743,0.08661757196734304
15.717864,20.69902921649394,0.0868168194473051
15.721952,20.465814431333275,0.0870478983095523
15.726044,20.228113561797553,0.08729508869927541
15.730128,19.979092465262013,0.08758194265903008
15.734215999999998,19.726261051426558,0.08788989190368257
15.7383,19.47612128821613,0.088199995632105
15.742292,19.2201553241559,0.08853817364619479
15.746376,18.972596486670582,0.08885829046864568
15.75046,18.727729299810296,0.08917933165147175
15.754544,18.484889414175438,0.08951859890068044
15.75862,18.240155787566152,0.08989259361683932
15.762712,17.99924389593232,0.09027832056838898
15.766796,17.75565177134898,0.09070110024835991
15.770884,17.514984164866082,0.09114193311997201
15.774968,17.273762933883507,0.09160775728731775
15.779056,17.034003961951157,0.09208791369069198
15.783143999999998,16.795375074369215,0.09259398350170495
15.787224,16.552160795187813,0.0931499138405957
15.791308,16.309290108381752,0.09373371866253505
15.795384,16.071027648526215,0.09434175492462263
15.799468,15.833563098321287,0.09499044613068665
15.803548,15.602268341341507,0.09564249079779027
15.807628,15.377819144662016,0.09629850242657241
15.811711999999998,15.159429016307742,0.09696289202519025
15.815792,14.949003114928637,0.09762068078986118
15.819871999999998,14.742731123224786,0.09828557113846258
15.823952,14.541510258071199,0.09895961467299345
15.828036,14.338506376843126,0.09967622979382978
15.832116,14.141229389240458,0.10039677834724174
15.836192,13.949557152687731,0.10110540133846344
15.840276,13.766292042709917,0.1017889497292359
15.844364,13.585607858457205,0.10247722881164882
15.8485,13.415014509629492,0.10313553876071649
15.852579999999998,13.251709620701806,0.10377245272096752
15.856716,13.095582466774216,0.1043937175565037
15.860848,12.943609222521882,0.10502057739046229
15.864924,12.803631972344505,0.10559531393762517
15.869004,12.677777324691913,0.1060996233196101
15.87308,12.561005570689378,0.10657109006463449
15.877159999999998,12.455886218386459,0.10697052495752306
15.881244,12.361300601108281,0.10731093139488919
15.885336,12.276473644555297,0.10761401046144327
15.88942,12.199832364777357,0.10787877863618003
15.893516,12.135187079074372,0.10808007673259488
15.897604,12.075814369721526,0.10826232592695326
15.901696,12.021149194543607,0.1084172534320469
15.905792,11.975001870840536,0.10851894879063957
15.909876,11.935799414662158,0.10856812938004812
15.913963999999998,11.896818408283647,0.10861057662261293
15.918055999999998,11.86153699430512,0.10863162807878607
15.922144,11.831971056276467,0.10861319339693648
15.926228,11.80531821867272,0.10857345031223821
15.930316,11.781013439318667,0.108504146820484
15.934399999999998,11.75614361778941,0.10842722614173385
15.938484,11.732392462935035,0.10833749198745975
15.942572,11.716704842280233,0.10817711395535158
15.94666,11.701238671425301,0.10800824367843395
15.950752,11.683978066820345,0.10784823228947812
15.954852,11.668168303590075,0.10766246643303025
15.958944,11.650342656809913,0.10749363794348009
15.963032,11.635651560254527,0.10729407011344198
15.967124,11.619608929548855,0.10708692438859282
15.971223999999998,11.601428272717822,0.106872416579293
15.975316,11.581453182136766,0.10666668182642704
15.979404,11.565055541380223,0.10641402754890471
15.9835,11.54910080022342,0.10614411690881825
15.987588,11.53067585824145,0.10587878140558699
15.991684,11.51269381585922,0.10559600383905979
15.995776,11.497170556626624,0.10527823914074753
15.999876,11.483319588568584,0.10492627240732613
16.003963999999996,11.464417493960276,0.10458754778873584
16.008052,11.444163865201686,0.10423928205888416
16.012140000000002,11.425815395093052,0.10387709697676031
16.016224,11.41071220010913,0.10347940917720311
16.020311999999997,11.397735613575035,0.10305867873917049
16.024395999999996,11.37937572579087,0.10266364646573542
16.028480000000002,11.358656362081476,0.10226811548022553
16.032572000000002,11.336364014421928,0.10187118062900538
16.036668,11.316874042287349,0.10145630577847355
16.040751999999998,11.29782696975251,0.10102333088124908
16.044843999999998,11.278104130142527,0.10058610699717144
16.048924,11.25871346523235,0.10013491175817175
16.053016,11.241903726047273,0.09967408993043775
16.057108,11.226323378437012,0.09919614820387491
16.061196000000002,11.208616422376924,0.09873868990163587
16.065288000000002,11.194498333816883,0.09826474885813268
16.069376,11.183071895881877,0.09777768497791597
16.073468,11.173218441897026,0.09729029440411807
16.077556,11.163032813212372,0.09681404910636215
16.081643999999997,11.153190776903052,0.0963543184371178
16.085735999999997,11.149407808918946,0.09587475649819842
16.089824,11.152802575934935,0.09536409651123352
16.093919999999997,11.157881051801011,0.09485159570667781
16.098016,11.164311061817374,0.09434894028487513
16.102108,11.176345822883679,0.09381785489439405
16.106203999999998,11.193653160300116,0.09326921760006417
16.110292,11.213319973641784,0.09272194856570579
16.114387999999998,11.239267305108537,0.0921504841320981
16.118479999999998,11.263420202825266,0.09158820521632301
16.122571999999998,11.288924634692279,0.09103577575444326
16.12666,11.313986166959552,0.09050156242068871
16.130755999999998,11.342415116927002,0.0899637141849506
16.134844,11.36882818334456,0.089441244182521
16.138936,11.394798350162377,0.08893632780352621
16.143031999999998,11.425033151555386,0.08842570056561934
16.147128000000002,11.453706386673774,0.087945001968042
16.151224,11.487430748342423,0.08746099579937545
16.155319999999996,11.525984786761473,0.08698168793112174
16.159416,11.574076036105849,0.08648448774189353
16.163508,11.626099745325604,0.08599499201978188
16.167608,11.684636840145851,0.08551198801818793
16.171743999999997,11.748457928991762,0.08505056239778966
16.175835999999997,11.819800345213107,0.08459042840362062
16.179975999999996,11.899339855885028,0.08413524551956227
16.184067999999996,11.988195127682403,0.08368144746694264
16.188204,12.088836361430399,0.08322700711968697
16.192296,12.201374282028953,0.08276678789264913
16.196384000000002,12.324014455728042,0.08230972717286762
16.200528,12.460910792202913,0.08185273953661366
16.20462,12.614522074603208,0.08137355078461479
16.208708,12.781713752704144,0.080891778624262
16.212843999999997,12.96058066785577,0.08041794668350116
16.216932,13.160759338207809,0.07991239532091694
16.221075999999996,13.376079970535113,0.07938664510745387
16.225215999999996,13.600937813787741,0.07886275937953248
16.229356000000003,13.84339640216527,0.07830108524481812
16.233492,14.095048609092787,0.0777328537956827
16.237623999999997,14.356115884370162,0.07715120399828403
16.241756000000002,14.623009360497347,0.07656718077534286
16.245883999999997,14.900436571649273,0.07596236311434573
16.250016000000002,15.181330507725775,0.07535110770825229
16.25416,15.466023343426663,0.07472404690271865
16.258252,15.748578153002192,0.07410427795755899
16.262332,16.031785894301795,0.07346497173072396
16.26648,16.306353641551084,0.0728506842380505
16.270559999999996,16.57126203529958,0.07224278079999322
16.274700000000003,16.83121860972221,0.07162895479058964
16.278779999999998,17.080729338668974,0.07101818997882076
16.282863999999996,17.322707322564774,0.07040189446546789
16.286948000000002,17.552445027234675,0.06979337664488831
16.29108,17.773077002903463,0.06917499177124102
16.295172,17.983816757596053,0.06854477517142696
16.299304,18.173909106487837,0.06793543534154403
16.303435999999998,18.350863959278715,0.06732871739478066
16.307572,18.5155785328437,0.0667207644726392
16.311652000000002,18.657408367258117,0.06613925242394461
16.315784,18.783752647321933,0.06556955131837909
16.319868,18.892816939285115,0.06501162942200009
16.324004000000002,18.983482576472795,0.06446890038043467
16.328083999999997,19.05809761713466,0.06392855888560385
16.332160000000002,19.113306061246067,0.06340278801234085
16.336244,19.147424199956944,0.06288945327998213
16.340316,19.170764318492132,0.062369943888068366
16.344448,19.180646183902148,0.06186412648209761
16.34854,19.175607537136766,0.06136252134954902
16.35262,19.162039621221005,0.06085871689101943
16.356648,19.131092409980212,0.060373511642676764
16.360687999999996,19.094086130414208,0.05988733776767656
16.364784,19.041827163973007,0.059410152081140165
16.368864000000002,18.975777769706816,0.05894645698791459
16.372951999999998,18.895937947615657,0.058495472157954864
16.377032,18.804888623424606,0.0580572452524467
16.381112,18.706661564233464,0.05761922339340989
16.385196,18.598232944717388,0.05718970417955856
16.38928,18.47971348977631,0.05676563033881086
16.39336,18.35760516733518,0.056338039821217156
16.397444,18.22630322634407,0.05591437499900096
16.401528,18.091301692952975,0.05548954623791133
16.40556,17.95371923383678,0.055057661653249684
16.409644,17.808970457396015,0.05464150219266587
16.413728,17.663103014280377,0.054223999612787566
16.417816000000002,17.521168031040123,0.05381035496246481
16.421839999999996,17.374869106000276,0.05340873850387092
16.425928,17.221403863635867,0.05302279419027548
16.430016000000002,17.071306038971635,0.05263396550823656
16.4341,16.917630764482887,0.052259562243311165
16.438187999999997,16.7710225000943,0.051879731602321316
16.442276,16.61781296055636,0.05152311205136692
16.446368,16.468314431093933,0.05117695026708457
16.450468,16.319945985981924,0.05083976178572696
16.45456,16.175288550945428,0.05051392040892434
16.458655999999998,16.03165047535941,0.050200455499908335
16.462744,15.892952801423725,0.04989073085999867
16.466839999999998,15.757855412663622,0.049596230214549814
16.470931999999998,15.629160684604066,0.04931413042587809
16.47502,15.504852733695168,0.04905074829281813
16.479107999999997,15.386050226611808,0.04880060915713182
16.483204,15.2661404705291,0.04857328058923266
16.487291999999997,15.1466964493972,0.0483743015139772
16.491391999999998,15.030066221465802,0.048190900113351615
16.495475999999996,14.919949379134888,0.04802008863337183
16.499564,14.809954679379445,0.047866140416165485
16.503652000000002,14.701655106149616,0.04773475410005089
16.50774,14.601995526970107,0.04760910096994516
16.511823999999997,14.50492829119123,0.047506825710989214
16.515912,14.412580007262816,0.04741982670815101
16.519999999999996,14.31945664903486,0.0473511596028442
16.524091999999996,14.234297517782071,0.04728393081702813
16.52818,14.15138713755458,0.04722711635634803
16.532263999999998,14.075433042527314,0.04717487362436688
16.536347999999997,14.00273564030029,0.04713056495038712
16.540436,13.936208031298417,0.04708814143579917
16.544576,13.868683898197126,0.04707153462221228
16.548664000000002,13.802622024146055,0.047063540198115296
16.552751999999998,13.736227975395181,0.04706398382658794
16.55684,13.673533519044287,0.0470610341497763
16.560924,13.61028543819372,0.04707313995234039
16.565011999999996,13.553428600368171,0.047082167992234594
16.569152000000003,13.503970947342586,0.04708519708557219
16.573292000000002,13.458102161817047,0.047088240681143825
16.577440000000003,13.407193667416776,0.04710666561489748
16.581580000000002,13.359087548541474,0.04712199357545165
16.585664,13.316807630515985,0.04712508076565977
16.589756,13.275424929365506,0.04712798226870609
16.59384,13.23818472021475,0.04711538609569858
16.597932,13.200158019088914,0.047099709017367555
16.602024,13.162131317963084,0.0470839454620114
16.606119999999997,13.124891108812326,0.04707119122798792
16.610211999999997,13.085745741011612,0.04706158710540537
16.614308,13.041892839035967,0.04705822972407126
16.618403999999998,12.994451069560274,0.047054835469707436
16.622504,12.938380723709802,0.04706751071367045
16.626599999999996,12.879275134858956,0.04706430378287487
16.630688,12.816691403408,0.0470579837793499
16.634783999999996,12.751416021332005,0.047051630737363674
16.638872,12.674820412256194,0.047061979238946144
16.642967999999996,12.597881210805047,0.04705596494251969
16.647059999999996,12.514550766328883,0.04705309468258074
16.651156,12.420232269552708,0.047057038876728234
16.655248,12.317838820901427,0.047061080252573675
16.659335999999996,12.216896213624828,0.04704817128405778
