Time,Force,Position
8.622395999999998,27.19929981615209,0.04748866229133184
8.626496,27.009773571544862,0.04738634789670765
8.630588,26.823206098064674,0.04733190003751794
8.634684,26.642311881687625,0.047351894920194273
8.638783999999998,26.469473233690007,0.04747680758333846
8.642879999999998,26.314903132072295,0.04771330985829147
8.646971999999998,26.181415370034983,0.04806940835426638
8.651072,26.07079296365257,0.048530519342813744
8.655164,25.977885479150384,0.04910495143850837
8.65926,25.903578715727907,0.0497793482215242
8.663356,25.842710821934926,0.050551686663767165
8.667452,25.794052406196645,0.0514260199689375
8.671547999999998,25.760638711513415,0.05240927161164718
8.675643999999998,25.748185213835136,0.05349318975867005
8.679739999999999,25.757367680236932,0.05467894076271404
8.68384,25.792107152918653,0.05595776620865377
8.687932,25.848925489280198,0.05732902255641852
8.692028,25.936894165296085,0.0587735139651366
8.696127999999998,26.04536872104163,0.060306544822649466
8.700223999999999,26.1808511244418,0.06191891757478905
8.70432,26.33816810637085,0.06359620445198054
8.708412,26.521450741152968,0.06531402726325927
8.712508,26.721692607011448,0.06703776660602118
8.716604,26.924381838344022,0.06872927740555346
8.720703999999998,27.11612523622332,0.0703496083780642
8.724799999999998,27.28758420417283,0.07187416452820802
8.728891999999998,27.428091446916802,0.07329991922317794
8.732987999999999,27.54192301670596,0.07464048930178688
8.737088,27.630873347290336,0.07589731659095486
8.74118,27.696748290095467,0.07708343361507715
8.745279999999998,27.743934622272032,0.07821161618735478
8.749371999999997,27.775788343844663,0.07926938743915224
8.753467999999998,27.792175894562362,0.0802347840024771
8.757568,27.78905408964981,0.08110622266455701
8.761664,27.762834061606963,0.08189007844655749
8.76576,27.70926259353416,0.08260197065875449
8.769856,27.632947912381923,0.08324918805345562
8.773948,27.529304626550804,0.08385231993900208
8.778047999999998,27.410095862640347,0.08438369373536504
8.782139999999998,27.267811710950653,0.08485893038973673
8.786235999999999,27.102452171481733,0.08528032887371521
8.790336,26.91244426028343,0.08564647222543016
8.794428,26.699372378981423,0.08597142870215599
8.798527999999997,26.473915240526985,0.08626589358022102
8.802619999999997,26.246530108071525,0.08654402378400682
8.806719999999999,26.02071795956622,0.08682692922917026
8.810815999999999,25.804221572186368,0.08710781976991856
8.814907999999999,25.595013644706547,0.08737937217665774
8.819004,25.391066875901323,0.08763550824803987
8.823104,25.194286424420667,0.08787122590103275
8.827196,25.00634458143913,0.08807217684654399
8.831291999999998,24.819964304732213,0.08826472724313879
8.835387999999998,24.639532371450574,0.08845438671589852
8.839488,24.46225782374478,0.08866151394432806
8.84358,24.294077587364566,0.08886778983768111
8.847676,24.135545286809617,0.08906419735031214
8.851772,23.985752287529376,0.0892380397967697
8.855868000000001,23.844244272248584,0.08938350591921858
8.859967999999999,23.703179156567533,0.08952315681782975
8.864063999999999,23.56513786621132,0.08965484492592736
8.868155999999999,23.433266369080258,0.08977971819496885
8.872256,23.30567092419991,0.08991634354212316
8.876348,23.186161848870203,0.0900538201095241
8.880444,23.070818100891287,0.09020496596236233
8.884539999999998,22.960414754562702,0.09035528839529706
8.888635999999998,22.85348955083423,0.09050291682959095
8.892731999999999,22.75105043148081,0.09064305492255405
8.896832,22.647725512927916,0.0908012493354793
8.900924,22.55327345590074,0.09095926801698082
8.90502,22.45973003342411,0.09113153561106135
8.909116000000001,22.36832463707284,0.09130907129863028
8.913211999999998,22.281405325096625,0.09147937558097155
8.917307999999998,22.193588796245397,0.09165253911605399
8.921403999999999,22.110246934093702,0.09180329732154098
8.925495999999999,22.025553537791723,0.09195048908147883
8.929596,21.942654575239764,0.09209488603527748
8.933692,21.85751827933804,0.09225229270817162
8.937791999999998,21.77014465008656,0.09242312474764779
8.941883999999998,21.683225338110347,0.09260226808471526
8.945979999999999,21.599108401659105,0.09277497807745556
8.950071999999999,21.518015290532706,0.09293660845594456
8.954176,21.441851163381102,0.09308134078589045
8.958268,21.363671152679608,0.0932358034376198
8.962364,21.285147549602772,0.09338321821278263
8.966459999999998,21.205726729650927,0.09353363793717946
8.970555999999998,21.128543243048842,0.09367235629797281
8.974651999999999,21.046762947171764,0.09382444088281458
8.978752,20.96676566736918,0.09395865217956142
8.982844,20.874539526016235,0.09411646368243631
8.98694,20.783985675837844,0.09425787317559187
8.991039999999998,20.68804852440938,0.09441302375129051
8.995131999999998,20.58852250548087,0.09457830044318499
8.999227999999999,20.489217936352226,0.09474030109232236
9.003324,20.38318994949877,0.09492814272885503
9.00742,20.27794845462039,0.09511763460865191
9.011516,20.167323658491934,0.09532222790181638
9.015612,20.056809587263412,0.09552689930492458
9.019707999999998,19.94842212448472,0.09572228042412018
9.023803999999998,19.838572402655807,0.09591786862420204
9.0279,19.72513381332685,0.09612448512598773
9.031996,19.60228015564803,0.09636689532687008
9.036096,19.473035254944193,0.09663024043257272
9.040191999999998,19.344011804040232,0.09689263271478776
9.044283999999998,19.2150990780362,0.09715562657708388
9.048384,19.083605426307074,0.09742650906712393
9.052476,18.951668874978203,0.09770886061318003
9.056576,18.81940014894953,0.09800372620339404
9.060668,18.685902031346043,0.09831169770810044
9.064768,18.563281241142626,0.09859110201811934
9.06886,18.438533842489385,0.09888522593318849
9.072955999999998,18.312667777161263,0.09919238426974522
9.077051999999998,18.189493362458172,0.09949564162525265
9.081148,18.064192339305258,0.09981523541664343
9.085248,17.944274617402414,0.10012368639810358
9.08934,17.819538636424703,0.1004583009755051
9.093439999999998,17.698612972746915,0.1007809004687972
9.097531999999998,17.57578215041916,0.10111641460956158
9.101632,17.45082471964158,0.10146935032710985
9.105724,17.328448214589102,0.1018208365779048
9.10982,17.20865263526172,0.10217079732159551
9.11392,17.094461806984288,0.10250541107350314
9.118012,16.981168195581862,0.10284299384400067
9.122108,16.871009134404215,0.10316329887628808
9.126203999999998,16.758723464776732,0.10350344444132879
9.130299999999998,16.64632707024932,0.10385203709258373
9.134396,16.52865809937177,0.10422193246377007
9.138496,16.414455853418804,0.1045668481187886
9.142588,16.301150824340848,0.10491347006605903
9.146687999999996,16.17876290161283,0.10529990903417283
9.150783999999998,16.05379405315972,0.10569952663386725
9.15488,15.93184903003145,0.10608707183846365
9.158972,15.809338964727973,0.10647291213019172
9.163068,15.684358698599327,0.1068707782501549
9.167164,15.556232464570375,0.10727531568277668
9.171264,15.432027272741275,0.10766441221533211
9.175359999999998,15.305916922262215,0.1080686600540805
9.179455999999998,15.180138746482962,0.10847116327371004
9.183552,15.053906253428435,0.10887161979436447
9.187648,14.924306342673733,0.10928733216909857
9.19174,14.794030664843886,0.10970551318670904
9.195836,14.66980263766372,0.11008321174156417
9.199932,14.550392869558417,0.11043626276977739
9.204031999999998,14.427848551228339,0.11081840526828772
9.208123999999998,14.311019708848136,0.1111726528457712
9.21222,14.19822263356772,0.11150217201243999
9.216316,14.089125150687286,0.11181955128253653
9.220412,13.981600651757008,0.11213739603486392
9.224508,13.876202761276556,0.1124404026921809
9.228604,13.779322722270953,0.1126968631954375
9.232699999999998,13.69084980984026,0.11290739280659928
9.236795999999998,13.6099975320094,0.11307019162656462
9.240896,13.532734121678587,0.1132172342651826
9.244988,13.465672271672709,0.1133087187816466
9.249088,13.405112389591782,0.11336401115242285
9.253184,13.350267983460734,0.11338334956026469
9.257276,13.299123169729667,0.11338305699561785
9.261371999999998,13.256274757673575,0.11333683278207597
9.265467999999998,13.222398514367601,0.11324711371864991
9.269568,13.198723831386562,0.11309847500040299
9.27366,13.175946365280538,0.11294489153014364
9.277756,13.151939507599694,0.11280592724071077
9.281852,13.126924708143903,0.11267451590784569
9.285951999999998,13.109641268187884,0.11248911797043251
9.290043999999998,13.097065362406788,0.11227412763174346
9.29414,13.088975541000755,0.11203674195786646
9.29824,13.086711920444534,0.11175748691966324
9.302332,13.086464183438205,0.11146149628850588
9.306428,13.092939864156698,0.11112032613541792
9.310527999999998,13.099526269775128,0.1107749798755564
9.314623999999998,13.104318241643533,0.11043828921936652
9.31872,13.104734854036813,0.11011980699947525
9.322816,13.108175291754934,0.10977755996865352
9.326912,13.112623671248,0.1094285816788631
9.331008,13.116850600941197,0.10908680839815724
9.3351,13.120512488459186,0.10873858440477047
9.339195999999998,13.130222026626857,0.10834406712169198
9.343296,13.140485189294202,0.10793294674346678
9.347392,13.148721050736121,0.10751355359072463
9.351488,13.159194245527802,0.10707462370429953
9.35558,13.178406741594198,0.10657901226248748
9.35968,13.200864512785305,0.10605453814605185
9.363775999999998,13.228361992851145,0.1054924374894112
9.367871999999998,13.252381330316872,0.10494301745827533
9.371968,13.276057075407266,0.10438262437475261
9.37606,13.297262619672491,0.10382744282466282
9.38016,13.322610655937439,0.10324306722552158
9.384252,13.348290866902191,0.10264867453792113
9.388351999999998,13.37005003566709,0.10208200862742328
9.392488,13.396295288807046,0.10149880249785315
9.396576,13.42567509217178,0.10089191132028309
9.400672,13.458422313236689,0.10027818986464937
9.40476,13.489375100551573,0.09967348778345195
9.408852,13.514833861716454,0.0990939633162547
9.412948,13.542419231331161,0.09849821963037518
9.41704,13.57426923552106,0.09789519959884051
9.421136,13.603095414386116,0.09731616471393897
9.425231999999998,13.630249302076617,0.09676662259329916
9.42932,13.654944406617485,0.09624431660158911
9.433408,13.671797426758651,0.09577056446845691
9.4375,13.681927029174997,0.0953348450639074
9.441599999999998,13.690716515116588,0.09491716876864699
9.445691999999998,13.701411159708138,0.09449190021285804
9.449787999999998,13.714576005124854,0.09406380709574642
9.453884,13.725503517191807,0.09365655276995671
9.45798,13.737217521233836,0.09324950498442164
9.462076,13.744002541301066,0.09287306850936776
9.466176,13.749447444893548,0.09251290455361248
9.470268,13.75522452318583,0.09214269235929637
9.474367999999998,13.759096442828158,0.09178321882247091
9.478459999999998,13.763422679745757,0.09143546290724366
9.48256,13.76483581623845,0.0911030931394401
9.486652,13.770402862406396,0.09076746111568737
9.490748,13.78404486044945,0.09040709639012753
9.494847999999998,13.799149117542724,0.09005279000089544
9.498939999999996,13.813134707961115,0.08971021323719947
9.50304,13.832392874729646,0.08935691565666658
9.507132,13.85714506764818,0.08898654138861656
9.511168,13.891545196391977,0.08859567612446216
9.515252,13.934585319186084,0.08818953768011388
9.51934,13.988170594680465,0.08776190940968231
9.523424,14.048379980675266,0.08733353704967113
9.527508,14.110173768295754,0.08693401339154078
9.531596,14.180496825066617,0.08652698507805795
9.535684,14.257333267437971,0.08612258233936405
9.539776,14.345279904684803,0.08570810304708354
9.543908000000002,14.441312911482271,0.08529918626791315
9.547996,14.550804171404916,0.08486170050920763
9.552088,14.66827107597827,0.08443403094662012
9.556176,14.79471014930174,0.08399181273568776
9.560272,14.927097566050486,0.0835500865770128
9.564368000000002,15.072378193749207,0.0830761768652686
9.568448,15.22035047207296,0.08260368578996763
9.572532,15.368101300596843,0.08214437585731672
9.576616,15.518654504645697,0.08168294684961797
9.580704,15.670104925569563,0.08122523641868877
9.584788,15.8194287380436,0.08078687370591398
9.588872,15.968974000317509,0.08035101511347431
9.593008,16.118962162191153,0.07991300701098064
9.597088,16.268606731689466,0.07946949424334068
9.601232,16.414994608387534,0.07903329131571118
9.60526,16.55778219991002,0.07859055921837177
9.609348,16.69920683960669,0.07812647967209031
9.613432,16.834339543502743,0.07766175986900901
9.617568,16.969682279523134,0.07717937432815088
9.621648,17.098168037567703,0.07669134899336
9.625775999999998,17.219686092736513,0.07619649725141654
9.629904,17.330093953029845,0.07571628342613948
9.634032,17.43577144379718,0.07521655055780596
9.638164,17.529109348114222,0.07473731220672832
9.642304,17.615258099755636,0.07425550542734297
9.6464,17.690185931621635,0.07378764248832245
9.650531999999998,17.75860037788715,0.07331927385746773
9.654623999999998,17.82554114742691,0.07283157414116917
9.658715999999998,17.887652240216276,0.07234287791205175
9.662804,17.94605232293013,0.07184583502352078
9.666944,17.99916841161831,0.0713370609259558
9.671028,18.045549664906133,0.07083108961393865
9.675168,18.081939389993362,0.070325217664518
9.679308,18.112823671255054,0.06981276894929976
9.683395999999998,18.13809178379127,0.06929582237100664
9.687532,18.158198044877285,0.06878186144436799
9.691676,18.171580888238477,0.06828594865053594
9.695764,18.18350147254945,0.06778644092183522
9.699856,18.184434004560412,0.06730492786677807
9.703952,18.176737960196597,0.0668443384439039
9.708044,18.16724748208275,0.06638559094400584
9.712140000000002,18.155176078243812,0.06592695852687379
9.716276,18.136270531780113,0.06548645095806335
9.72042,18.11960231866617,0.0650337255381149
9.7245,18.09934523805219,0.06458383096221627
9.728648,18.080206824113088,0.06412809292019767
9.732728000000002,18.059384701323896,0.06367084505403436
9.736816,18.03352286965997,0.06322939198770051
9.740896,18.007993212695848,0.06278065375061383
9.744976,17.979661180206755,0.062335402613192016
9.749068,17.951329147717665,0.06188866963489491
9.753152,17.920305464603537,0.061442428862310626
9.757236,17.88872815698974,0.06100612129713333
9.761323999999998,17.85692939957607,0.06057338633626091
9.765415999999998,17.821098875062617,0.060150859832259304
9.769516,17.78638701722404,0.059721455595357374
9.773612,17.756825593160137,0.05927369950101788
9.777704,17.72065147627134,0.05883545791726385
9.7818,17.686493242932443,0.058388802157719376
9.785900000000002,17.659279877118234,0.05792250073880626
9.789992000000002,17.63139074422888,0.057450649245548276
9.79408,17.604509553114475,0.056974569160458094
9.798172,17.583343837949947,0.05648734667124643
9.802264,17.5632967894603,0.05599470308421565
9.806360000000002,17.54605211649562,0.05549722841994661
9.810452000000002,17.522981242681134,0.05501041661369105
9.814547999999998,17.50058613594179,0.05452676036492644
9.818639999999998,17.478191029202446,0.054041647997523756
9.82274,17.451542705563444,0.05357125535356218
9.826836,17.427475307649544,0.053100982894474215
9.830932,17.402067793260894,0.052638855709502386
9.83502,17.37913047969741,0.052178939289337777
9.839112,17.358995541658892,0.0517146360000429
9.843212,17.33640182047074,0.05126381127589586
9.847312,17.317286241882698,0.05081260204072617
9.851404,17.293585271695196,0.05038208265731513
9.855496,17.26372592595808,0.04996853571989627
9.859596,17.238806981871296,0.04956171916398241
9.863688,17.213445138184778,0.04916274941130279
9.867784,17.17867964382393,0.04879245781072237
9.87188,17.142241858288525,0.048437546532555574
9.875979999999998,17.100321464278654,0.04810299319996685
9.88008,17.04832165251931,0.04779180846223477
9.884176,16.984115814560667,0.047510615817608036
9.888272,16.910617050827643,0.04725452999868349
9.892372000000002,16.83555672081999,0.04701067467252573
9.896464000000002,16.75411656546286,0.046787224963493246
9.900552,16.66719380163125,0.04658408340892493
9.904644,16.574001937350094,0.046398887596517314
9.908732,16.471738597094415,0.04623414480961284
9.91282,16.368024415464053,0.04607994922821217
9.916904,16.257254641409062,0.045941106978755385
9.920992000000002,16.140215766904525,0.045820236084846255
9.925076,16.018247908425185,0.04570742137542173
9.929164,15.892248282846062,0.04560225196387277
9.933252,15.765351440391925,0.04549493161059561
9.93734,15.631177555713293,0.0454090151145141
9.94142,15.487699327584739,0.045327845825890827
9.945508,15.3381734488065,0.04525987170029287
9.9496,15.188869019828136,0.04518461829510484
9.953684,15.031046739374924,0.04511715798405937
9.957764,14.868406199846849,0.04505604616295916
9.961852,14.704757718543826,0.04499631684587568
9.96594,14.542792946090893,0.0449388712477147
9.970024,14.381836115412906,0.04487739151482215
9.974116,14.218076909209948,0.044816459522197795
9.978208,14.049942343531871,0.04475026037565593
9.9823,13.877321693478729,0.044681939910614886
9.986392,13.702120117700487,0.044608941910172124
