Time,Force,Position
7.328156,28.572308565014133,0.05975520793039097
7.332188,28.368664231846868,0.05953043171389723
7.336216,28.153069575306773,0.0593627317362125
7.340244,27.930697864519587,0.059267236189515723
7.344272,27.706390193911236,0.059263468078952206
7.3483,27.483624706081834,0.05935201723611225
7.352332,27.260828417081232,0.05953139110684521
7.356356,27.037768459434027,0.05979297032978991
7.3604,26.810523790940355,0.06014540233424012
7.364396000000001,26.577964327249813,0.060580964937278096
7.368387999999999,26.348275745137435,0.06109579668317881
7.372432,26.11888853655365,0.061703409709183255
7.376476,25.898885595148528,0.06239579056172747
7.380511999999999,25.68837764582198,0.06317394265335469
7.384536000000001,25.47839251982391,0.0640456238437605
7.388568000000001,25.27116755050408,0.0650050739709911
7.3926,25.064797579212513,0.06605693167952134
7.396624000000001,24.85737744729927,0.06720475904964088
7.400652000000001,24.652484604588853,0.06843693691858264
7.404695999999999,24.45102768563181,0.06976947035560331
7.408748000000001,24.26342970055295,0.07118645214149955
7.412800000000001,24.10123232615195,0.0726613667701996
7.416831999999999,23.94117297787632,0.07416418354792677
7.420884000000001,23.772561525099235,0.07566848333754889
7.424872000000001,23.58862887939376,0.07713354723757436
7.428912,23.380059279634423,0.07856556866817528
7.432944000000001,23.15269034434658,0.07996458466649708
7.436960000000001,22.907885025356045,0.08135189400986814
7.440988000000001,22.655291258488074,0.08271816181211682
7.445016000000001,22.39391251964326,0.08408406436930334
7.449096000000001,22.123626666246125,0.08543455147041494
7.453176000000001,21.841730629996118,0.08676234215632413
7.457208,21.53566337464305,0.08809377465083476
7.461235999999999,21.213377709486576,0.08939751495175004
7.465263999999999,20.879814036177027,0.09067722456923391
7.469244,20.537331830639623,0.091933044177576
7.473272,20.19233375357493,0.09316334242242529
7.477296000000001,19.843701138308052,0.09437651958948778
7.48138,19.492109751914143,0.09557590024264548
7.485456000000001,19.13676168474258,0.0967482218296308
7.489544,18.774510968893072,0.09788592299834972
7.493632,18.398966361340587,0.09899768522404093
7.497720000000001,18.019687908361522,0.10010995740145781
7.501800000000001,17.64510557188185,0.1012307650127468
7.505884,17.282309197352802,0.102369380005027
7.509956000000001,16.940725270799764,0.1035055135190065
7.513984000000001,16.611270898572688,0.10467783438374234
7.517956,16.29807715499576,0.10583094952511772
7.522044000000001,15.99463065446849,0.10696741564188604
7.526116,15.70294728054078,0.10807681935319163
7.530191999999999,15.423259900688024,0.10916605777500218
7.534272,15.159833149485417,0.11022030576160827
7.538352,14.919623312133185,0.1112216092444179
7.542428000000001,14.696017695806438,0.11219300813176988
7.546508000000001,14.489348475204979,0.11312183505977706
7.550596,14.294785973578415,0.11401263525317826
7.554672,14.106824747101205,0.11486496301919177
7.558752,13.92636201264836,0.11567512942509288
7.562828,13.756200145744852,0.11642131045847595
7.566904000000001,13.598477172516041,0.11710584162200721
7.570984000000001,13.452185151186983,0.1177302715312181
7.575064000000001,13.317667674133013,0.11830299801776292
7.579143999999999,13.197604974303635,0.11878510472159332
7.583220000000001,13.08897322637401,0.11920126548999557
7.587296,12.989745129118706,0.11953632342820529
7.591380000000001,12.893529439512712,0.1198263602032065
7.595460000000001,12.810749167680825,0.11999911700973077
7.599544,12.733230054523546,0.12012386788408079
7.603572,12.665236734616059,0.12018152417238483
7.6076,12.605982715983286,0.12017271868838789
7.611636000000001,12.55210058092505,0.12010888418775685
7.615664000000001,12.502803837466276,0.11998973975334537
7.619692000000001,12.455843734581668,0.11981466858496512
7.62372,12.411342414846695,0.11960573203873939
7.627748,12.370639994736104,0.11934157853550953
7.631768000000001,12.334977283500244,0.11903108305001789
7.635792,12.307045931764156,0.1186585238568791
7.63982,12.289869764852677,0.11819751894286344
7.643844,12.277733306815932,0.11769029540464612
7.647876,12.271079457253657,0.11712204175030738
7.651899999999999,12.268235924991302,0.11652504430745053
7.655927999999999,12.26594601722862,0.11590739368099733
7.65996,12.263323934766134,0.11530058661816918
7.663984000000001,12.268654661603286,0.11462843199328596
7.668012000000001,12.275779822190461,0.11394719107765351
7.672048,12.28962840050246,0.11321708632980851
7.676076,12.301793269964369,0.11249363253621214
7.680099999999999,12.319330023000818,0.11171753925948667
7.684127999999999,12.336412458761993,0.11093239624290153
7.68816,12.356175127472667,0.11011135397354743
7.692184000000001,12.378175129533108,0.1092673469211113
7.696208,12.40129379826843,0.10841371645118023
7.700236,12.429463593554019,0.10754856761129573
7.70426,12.463681039489286,0.10663807570451052
7.70828,12.499582194274641,0.10572679054499241
7.712308,12.539293666359914,0.10479502434664677
7.716328000000001,12.580578122395341,0.10386818984638815
7.720368000000001,12.619514520181072,0.10297550939853578
7.724456,12.659015960142009,0.10209445930023565
7.728552,12.697177283628193,0.101237079170061
7.732644,12.739148924414298,0.10036369524261907
7.736736,12.786614591350405,0.09946982361325574
7.740828,12.84001718403626,0.09854119274525025
7.744916,12.89140389317222,0.09763722198214432
7.749004000000001,12.944695760958139,0.0967287751296674
7.753036,12.995971745194163,0.09584083253828007
7.757124000000001,13.05263103068026,0.0949388785497482
7.761208,13.108625966766745,0.09406668761714115
7.765292,13.166193886803388,0.09320000171138822
7.76938,13.220516531715319,0.09236670336478572
7.773468000000001,13.277530827252289,0.09153134754431044
7.777552,13.33701532361442,0.09070076631912194
7.781639999999999,13.394251068951258,0.08987221936339367
7.785724,13.448573713863194,0.08906631984783467
7.789816,13.50210986680005,0.08826476933696419
7.793903999999999,13.55643251171198,0.08747127990480454
7.797992000000001,13.611984548198729,0.0866723989967171
7.802087999999999,13.668876701160228,0.08586347314531213
7.806179999999999,13.727441145296284,0.08503535243957672
7.810271999999999,13.787013531207286,0.08420603206163113
7.814360000000001,13.841989107843295,0.08339855902544552
7.818448,13.892367875204307,0.08261221359238809
7.82254,13.939157775065276,0.0818418170706831
7.826640000000001,13.983256024301209,0.08108249453204305
7.830768000000001,14.025559839787118,0.08033224536061002
7.834864,14.066966438398014,0.07958673556578177
7.838956,14.106689328158822,0.07884895809361671
7.843096000000001,14.141139641569493,0.07812200685363482
7.84718,14.175811404780033,0.07739271968656984
7.851268000000001,14.211601834665458,0.07665764011695705
7.855356,14.242684730375952,0.07594182906488366
7.859440000000001,14.268605774636244,0.07523354508542313
7.863528,14.294083919296796,0.07454020240713015
7.867624000000001,14.321467222607309,0.07384374163492526
7.871712,14.348064033942741,0.07314802465852814
7.875808000000001,14.369720443627843,0.07245250869018788
7.879948000000001,14.382969726738036,0.07178134757744392
7.884028000000001,14.389827766823212,0.07112467624604116
7.888112,14.392543314908664,0.07049093237040024
7.892252000000001,14.391104953318862,0.06985536827142162
7.896388,14.389101549553853,0.06921194216544753
7.900468,14.381936294338646,0.0685684725121277
7.904555999999999,14.370063504948504,0.06793658753599922
7.908647999999999,14.356617731608212,0.06730021760163354
7.912732,14.337899381917783,0.06666648839351878
7.916872,14.316821556302125,0.06602555138285707
7.920960000000001,14.287779503711292,0.06539029486763953
7.9251,14.265571593745218,0.06473128713150304
7.929244000000001,14.237869657629137,0.06408029878951128
7.93338,14.209491954437913,0.06342368132503673
7.937512,14.18245436772144,0.06275259090245328
7.941656,14.156313997879982,0.062078396383387885
7.945784,14.125233226388188,0.061395031226511985
7.949908000000001,14.087085444796235,0.060713534745955325
7.953991999999999,14.041427753504387,0.060042982635101286
7.958124,13.993422003962836,0.05938487462145224
7.962251999999999,13.946534921096172,0.058714503934083194
7.966388,13.897742679579544,0.058042675325104036
7.970532,13.842448470137969,0.0573763119262405
7.974672,13.785924869121573,0.05671454126216322
7.978796000000001,13.72166990860541,0.05606668919377713
7.982932,13.655177614739483,0.055424153346250074
7.987068000000001,13.581961903148732,0.05478963670703587
7.991200000000001,13.498666773808518,0.054183872599758515
7.995340000000001,13.4101104857937,0.05359401666964092
7.999476,13.316182314204342,0.05302445410864416
8.003612,13.216660809240578,0.05247985513046235
8.007744,13.09764481817749,0.05198143905891628
8.011876,12.969778800939752,0.05149979397393591
8.016004,12.824212731352715,0.05106163840854492
8.020132,12.65915217566635,0.050667182516651255
8.024268000000001,12.47481858368053,0.05031002052960792
8.028412,12.280405573945242,0.049978337876650014
8.032544,12.069189728735669,0.0496896872931127
8.036684000000001,11.849123857351444,0.049417560226318144
8.040768,11.612808774992603,0.049173167360484694
8.044852,11.359125814984266,0.04896326391571539
8.04894,11.088972194201444,0.04878998068651691
8.053032,10.805371737968978,0.04864221794604266
8.057112,10.504403404087014,0.048533945675866906
8.061196,10.188980292980458,0.04845966431275498
8.065284,9.863023446849166,0.04840079565552934
8.069372,9.528548749243027,0.04835007571156335
8.07346,9.185777649961913,0.04830430489730966
8.077548,8.832915715255801,0.048254431176819886
8.08164,8.464358194074743,0.04821579760257194
8.085728,8.083804678818732,0.04819011794683708
8.08982,7.697978587212581,0.048149225392864106
8.093908,7.306547744556491,0.04810034580286844
