Time,Force,Position
8.753304,15.402769354835359,0.04665551090884827
8.757387999999999,15.271863580632502,0.04660716410622436
8.761476,15.133337171829812,0.04656881316649392
8.765555999999998,14.990213953752129,0.04653249493904692
8.769639999999999,14.844964127224616,0.04650338003686445
8.773727999999998,14.69601470829712,0.046475837144967794
8.777816,14.543033522269837,0.046458120997255
8.781903999999999,14.390052336242555,0.04644016085326621
8.785991999999998,14.234158049790368,0.046428242614928755
8.790076,14.066832811438431,0.04643338593012097
8.794163999999999,13.897037372261327,0.046432408179774655
8.798252,13.723431615784305,0.046437257590173496
8.80234,13.54735565848212,0.046436596315886036
8.806415999999999,13.366682891904937,0.04643920653586497
8.810495999999999,13.188026008877651,0.04643550567408269
8.814575999999999,13.003875099700357,0.046434196930969986
8.81866,12.81838407404831,0.04644481310010535
8.822743999999998,12.636592640796247,0.04645375367457601
8.826823999999998,12.45188810711928,0.04646934598271771
8.830903999999999,12.263594705942266,0.0464849230289603
8.834988,12.0687993368403,0.04650852041205395
8.839068,11.867391274913444,0.0465435250229188
8.843152,11.663402287261485,0.04657596370099816
8.847228,11.459413299609531,0.0466088219730402
8.851315999999999,11.250716777782646,0.04665097422335011
8.855404,11.038885705730985,0.04671063579379024
8.859492,10.823587908754746,0.04680420748216033
8.863588,10.606629238279485,0.04697146447411005
8.867676,10.399119889180682,0.04723901279317306
8.871763999999999,10.204881596433783,0.047638317163057546
8.875839999999998,10.02090195238948,0.0482146826155554
8.879928,9.845165073497883,0.04898256556753053
8.884011999999998,9.6879946626594,0.049943680506224095
8.8881,9.546588344349047,0.05110298017314423
8.892187999999999,9.416360726967373,0.05249792215105005
8.896275999999999,9.307635513414779,0.05412340076178712
8.900367999999999,9.214242910466115,0.05597639852662531
8.904456,9.14167694427139,0.058025259689370584
8.908548,9.094312974305724,0.06025674154664267
8.91264,9.071143058794172,0.06266890541518234
8.916735999999998,9.079001340361494,0.06521311868117499
8.920827999999998,9.111164401282862,0.06792567754192169
8.924928,9.165727082908322,0.07080323917105155
8.929015999999999,9.237981851062942,0.0738581498597069
8.933112,9.333422731896734,0.07706449449969406
8.937208,9.45159540813442,0.08039791516294967
8.941303999999999,9.590804753250378,0.08382287833857206
8.9454,9.75136010659335,0.08724378210361021
8.949496,9.915970062387176,0.09065617019959211
8.953591999999999,10.084501060380854,0.09400221621110134
8.957688,10.249985397698623,0.09727091241562055
8.961784,10.415324757089861,0.10041063944125896
8.965879999999999,10.57052761035397,0.10342453377002143
8.969975999999999,10.719625724590733,0.10628397076863823
8.974072,10.86394779859937,0.10893725166467155
8.978164,10.994620970854166,0.11139400283193407
8.982263999999999,11.111202341755376,0.11369043638481431
8.986351999999998,11.209316551827884,0.11585099399455949
8.990447999999999,11.291090209521515,0.11785441761987044
8.994539999999999,11.358317748586291,0.11969997264068635
8.99864,11.405848735247545,0.12144881401458096
9.002735999999999,11.443430412554939,0.12302338065694529
9.006832,11.469046896958579,0.12445345422518492
9.010932,11.487848622233134,0.12568792113085786
9.015024,11.493665795153454,0.12677128354476988
9.019116,11.487960674769763,0.1277090839521565
9.023212,11.473768504082429,0.12850361944713007
9.027304,11.44303716656741,0.1292746668590188
9.0314,11.409457782825292,0.12995476632941858
9.0355,11.377527854906667,0.13053927344548813
9.039596,11.354203668011754,0.13098910704461705
9.043691999999998,11.336239947015846,0.13134435470797134
9.047784,11.321288633669244,0.13164153484717056
9.05188,11.31125488662191,0.13186105715091248
9.055976,11.30479858939909,0.1320266428834697
9.060068,11.303382001051002,0.1321392765868447
9.064164,11.31338494692713,0.1321213395580597
9.068256,11.332348643877847,0.1320103502076884
9.072352,11.354889790653077,0.13184486286335717
9.076448,11.380000445477876,0.1316356647460165
9.080536,11.410139391501872,0.13134342971204047
9.084636,11.43667805235029,0.131047930621725
9.088716,11.46522117907307,0.1307022310613336
9.092804,11.491737004570421,0.13035117430748813
9.096892,11.520822338117341,0.12995700504549657
9.10098,11.549785529088796,0.12953949966566228
9.105064,11.573919043309852,0.1291385524092098
9.109144,11.60106496518022,0.12867405905354323
9.113236,11.62864236897479,0.12816474055091173
9.11732,11.648022678318787,0.12768889365222943
9.121408,11.659316618112141,0.12724391007519084
9.125496,11.663654272705273,0.12684153187902866
9.12958,11.669332043773156,0.1264157893538159
9.133667999999998,11.667610630041075,0.12604913431606019
9.137752,11.661181682134066,0.1257228899857347
9.141839999999998,11.654531284427186,0.12540577827640914
9.145924,11.641390336470886,0.12516950766260676
9.150011999999998,11.626233504964695,0.1249542291516752
9.154103999999998,11.608507165408938,0.12478108755883902
9.158192,11.588100592903672,0.12465464433560249
9.162284,11.563673670974154,0.12459827258838692
9.166424,11.54374425109523,0.12453932293800409
9.170508,11.526628624416809,0.12448536550706073
9.174592,11.51020018248906,0.12446198998113517
9.178676,11.497261300836957,0.12444627251982608
9.182768,11.484788154135662,0.12446961732331388
9.186872,11.478717668134914,0.1244747707456776
9.19096,11.475239525534802,0.12449433554495565
9.195052,11.471329901010483,0.12455888648728178
9.199084,11.47606027053648,0.12457702963306662
9.203124,11.487193300763025,0.12457798403199703
9.207211999999998,11.505282616189797,0.12454069844364014
9.211303999999998,11.527636566191756,0.12448386400484737
9.215395999999998,11.560978568493725,0.12435023933603234
9.219487999999998,11.601276855995923,0.12417991843250525
9.223579999999998,11.644045344323283,0.12400245834117053
9.227676,11.696007451200632,0.12376188035414266
9.231772,11.752012742853301,0.12351184875910493
9.235872,11.814974319706195,0.12322615821084147
9.239952,11.886453748033933,0.12287587804079701
9.244036,11.965553810961508,0.12246587998009272
9.248124,12.049582857863879,0.12201801560376628
9.252216,12.133169005166511,0.1215907000414369
9.256352,12.221573411544007,0.12112803968176028
9.260388,12.306278225521522,0.12069427763565482
9.264468,12.394006864823877,0.12023429765029056
9.26856,12.480727562351285,0.11978760207389696
9.272652,12.572266518953557,0.11930865152656624
9.276739999999998,12.671647559955533,0.11877185909131968
9.280772,12.771028600957507,0.11824359900821874
9.284847999999998,12.866145007384295,0.11773686125209373
9.288875999999998,12.956431737060685,0.11724501656039507
9.292955999999998,13.041888789986679,0.11676961128778315
9.29704,13.120500282612381,0.11632867892870315
9.30112,13.197416648712464,0.1158750416782113
9.305208,13.270289830037225,0.11543263189434652
9.309284,13.335530959086618,0.11502275070826325
9.313372,13.3970610780605,0.11461351920579357
9.31746,13.455101636758734,0.11419831866325818
9.321548,13.507415301831559,0.11380141546709735
9.32564,13.554002073278976,0.11342093292527228
9.329724,13.595648443076062,0.1130571043761007
9.333812,13.636042585947266,0.11266234373509204
9.3379,13.668804676543102,0.11229415773398678
9.341983999999998,13.704357724988379,0.11188724280183113
9.346068,13.73597831355827,0.11148551678123647
9.350148,13.766690267577616,0.11106588376035542
9.354232,13.792683269746501,0.11065413873065245
9.358312,13.80701245254023,0.1102985278034945
9.362388,13.816290508783691,0.10995848844348495
9.366472,13.82982178192681,0.10958280402712993
9.370552,13.847274097269782,0.1091819290080665
9.374631999999998,13.866410121462843,0.10877781871712916
9.378711999999998,13.88868069588068,0.10835003490185513
9.382791999999998,13.902322693923734,0.10797464064139144
9.386872,13.918202025316551,0.10757834193483151
9.39096,13.936429414959068,0.1071580872713084
9.395044,13.956783413051411,0.10672157693388139
9.399136,13.973659268543644,0.10629733615310563
9.403228,13.991653790710759,0.10586388535536218
9.407316,14.010988429352624,0.10541387721004722
9.4114,14.027520692469515,0.104978992387055
9.415484,14.039234696511548,0.104572911668338
9.41956,14.054083250778353,0.10414207641879311
9.423648,14.061421895345259,0.1037508512587136
9.427732,14.073910973686834,0.10332279876562986
9.431819999999998,14.08561356005333,0.1028960933248379
9.435908,14.092608612244899,0.10249376177179872
9.44,14.102738214661242,0.10206636714999308
9.444092,14.11488370062748,0.10162574521962855
9.448184,14.122543102218657,0.10120439491222218
9.45228,14.127400128284867,0.10079823908990361
9.456368,14.129000461550831,0.10039622222013088
9.460464,14.125782535741932,0.10002178424566784
9.464552,14.129509477457727,0.09960279683945737
9.468588,14.131220535623626,0.0991976546193686
9.47262,14.130362085739959,0.09882277580224222
9.476704,14.126369085631518,0.09847156278000546
9.480752,14.127648661873211,0.09810434104404472
9.484892,14.127588121640152,0.09775413767217542
9.488948,14.128879115557377,0.09741151468597843
9.493092,14.132075268124558,0.09705916107712356
9.497196,14.140543997041876,0.09669109836352506
9.50134,14.151372201884426,0.09632487930426385
9.505439999999998,14.174417850601806,0.09590388457302017
9.509524,14.194218224194476,0.09551096892677034
9.513611999999998,14.214805089762223,0.09511955172314003
9.5177,14.239878039705026,0.09471314541170871
9.521783999999998,14.266745423397854,0.09430206919537162
9.525872,14.292937040015545,0.09388907472811898
9.529956,14.320025873508243,0.09347414644052512
9.534044,14.348454823475691,0.09304535861457966
9.538128,14.377448815618349,0.09262342483089803
9.542216,14.409810225461182,0.09219738636025232
9.546296,14.443633894354235,0.0917779991191358
9.550392,14.484856748047253,0.09133363315196473
9.554484,14.530222093739992,0.0908644579911164
9.558572,14.57939775673265,0.09038032986879152
9.562664,14.629581361500254,0.08989497890102889
9.566752,14.682788791592701,0.08939519674094405
9.570844,14.735099004810133,0.08890067986125108
9.574936,14.789092926877654,0.08840656515433175
9.579024,14.844316240519992,0.0879045998858277
9.58312,14.898753062187252,0.08740567392953641
9.587212,14.946687915929562,0.08693551498716078
9.591308,14.994954944371674,0.08645869363619985
9.595403999999998,15.046024348338758,0.08597536461184169
9.5995,15.102022736280642,0.08547306985728713
9.603599999999998,15.160712774847559,0.08496796880167015
9.607691999999998,15.222880956014588,0.08446076992965415
9.611792,15.289535221556676,0.0839468079546905
9.615884,15.357430296349113,0.08344729494011194
9.61998,15.430475804916222,0.08292314062998547
9.62408,15.504628562482678,0.08237426601242827
9.628215999999998,15.576864743723641,0.08181545993862899
9.632304,15.642476814464183,0.08126390203145221
9.636396,15.705950859079366,0.08070805678266386
9.640488,15.768405544244068,0.08014056304067867
9.644628,15.82401466910848,0.07958206713111154
9.648712,15.878493709622479,0.0790145517026481
9.652796,15.931056173810985,0.07843459942151496
9.656888,15.983717945223894,0.07783481224078023
9.660927999999998,16.031328590086535,0.07723950857871736
9.665024,16.077022658623687,0.07663247507194057
9.66912,16.119681484160466,0.07601966703335103
9.673196,16.15818640002199,0.07540770231290302
9.677288,16.19186163913312,0.07479425618624623
9.68138,16.21812627576875,0.07418167972527634
9.685467999999998,16.239671960553917,0.07356411581534816
9.689508,16.255712201513546,0.07293966873450826
9.69354,16.266246998647638,0.07230866895932339
9.697576,16.27598388613112,0.07165863474781183
9.701604,16.28078037196427,0.071008052325974
9.705684,16.28299593207232,0.07036044818342052
9.709768,16.28913253438022,0.06970255096286831
9.713796,16.294261194913176,0.06904869808577294
9.717872,16.297706146596038,0.06839513894379022
9.72196,16.293641188579006,0.06775775723003306
9.726044,16.291702839011805,0.0671088937042458
9.730128,16.286175621944547,0.06646472132497495
9.734216,16.282775013327125,0.06581074579643478
9.738295999999998,16.27657202918473,0.0651631191728163
9.742384,16.272274203692294,0.06451027444627978
9.746472,16.26718988622478,0.06385567110102675
9.750552,16.26020041010731,0.06320349264287649
9.754628,16.255116092639796,0.06254553600854455
9.758712,16.248348066322194,0.0618853832397995
9.762792,16.237105373305067,0.06124680719580117
9.766872,16.222949579863034,0.060614057387301606
9.770952,16.20655645307124,0.059991145119056906
9.775044,16.179408141454832,0.05939287330891303
9.779124,16.13791577751377,0.05882242728226823
9.783207999999998,16.091383704697975,0.05826536525846071
9.787287999999998,16.034207171957508,0.05772967960142076
9.791324,15.959884211367408,0.05722551538272431
9.795352,15.876256907327386,0.05673008754448248
9.799435999999998,15.782660910437835,0.056259660628350874
9.803476,15.687835521973465,0.055792186712394214
9.807512,15.583938657534576,0.05534910351731782
9.811544,15.472764750871189,0.0549291774402321
9.815584,15.35028203488352,0.054545930399172965
9.81968,15.218617118021395,0.05418957192170746
9.823712,15.080793825609655,0.053850612094621754
9.827748,14.930653782098688,0.053551039381190456
9.831784,14.77514185501318,0.053270803272044906
9.83582,14.607756076428181,0.053018537410931973
9.839852,14.429847980493978,0.05280572977666486
9.84388,14.249591826310077,0.0526040764232566
9.847912,14.06082923832686,0.052436621759001524
9.852,13.863781666344202,0.05229776955667411
9.856088,13.670888004036797,0.05216169278927385
9.860176,13.48394268515467,0.05202777100557141
9.864204,13.28972032404805,0.0519202902183769
9.868227999999998,13.097303814366983,0.05183431967210312
9.872255999999998,12.906914605911343,0.05176393930714661
9.876388,12.714631656481277,0.05172067190343823
9.88042,12.526834791426271,0.05167200614725547
9.884448,12.33736563519671,0.05164437637529331
9.888488,12.150366679792315,0.05162010402853847
9.892524,11.961130391038155,0.051609284920045
9.896556,11.769878218734105,0.05160643688799802
9.900595999999998,11.575602221105214,0.05161539318433048
9.904636,11.375278572826641,0.051647923012257235
9.90872,11.179551733823065,0.05167619032457798
9.912756,10.980579619694776,0.05172655129531916
9.916792,10.787777298791635,0.05177823288917411
9.920832,10.600801178738308,0.05181250024754826
9.924919999999998,10.414833000459925,0.0518404490966183
9.928944,10.232785864381395,0.051855718981160634
9.932972,10.055446262477792,0.051860792487966594
9.937004,9.876877268999372,0.05187825234702636
9.941088,9.695284450196116,0.05190934678758624
9.945176,9.522885249942844,0.051927506258684676
9.949264,9.349810282614433,0.05193898403066993
9.953292,9.181442849460948,0.051938959424696965
9.95732,9.020585326007362,0.05192194142471235
9.961352,8.856482527429069,0.05192858308255232
9.965388,8.696300771050627,0.05191765674289629
9.969411999999998,8.537913448422207,0.05190334073064349
9.973452,8.382107051518892,0.05189493166235068
9.977492,8.231683955865641,0.05188513289089372
9.981528,8.089335812087501,0.051872181107038
9.98556,7.952703144259236,0.051840850176559934
9.989596,7.820888735505834,0.05178715302332981
9.993628,7.6947898027023065,0.05171530762001156
9.997664,7.570596028548739,0.05163427172691534
10.0017,7.4441649210454095,0.051574921525425504
10.005728,7.314599263317303,0.051538891885524345
10.009756,7.186606589539352,0.051512369016980225
10.013796,7.056376582411637,0.05151263045874818
10.017828,6.927830284134012,0.05152084160195487
10.021908,6.8009676947064746,0.051537704019339485
10.025992,6.67309716350399,0.05155945376276696
10.03002,6.5470210660515304,0.05158024258318831
10.034104,6.416913201499283,0.05163390302931103
10.038184,6.286805336947036,0.05168423846889361
10.042264,6.160618514594641,0.0517126625714699
10.04634,6.031407866917405,0.051763071260280014
10.050376,5.898386901940253,0.05183222571976509
10.05446,5.766484603637982,0.05189040593272324
10.058535999999998,5.634693030235646,0.05194309649620932
10.06262,5.5032336315331145,0.0519693086867018
10.066707999999998,5.367853190630732,0.05202630510519943
10.070792,5.224630665328644,0.052143179205776095
10.074884,5.0843212404514615,0.052235314086564184
10.078976,4.940090773374427,0.052362055921251933
10.083072,4.798773406722298,0.0524762221873264
10.087164,4.660147690695206,0.052603174664381545
10.091256,4.51972754091809,0.05274293372608151
10.095351999999998,4.3832284333408245,0.05286051659393265
10.099448,4.249077384013258,0.05292008795912932
10.103544,4.117052943135519,0.052948214411435525
10.107576,3.9803209680828524,0.053014510889836684
10.111664,3.844154035205392,0.053130111796744234
10.115752,3.710900202752837,0.05323958787796716
10.119832,3.5755197618504537,0.05340008364117764
10.123919999999998,3.4409258129231475,0.05357015258284905
10.128004,3.3063318639958412,0.05376213277083717
10.132088,3.1744295656935706,0.053973214062441155
10.136171999999998,3.0471240766662935,0.054154326576749574
10.14026,2.922510238264052,0.054332069996470285
10.144352,2.7945403998371656,0.054646862223993946
10.148432,2.675874904860202,0.05489451985452203
10.152524,2.563600652908257,0.055161204245729664
10.15656,2.4509942262565074,0.0554827922399993
10.160652,2.3439925506546975,0.05577331455256267
10.164688,2.244279334952916,0.05600005506466781
10.168772,2.1502815952010126,0.05615592634529604
10.172864,2.0634615904492026,0.056300731496224964
10.176956,1.9813491198723212,0.05636408429159859
10.181044,1.8975643581208843,0.05660353613829842
10.185132,1.8172577389695599,0.05684269282102702
10.189168,1.7452475214932115,0.057021010089822056
10.193252,1.6801821715415548,0.057017753082742074
10.19734,1.621508064614916,0.05696222081771683
10.201432,1.5655256083133124,0.05692248364873269
10.20552,1.5082030355369578,0.05703967703459471
10.209604,1.4552558222357275,0.0571971523872599
10.213696,1.407581185284633,0.057378228252381924
10.21778,1.3576692149837755,0.05774924646552666
10.221868,1.3095516784329417,0.05811029432359216
10.225955999999998,1.2663631258569066,0.05835924801412805
10.230044,1.2192535310810195,0.05547904324251639
10.234132,1.1768514704800612,0.05254238046443917
10.238212,1.1353466267541148,0.04957805913728324
10.242296,1.0929445661531565,0.04662026881636927
10.246376,1.0457242464773346,0.043726944115072226
10.250464,0.9981717521017078,0.040878484225609676
10.254548,0.9489355488759925,0.038023834274022915
10.258628,0.8991457211506028,0.03525178269046647
10.262712,0.8533876605249996,0.03234904750153059
10.266792,0.8085268167744085,0.029464020073710476
10.270876,0.7637766979237522,0.026604967327233362
10.274956,0.7176864625983447,0.023878981954687246
10.279032,0.6686831268480318,0.02118597336138057
10.283119999999998,0.6215849497476775,0.018437652379901023
10.287208,0.5812101903721455,0.015533772515175608
10.291292,0.5416219229716904,0.01255980188371664
10.295376,0.5049467559961406,0.009532564050490846
10.299464,0.4719711814205728,0.006345645147763212
10.303548,0.44168725747004056,0.003173539746789378
10.307636,0.41499220101955553,0.0
10.31172,0.3936804458191415,0.0
10.315812,0.3723686906187276,0.0
10.319892,0.3528513691683372,0.0
10.323975999999998,0.33659074051818955,0.0
10.32806,0.3211166038431188,0.0
10.332088,0.3112472182179888,0.0
10.336168,0.30485597519297114,0.0
10.340248,0.29969412374276994,0.0
10.344332,0.2999155735426396,0.0
10.348412,0.3026072241676751,0.0
10.352496,0.3038480334180244,0.0
10.35658,0.3049781177684388,0.0
10.360672,0.3129423447436104,0.0
10.36476,0.32561410589371076,0.0
10.368848,0.33727792526886446,0.0
10.372936,0.35308423664373983,0.0
10.377012,0.36608817249364484,0.0
10.381092,0.38200520876845506,0.0
10.385176,0.3959063614933719,0.0
10.389264,0.408799572443342,0.0
10.393348,0.41810391589326484,0.0
10.39744,0.4244951589182825,0.0
10.401535999999998,0.4326808356933238,0.0
10.405627999999998,0.4422066289431164,0.0
10.409724,0.45755862304271944,0.0
10.413816,0.46651937411730476,0.0
10.417912,0.47357496654193165,0.0
10.422,0.48253571761651703,0.0
10.426096,0.4839865589912033,0.0
10.430184,0.4791568822408067,0.0
10.434276,0.47656453884017325,0.0
