Time,Force,Position
9.990484,13.525124108172223,0.04453404035177363
9.994576,13.336021379669065,0.044467691330192634
9.998664000000002,13.14221111699098,0.04440517185666259
10.00276,12.938985785963036,0.04435311068091617
10.006848000000002,12.732171587435044,0.044297729360567514
10.010940000000002,12.513250669932155,0.04425025349782434
10.01504,12.284914684079414,0.04421145106451175
10.019132,12.057132322726346,0.04415391736968958
10.023228,11.826436860948373,0.04409923758127662
10.027328,11.589460881045317,0.04404025590261792
10.03142,11.342848382992536,0.04399868906049057
10.035516,11.093433509414782,0.04395832147043883
10.039612000000002,10.840540493236913,0.043910949340159725
10.043708,10.580359017159017,0.04386314782838484
10.047808,10.31669939848101,0.04380804091672029
10.0519,10.043624711453143,0.04376569732712613
10.056,9.761024231175483,0.04374266323832309
10.060096,9.473605491822962,0.043729796826595724
10.064191999999998,9.183495101845404,0.04371239312433589
10.068283999999998,8.89259821989277,0.04368420405362248
10.07238,8.600914845965058,0.043644536309052746
10.076476,8.315057672887155,0.043580129840534214
10.080568,8.02841400783418,0.04350447197482262
10.084668,7.742999734356017,0.04340873002781731
10.088768000000002,7.45445091065308,0.04333088863297988
10.092860000000002,7.171285388200214,0.04325116365994637
10.096956,6.891819458147331,0.04315928840818475
10.101048,6.608432485894594,0.043071508788319154
10.105148,6.322476005592293,0.04304474451884295
10.109244,6.042479286390799,0.04314152575474798
10.113344,5.773493454840385,0.0434331131859868
10.117436,5.516427145491591,0.044008769253405744
10.121531999999998,5.273983426644989,0.04495609876089954
10.125632,5.0521106417258554,0.04629118728488835
10.129724,4.8471206160097395,0.048091791859484485
10.13382,4.668993460021709,0.05028735114637777
10.137916,4.522669575412093,0.0528371885420724
10.142016000000002,4.408603279456165,0.05569292391832937
10.146108000000002,4.319849704629234,0.058924218596631966
10.150208,4.258203284681322,0.06244288500100814
10.1543,4.221648136062536,0.06624996904153076
10.158396,4.210073533872942,0.0703126902662394
10.162492,4.229305678962349,0.07454078618736723
10.166588,4.281139005080781,0.07890652470741776
10.170684,4.363889803378149,0.08341130483004322
10.174779999999998,4.476328682279638,0.08803873694643696
10.178876,4.619463583560194,0.09276107115029526
10.182972,4.796772649819929,0.09756770867206865
10.187068,5.010481796733074,0.10233780236989481
10.191164,5.254631263198817,0.10697524561242207
10.19526,5.517988711766213,0.11144628882474542
10.199356000000002,5.798404698634367,0.11562775073189673
10.203448000000002,6.090030187602402,0.1194453551559419
10.207548,6.3870161424694425,0.12286173858856898
10.211644,6.683624251934549,0.12583694909456936
10.21574,6.97412762237231,0.1284198881177124
10.219836,7.255258143306952,0.13061288745377936
10.223932,7.521178196213128,0.13249795602390937
10.228027999999998,7.777824706840589,0.13400319840796154
10.232124,8.018695707264378,0.13525397817422538
10.236216,8.2467042979094,0.1362327925376469
10.240312,8.46185047877566,0.13697164275138002
10.2444,8.663126308088207,0.1375277931967097
10.248496,8.846721468547125,0.13796681900030983
10.252592,9.016999901952007,0.1382206864686033
10.25668,9.169586248827725,0.13834464398766994
10.260768,9.305942768224499,0.1383568650309897
10.26486,9.421694100667207,0.13830078861581907
10.268944,9.517183838531185,0.1382114817750718
10.273036,9.592423399491969,0.1381290299414873
10.27712,9.65762576155002,0.13797369273802784
10.281212,9.709213474880828,0.13781700058438287
10.2853,9.750221782484767,0.13765068169548123
10.289383999999998,9.782910853062662,0.13750454834110537
10.293475999999998,9.819398823264939,0.13728503287070168
10.297556,9.85856702641672,0.13701164212284933
10.301648,9.897170187393295,0.136734831321663
10.30574,9.939140766070048,0.13643839921861506
10.309828,9.987613312671751,0.13608389512931532
10.313911999999998,10.042477102298474,0.13567274815534633
10.317992,10.099467500375024,0.13523404133192318
10.322076,10.155892856276367,0.134790227581946
10.326160000000002,10.209848011352543,0.13436338162391515
10.330248,10.266261949578352,0.13389499158408716
10.334332,10.321667946029217,0.13344398234440566
10.338416,10.380552085080193,0.13297225573510238
10.342504000000002,10.435625906831252,0.13254142420967255
10.346588,10.495739437457043,0.13205356323514064
10.350676,10.554845026307888,0.13157901203095804
10.354764,10.612266906308646,0.1311145580745076
10.358847999999998,10.666099918809355,0.13068284786958226
10.362932,10.722846031734969,0.13022432745802381
10.367007999999998,10.782837419785293,0.12972613081333656
10.371092,10.843936056834965,0.12918449803351165
10.375172,10.895829657659116,0.12869707596344857
10.379252,10.940091206207901,0.12825654523137808
10.383336,10.978858728606681,0.12786239200497027
10.387364000000002,11.014480283105156,0.12747948975251328
10.391452,11.040465319453897,0.12719490887403181
10.39554,11.063758705177609,0.1269334332630344
10.399512,11.088735799751406,0.12666635209017996
10.40354,11.116969587125446,0.12638892362167328
10.407623999999998,11.148570792199664,0.12609710922029782
10.411704,11.181302081624295,0.12582258569371868
10.415784,11.21426623852433,0.1255697028500895
10.419872000000002,11.247573987799703,0.1253355327153952
10.42396,11.288845964050246,0.12505231445469386
10.428052,11.328678516601638,0.12482847295178442
10.432144,11.37715106320334,0.12456060247604638
10.436184,11.430121111855637,0.12429157790077598
10.440272,11.489493821208484,0.12400742496627118
10.444356,11.546075572711894,0.12377529054303782
10.448440000000002,11.599988508941333,0.1236185387947951
10.452532,11.655940164071732,0.12349995280627973
10.456624,11.719080971877757,0.12336417768043136
10.460712,11.787727223509322,0.12321774717263378
10.464808,11.86545636879094,0.12301164142876868
10.468903999999998,11.947782323347552,0.12277692346275125
10.472992,12.03525871167883,0.1224894680372342
10.477087999999998,12.121727158235165,0.122213935043934
10.481176,12.2032666208167,0.1219846789413558
10.485268,12.286932691848063,0.12173839012750674
10.48936,12.370709487779362,0.12149330710870501
10.493455999999998,12.454031966435387,0.12124193928402391
10.497588,12.540710445116055,0.12095446616391246
10.501684,12.62514017277143,0.12066990054834208
10.50582,12.702502890326643,0.12042688757625153
10.509972,12.781870073756219,0.12014259027612578
10.514064,12.854723871585309,0.11988217971736442
10.5182,12.92901709311355,0.11957649940950585
10.522336,13.001160870840899,0.11924758516941979
10.526471999999998,13.079340881542397,0.11884605832402134
10.530608,13.164332199517583,0.11834794843040809
10.534692,13.247395523491745,0.11781824330595494
10.538824000000002,13.328198678765078,0.11727035205171273
10.5429,13.412457141287462,0.11666765900062381
10.547036,13.490534392909167,0.11607637661720176
10.551124000000002,13.561876809130512,0.11551098194381554
10.555264,13.634105024551335,0.11492422199146309
10.559392,13.707440488971507,0.11430579709438651
10.563524,13.786025694390752,0.11362100781343866
10.567604,13.85551658848441,0.11296349388733234
10.571688000000002,13.917031837927363,0.11231929061560324
10.575824,13.97416031021966,0.11167251084109538
10.5799,14.025439746311077,0.11102246615886928
10.583976,14.074569738601603,0.11034613268843325
10.588064,14.128052255016188,0.10960957475341618
10.592152,14.178598835654801,0.10885155657274863
10.596240000000002,14.226331623092914,0.10808787722970561
10.600324,14.268337516905614,0.10733953010343454
10.604408,14.304505792192973,0.10660821141498755
10.608491999999998,14.328555930829907,0.10591949838305824
10.612576,14.340155758116609,0.10528333349544283
10.616664,14.34961755927795,0.10464337143139926
10.620743999999998,14.35436040858883,0.10400665600776443
10.624824,14.34564500477453,0.1034247469537263
10.628904,14.33748322545991,0.10282671525433776
10.632988,14.331215187119712,0.10219467966892165
10.637068,14.318998805354235,0.10157803478087273
10.641148,14.301055529963351,0.10096812181465509
10.645236,14.2731321440474,0.10039780061320376
10.649311999999998,14.24845403325616,0.09979898961064564
10.653396,14.228594181539783,0.09917180307817579
10.657476,14.210860938273235,0.09852751730194449
10.661511999999998,14.192795520306884,0.09789186425411382
10.66554,14.174065752940919,0.09727469734928676
10.669576,14.152323577925651,0.09670138047716864
10.673612,14.127568995261074,0.09616955218704189
10.67764,14.10215006319689,0.09565602717203035
10.68168,14.080663591008088,0.09514349464090258
10.685712,14.060196478269766,0.09464649151828479
10.689744,14.047926459982019,0.09414093810818518
10.693776,14.04037539354473,0.09363537529171613
10.697812,14.031938527907966,0.09315571100355588
10.70184,14.02699122254685,0.092690700175394
10.705872,14.030351736536236,0.09221455477097583
10.709908,14.031597059751327,0.09177759666019467
10.713996000000002,14.033308117917228,0.09137456299026232
10.71802,14.03761151948376,0.0909894396992363
10.722044,14.047088190176027,0.09061697031544158
10.726068,14.06465123041893,0.09024202925443982
10.730104,14.085703830937481,0.08988443830603511
10.734192,14.104530515781802,0.0895690773909121
10.738228,14.12180705202704,0.08929975746697177
10.74232,14.141565206772968,0.08905254504085794
10.74632,14.168168921819193,0.0887952324520786
10.750404,14.193531827615066,0.08852802215895347
10.754396,14.221475659136038,0.0882566675152941
10.758484,14.252443315981854,0.08796863545001228
10.762516000000002,14.279822105327618,0.08769240974658546
10.766552,14.308208836448333,0.08741097478768045
10.770592,14.334911858718955,0.08713304988390352
10.774628,14.36352003963954,0.08684832623497932
10.778656000000002,14.393246887235005,0.08655543840236027
10.782688,14.419495592230357,0.08626994712604719
10.786728,14.445289979950436,0.08597589464652011
10.790764,14.472313759245331,0.08567033995603175
10.794792,14.498096729289879,0.08535457307949511
10.798824,14.525441265609047,0.08501936904471936
10.802855999999998,14.553450151327823,0.08466749504517299
10.806944,14.582455561146013,0.0842904428999418
10.810972,14.6088800452391,0.08391918263733979
10.81506,14.643700238231569,0.0834991919278815
10.819147999999998,14.683216547723434,0.08304204783868689
10.823192,14.723729381314714,0.08255990650738466
10.827228000000002,14.759301813255659,0.08208180191405005
10.831316,14.79577146207162,0.08160301270299163
10.8354,14.831786793612306,0.08111587685683369
10.839492,14.869142241627744,0.08061772447155557
10.843528,14.906719139443048,0.08011444937400027
10.847568,14.948549254158015,0.07958870898618703
10.8516,14.988352067647552,0.07905244299162352
10.855688,15.02669262208687,0.07851355884896957
10.859776,15.067381234775885,0.07795890099845723
10.863868,15.112433789264495,0.07737838964347668
10.867896000000002,15.157707793552971,0.07679514387729462
10.871984,15.207456464540975,0.0761854915348098
10.876072,15.259110294178939,0.07557159415358236
10.880164,15.306167314541906,0.07497105031808449
10.884252,15.3550187686549,0.07437204357787458
10.88834,15.39883051389316,0.07379817619254098
10.892372000000002,15.440504233006056,0.07321613043825184
10.89646,15.470968450019072,0.07266691994707732
10.900548,15.49627081558189,0.07212359219436923
10.904628,15.517197821669578,0.07158601010331919
10.908708,15.536773293606982,0.07104079911174824
10.912783999999998,15.551973406069266,0.07049936920555155
10.91686,15.56380610083137,0.06995765468707153
10.920940000000002,15.570034044543535,0.06943023896219433
10.925024,15.575475496280623,0.0689012071067785
10.929056,15.57362848811768,0.06838624139643791
10.933091999999998,15.573465188804825,0.06787171742171084
10.937176,15.57094241356674,0.06735224906403978
10.941268,15.561806945503768,0.06684921557416725
10.945344,15.54393217616608,0.06637238560641584
10.949428,15.523365756203358,0.06589868235450884
10.95346,15.493273542990844,0.06544924957778525
10.957540000000002,15.460821853853098,0.06499390736145574
10.961624,15.428370164715352,0.06453667875067207
10.965704,15.388851465477446,0.06408413701040663
10.969744,15.351005057414095,0.06360961806514628
10.973772,15.311253490700786,0.0631375932738049
10.977864,15.27172337378735,0.06265680618335108
10.981952,15.229058706649132,0.06218746173613702
10.986036,15.184378155961026,0.06172267734157805
10.990124000000002,15.136563055048144,0.06126898961142996
10.99422,15.09065311278522,0.06080780977615827
10.998316,15.044410995822492,0.06035223517075428
11.002408,14.999176820634709,0.05989028332336868
11.006504,14.950353777946878,0.059428365956135064
11.0106,14.89749896815926,0.05897680804211175
11.014696,14.83814219044669,0.05853294411254879
11.018792,14.773413529159583,0.05811154403606016
11.022887999999998,14.70577176744757,0.05769362678589482
11.026988,14.640145889285451,0.05726440075303001
11.031084,14.568583085373586,0.056849724829441624
11.035176,14.496909556561787,0.056433539606036975
11.039272,14.41929910200024,0.056031368474393904
11.043412,14.337091838163703,0.055630589367637616
11.0475,14.247939706802471,0.05524626585429506
11.051583999999998,14.149716099466717,0.05488864804185365
11.055668,14.046452783256234,0.054543770149944173
11.059764,13.938825525246157,0.05421742055757556
11.063859999999998,13.82638000816122,0.05389770213209881
11.067951999999998,13.712705099501463,0.05358285671420592
11.072048,13.593769032167103,0.053287447130717
11.07614,13.470247573233284,0.05301770039677636
11.080236,13.345718172524515,0.05274673018209036
11.084336,13.215595438441339,0.05250519281321204
11.088436000000002,13.085705571833568,0.05227754412059389
11.092532,12.95615929760113,0.052061777820503016
11.096623999999998,12.827743107719115,0.05186039302405943
11.10072,12.702694335537272,0.05166103515671486
11.104816,12.579783589480794,0.051473635946763734
11.108908,12.454414060274681,0.051302577032488174
11.113,12.32949884834384,0.0511413616003358
11.117096,12.202800620338508,0.051004525897808066
11.121192,12.074540826058556,0.0508853902070827
11.125288,11.94539523257912,0.05079100283947981
11.129376,11.820403548774944,0.050703153414210236
11.133472,11.697549891096127,0.050630485650387476
11.13756,11.577055709342542,0.050565493938919535
11.141652,11.459253178213991,0.05049783930263011
11.145748,11.343920847910606,0.05043405750106259
11.149836,11.226240459357525,0.05038724983118038
11.153924,11.113046155179502,0.050338133684953164
11.15802,10.997946692351519,0.05029284053055874
11.162112,10.874783695323963,0.05027903633377894
11.166204,10.747921105896426,0.050271282564754695
11.170292,10.61635098229396,0.05027154224868595
11.17438,10.482089208066458,0.050272333761277224
11.178468,10.343119899664028,0.05028240727719561
11.182556000000002,10.199775231786473,0.050287579510472954
11.18664,10.054857579958766,0.05028303999964742
11.190724,9.90993992813106,0.050276531385430756
11.194812,9.762330625678311,0.05027015336933378
11.198896,9.608551530000419,0.05026282509857522
11.202984,9.454096667247386,0.05024604503895502
11.207068,9.299076762319144,0.05021554021663814
11.211156,9.136879122390809,0.05018617495447454
11.21524,8.969630355912209,0.05014376716717564
11.219324,8.791282812233659,0.05012139371173328
11.223416,8.605646808655079,0.050104439050671315
11.227504,8.413508837151548,0.05009916502074562
11.231592,8.216995506172893,0.050090556918731495
11.235684,8.009826297594032,0.050078139702397426
11.23978,7.797495237564966,0.05005512846725074
11.243872,7.589417394435559,0.049993275396170274
11.247968,7.3817824509058925,0.04990383176674932
11.25206,7.168542756326286,0.04982873483525193
11.256148,6.95171419424663,0.0497512319646618
11.260244,6.729502330916905,0.049676377180318934
11.26428,6.4986618912123975,0.049640701704889094
11.268312000000002,6.258406383158034,0.0496384179750077
11.272348,6.009854473428695,0.04965597849889908
11.27644,5.758389463274448,0.04969974443135385
11.280532,5.5099482784450435,0.049710451613085634
11.284624,5.259380485165808,0.049754818011860096
11.288656,5.005002374586657,0.04982344521014024
11.292744,4.75219724795766,0.04992853884172465
11.296772,4.504664697678798,0.050035602219361985
11.300864,4.268341649499817,0.050098005556381574
11.304944,4.037291177670975,0.0501757417804103
11.308976,3.8126319488671485,0.050240535169729116
11.313016,3.5913401377635,0.05035000978995335
11.317044,3.382498638010082,0.05044949637165091
11.321128000000002,3.1824078572069134,0.05057047458289039
11.325212,2.983447160754158,0.05079623278034623
11.329236000000002,2.7913320246016933,0.05105833404469934
11.333272,2.608299782099281,0.051336192333952695
11.3373,2.4341289834470525,0.05163979389030607
11.341344,2.269827570419954,0.05196897733528383
11.34538,2.1202138020928496,0.05224566268354435
11.349412,1.9851769535658037,0.052468802207248214
11.353448,1.8607959826389648,0.05274812594932351
11.357488,1.7458300800619837,0.05289593868045406
11.36152,1.6393934466353814,0.05312347915261262
11.365556000000002,1.542039706858832,0.053339919627477285
11.369592,1.4554525695824247,0.053548071446714716
11.37362,1.3798534846060289,0.05367333851553903
11.377648,1.310424192854781,0.05380385395900339
11.381732,1.2452595356787226,0.05396873914536426
11.385763999999998,1.189288497052652,0.05401206135433867
11.389796,1.1384793098767827,0.05411513255920487
11.393884,1.0949585826009431,0.05418120005489674
11.397912000000002,1.0541295059501388,0.05421579600525463
11.401996,1.0168892967993817,0.05424276206678478
11.406024,0.9851431137986303,0.05424757172698369
11.410056,0.9531754809980092,0.0515471735758629
11.414084,0.9265911494474591,0.04881778260511607
11.418176,0.9035956853969563,0.04606620879146998
11.422268,0.8869914643714711,0.046038979073531106
11.426312,0.8720709521960748,0.04603610636924616
11.430395999999998,0.8543480644957081,0.04330941255061149
11.434428,0.8440243615953057,0.04321754729843321
11.438516,0.8320283675203475,0.04052952314030623
11.442656,0.8220482569952825,0.03779037009391338
11.446688000000002,0.8169971304450163,0.03768673217022386
11.450780000000002,0.8127324958698269,0.03762736089611015
11.454820000000002,0.8102622950446612,0.037550286522090505
11.45886,0.804989718694525,0.034835099812665124
11.462892,0.8007250841193356,0.032112418203300436
11.46698,0.7926501322442293,0.029496840513813925
11.47102,0.7837886883940458,0.02682893031255662
11.475056,0.7780617947686377,0.024154522460264158
11.479152,0.7712162344683476,0.02152814248403074
11.48318,0.7672837745929626,0.018896019936465863
11.48726,0.7654779231674061,0.01849826686870925
11.491288,0.7696089974915951,0.020644983461239934
11.495384,0.7766531722406889,0.022713544117863256
11.499468,0.7838080718897177,0.024737109514706725
11.5035,0.7889470879888533,0.02404961844946761
11.50754,0.7921809454380303,0.023397303983858305
11.511624,0.7999008872622663,0.02550616489143965
11.515704,0.7974192687615678,0.02280283523578264
11.519787999999998,0.8018825177855612,0.024889829600984893
11.523872,0.8027568993095074,0.024889829600984893
11.527952,0.7973621803839036,0.022238929312009156
11.53198,0.7912916943831577,0.01953559965635215
11.53602,0.7824188328574416,0.016897487320946415
11.540112,0.7773562886316424,0.016897487320946415
11.5442,0.7720722946059735,0.016897487320946415
11.548284,0.7694799512053401,0.016897487320946415
11.552308,0.769689983329677,0.016897487320946415
11.556404,0.7645281318794757,0.016897487320946415
11.560492,0.7603742222042212,0.016897487320946415
11.564584,0.7501726618792863,0.016897487320946418
11.56868,0.73885243487947,0.01460699583165752
11.572776,0.7272000331798492,0.012460279239126838
11.576872000000002,0.7098321555303531,0.010391718582503512
11.580968,0.6924642778808565,0.008368153185660048
11.585064,0.6743099082562833,0.006299592529036722
11.58916,0.6598551310316921,0.004195855272783594
11.593256,0.6446138618320241,0.0020869943652022526
11.597352,0.6396848778572252,0.0020869943652022526
11.601388,0.6309455765825099,0.0
11.605476,0.6256844179079066,0.0
11.609559999999998,0.6235578094580784,0.0
11.613644,0.6213204761083152,0.0
11.617732,0.6209883014085106,0.0
11.62182,0.6178537511837355,0.0
