Time,Force,Position
10.966496,12.283432699195098,0.05074140450879628
10.970592,12.067879199392387,0.05080676758287953
10.974688,11.856136016889598,0.050866106429962865
10.978788,11.650329760136554,0.050906074156821704
10.982884,11.451811963283538,0.050939951253438705
10.98698,11.262033467705237,0.05095085346506761
10.991072,11.075168072551843,0.05095580669844276
10.995168,10.892899486673445,0.050955982560465136
10.999264,10.71119594297025,0.05097192893609425
11.003408,10.53621581699188,0.05097249755700775
11.007496,10.362365775363923,0.05100061431158968
11.011584,10.19423120968584,0.05101640523506333
11.015676,10.028566844832929,0.051040830046634664
11.019764,9.866159172780256,0.05107861987133363
11.02386,9.70823758510264,0.05111763731236309
11.027952,9.555588573775161,0.051160780528100344
11.032044,9.406085530347992,0.051223304723242165
11.036136,9.255696687721343,0.05132637962482848
11.040172,9.112707029894658,0.051419648197918215
11.044264,8.971179631118193,0.051529513832055625
11.048352,8.831458083767284,0.05167992509065664
11.052444,8.694206737241542,0.05184244126663798
11.056524,8.56043353331591,0.052010304712497304
11.060616,8.427790413740693,0.052209124789678
11.064648,8.292688511015845,0.05244587353714368
11.06874,8.154119883366414,0.05272752372654037
11.072828,8.019140123217035,0.053012240020771526
11.076908,7.8828202465929,0.053328815895887206
11.080996,7.751540078843503,0.05362619197802738
11.085084,7.61802257774434,0.053957810991627796
11.089172,7.492568610844752,0.05424604341555034
11.093268,7.364090818620323,0.05456338280005013
11.097356,7.234715809520881,0.05489371834273492
11.10144,7.104775758246233,0.05521725689030799
11.105528,6.97304127322156,0.055555618158429534
11.109612,6.839844529146669,0.05588419328848651
11.1137,6.706193467796507,0.05620100315527064
11.117784,6.579819448670841,0.056459568247603516
11.121864,6.4523267628702925,0.05674086673128018
11.12594,6.325055526869614,0.05702066308044633
11.130024,6.197883598093337,0.057248102262988335
11.134104,6.073624769741966,0.05746381080399963
11.138188,5.942753248565707,0.057728365348843055
11.142268,5.809411526564284,0.05799824170790749
11.146348,5.673710328637629,0.05827598976217648
11.150432,5.538562755210648,0.058536222348320996
11.154512,5.398031880533597,0.05882554177718692
11.158596,5.257943905456283,0.05910499659417968
11.162632,5.114045613079056,0.059434722468850495
11.16672,4.970700945201501,0.059745460911396236
11.170808,4.820743584499058,0.06011693957576844
11.174836,4.672126340271368,0.0604739880203827
11.17886,4.52250115426873,0.060891860599398384
11.18294,4.3708600847162,0.06138094384376584
11.18702,4.221234898713562,0.0618796122018279
11.191108,4.070491046036043,0.062441565306113556
11.195196,3.9206444102335363,0.06303736492316972
11.199244,3.7639636318062717,0.06377365372673961
11.203324,3.6044804778540365,0.06464510495393185
11.207408,3.4466810327518904,0.06559159818215446
11.211492,3.286877121775384,0.06681264951088166
11.21558,3.126187411599398,0.06829066791741654
11.219672,2.9805289384987437,0.06973944013063113
11.223768,2.8437547445993387,0.0715296670299641
11.22786,2.7262992577015206,0.0734820353909261
11.231948,2.631342698732194,0.07592165427222047
11.23604,2.56977381276697,0.07860614675805523
11.240132,2.539133816656216,0.08154508032801432
11.24422,2.543233027699848,0.08459949904786125
11.248312,2.58062060452318,0.08777630829488381
11.252408,2.65084222985094,0.09102466836909637
11.2565,2.7509848032582225,0.09437028896902105
11.260596,2.8876610175699153,0.09766654667562968
11.264688,3.058079914936581,0.10100229825143853
11.26878,3.265498188158462,0.10432989505794647
11.272872,3.5080106785856,0.1076630316529276
11.27696,3.7830364604928937,0.11101975602528008
11.281048,4.096512459630089,0.11427138048575333
11.285136,4.451905400921766,0.11731439122057863
11.289216,4.838337956967846,0.12028081553251209
11.2933,5.257150244243084,0.12301809395313287
11.297388,5.707666495672334,0.12550072299810966
11.301472,6.175874833630745,0.12801874734229915
11.30556,6.668697290291948,0.13016252999472616
11.309648,7.172099152680021,0.13211321665302728
11.313736,7.671767169641513,0.13355949179934892
11.317824,8.151860776774951,0.13473970982201963
11.321908,8.618305482154545,0.1355932506569797
11.325996,9.065385809830424,0.13626523840356075
11.330084,9.492536717627377,0.1367848335784717
11.334172,9.900212522820677,0.13718559687198972
11.33826,10.291891368010436,0.13745956991985808
11.342348,10.660273375621093,0.13768531277946863
11.346436,11.012624170201612,0.13771999806541396
11.350524,11.331896631126767,0.13773245936353126
11.354616,11.62301974237136,0.13766105134488346
11.358708,11.891044630485652,0.1374875933368921
11.362804,12.133733962119882,0.13726573494837224
11.366892,12.342581303474736,0.13710915440107668
11.370984,12.525883056225194,0.1369338964198929
11.37508,12.68598727862095,0.1367074081603051
11.379172,12.81762139431187,0.13646762702863138
11.383268,12.930421921447683,0.13612302918540214
11.387272,13.017898309778962,0.13576070017582342
11.391396,13.08465878625624,0.13536744771197104
11.395444,13.141725656206129,0.13493734781254343
11.39954,13.192932072279605,0.13448389056666132
11.403636,13.231000992252177,0.13408782926453383
11.40776,13.261193574798444,0.13368929687964884
11.41186,13.281604661268451,0.13330320034927776
11.415912,13.29525807698704,0.13289984971218952
11.419992,13.295873303829122,0.13252034805287002
11.42404,13.289066510520177,0.13214601269732246
11.428124,13.27003085566087,0.1318431772639458
11.432172,13.251548825301237,0.13151982855315741
11.436196,13.232501752766398,0.13118986653547732
11.440276,13.207617061706216,0.13088452835214856
11.44436,13.173981651695785,0.13062867550318757
11.448388,13.14055627380969,0.13033931422562683
11.452476,13.104206377823155,0.13004929989777894
11.456528,13.064489064136449,0.12977374530895502
11.460616,13.024771750449741,0.12949699264559542
11.4647,12.981244119463113,0.12924927226347696
11.468792,12.934803388051582,0.12902473831645678
11.472868,12.885228106415274,0.12883152821351504
11.476952,12.833526216329137,0.12865921954334536
11.481044,12.78451597686804,0.12846831501852365
11.485124,12.736967996457157,0.12827722323357832
11.48922,12.693352475921658,0.128075653763423
11.493356,12.655463849011571,0.1278526003098693
11.497384,12.620278290402052,0.12763696795899754
11.501464,12.597321593342894,0.12735322230002238
11.505488,12.577965181459314,0.12707173478475303
11.509576,12.56231977965125,0.12678877117332643
11.51366,12.551393329693646,0.12649558597693938
11.517752,12.545075106686573,0.1261968035874077
11.52184,12.54325438573009,0.12589588217848138
11.525868,12.54727128329895,0.12557111758494585
11.529952,12.55510991584326,0.1252429978973136
11.53404,12.570691325562873,0.12487892478726412
11.538128,12.59020519515787,0.12450808820488933
11.54222,12.616453900153221,0.1241119712632568
11.546316,12.649215990749058,0.1236989405558504
11.550404,12.692191059345365,0.12324491809943448
11.5545,12.74179023844209,0.12276785016756298
11.558592,12.798013528039235,0.12227201160149173
11.562688,12.860750203236865,0.1217640046660739
11.56678,12.931451105409668,0.12121675547221132
11.570876,13.004179308807897,0.12068112393960007
11.574964,13.080053480106434,0.12014579834268141
11.579056,13.159295069105147,0.11960168383093557
11.583152,13.236077874954226,0.11909819914717401
11.587248,13.320149140703336,0.1185587168370746
11.591388,13.408252173552233,0.11798977836048971
11.59548,13.497252423276143,0.11742263500953
11.599628,13.582553080600068,0.11688144147853158
11.6037,13.667510145548656,0.11633070947844236
11.607788,13.755491035822086,0.11576055066942297
11.61188,13.84402555059519,0.11517903407405253
11.615968,13.926500997043078,0.11462737002570503
11.620112,14.011545951540535,0.11404950404258662
11.624248,14.092658446162611,0.11348272564109854
11.62834,14.170281380509037,0.11291310373340557
11.632428,14.236572670180118,0.11239164121469532
11.636512,14.302066050200589,0.1118515406585559
11.640596,14.360038102845625,0.11133503339647492
11.644684,14.409137293964944,0.11083725410394224
11.64876,14.453738983033672,0.11034111114624395
11.652844,14.49921505362635,0.10980022875866435
11.656936,14.537501971543398,0.10926975995759385
11.661016,14.571623562109657,0.1087283809357511
11.665104,14.600571883550186,0.10818246370541111
11.6692,14.618852909714972,0.10765880614466787
11.673292,14.63162849205422,0.10713995630985623
11.67738,14.637436371517712,0.10662220544642687
11.681472,14.63918964853035,0.10608571426933867
11.68556,14.642615216717543,0.10552446310581347
11.689596,14.63885163222911,0.10496990621403257
11.69368,14.627566720365243,0.10443067262065164
11.697764,14.614365232175887,0.10387785562980975
11.701848,14.588037665561158,0.10336664683844281
11.705932,14.554753813746204,0.10287504078869238
11.71002,14.514402951831089,0.10240582325800779
11.71412,14.478748206415371,0.1018875329457857
11.718208,14.442184826449108,0.10134871666252529
11.722256,14.405499303907378,0.10078763787478323
11.726348,14.36454914679046,0.1002329838800477
11.73044,14.317872096048129,0.09968213057695853
11.73454,14.259985543205918,0.09918100902217268
11.738636,14.201079630913227,0.09865899672685792
11.742728,14.143624559995224,0.09811380456354801
11.746784,14.085715171801947,0.09755465378161764
11.750832,14.0299323920585,0.09697492114461431
11.754928,13.971457961690016,0.09640032794263151
11.758908,13.915785906846502,0.09580889017399964
11.762996,13.864932111077849,0.09518784700754025
11.766976,13.805781913634224,0.09459752210980467
11.77106,13.749323366815634,0.09399398600016871
11.775088,13.69577792042195,0.0933701689201403
11.779124,13.644359082478093,0.09272660176403903
11.783168,13.60336325465904,0.09202972451763425
11.7872,13.570541685939496,0.09127654071980401
11.791228,13.541641159419806,0.09049722415687933
11.7952,13.508930315600194,0.08973282037092324
11.799256,13.474092863330759,0.0889815888996877
11.803344,13.43645303553635,0.08823643838421844
11.80744,13.405425900566833,0.08745789877849713
11.811536,13.3786634001725,0.08666846510235893
11.815628,13.360308026353081,0.0858411402621575
11.819728,13.346893054183992,0.08500949218728665
11.82382,13.330908573965337,0.08420529285352442
11.827908,13.312576035496983,0.0834185143657105
11.832004,13.29850813160382,0.08262645865807858
11.836096,13.289823528960726,0.08181783357841915
11.840192,13.27811510099279,0.08102376604712545
11.84428,13.264845106750236,0.08025159527661185
11.848316,13.258077080432631,0.07945421192184962
11.852404,13.25041183724002,0.07865766575143192
11.856492,13.24431957799756,0.0778626795789415
11.860584,13.237895144055296,0.07707703757558972
11.864672,13.225423059463349,0.07632293739175838
11.86876,13.206681874421857,0.07560638887685424
11.872844,13.18760851468056,0.07489744756432151
11.876928,13.172910514414387,0.07418045691868579
11.881016,13.15945332339856,0.07347517834568215
11.885104,13.152952417582958,0.07276005726725944
11.889192,13.147692321017706,0.07205921802747912
11.89328,13.141092107977705,0.07137205385451746
11.897368,13.128444244288024,0.07071296039489663
11.901452,13.116472147673482,0.07005986067283547
11.905544,13.105507992833887,0.06940024335390424
11.909632,13.098021980594405,0.06873484581209233
11.913728,13.0838125506301,0.06809260069435895
11.917816,13.065682078465946,0.06746475164843219
11.921904,13.053045632451793,0.06682375878850458
11.926,13.043433011762483,0.06616890927416823
11.930092,13.027883465323425,0.06553641775949119
11.934188,13.013685453034652,0.06491328117123969
11.93828,12.994558456771081,0.06430689486762256
11.942376,12.976107227582652,0.0637048161381091
11.946468,12.960236924119322,0.0630999227260703
11.950564,12.946161054406017,0.06248979343323884
11.95466,12.932760951767852,0.06188350301823147
11.958752,12.914321140254955,0.061297200415893385
11.962848,12.890165852792187,0.060723719722675144
11.966948,12.860073639579669,0.06017086465202121
11.971044,12.823258008642329,0.059635458388537683
11.97514,12.787228869680067,0.05909990073328466
11.979232,12.755907264892734,0.05855006154175687
11.983332,12.716178533530488,0.05801442103296581
11.987424,12.672307310168522,0.05749485187162592
11.99152,12.629444028581503,0.05696879608495434
11.99562,12.587145789169691,0.056447947578152205
11.999712,12.5466419835079,0.055922426914897023
12.003808,12.50087701917151,0.05542152763352039
12.007904,12.446937795735614,0.05495237477833683
12.012,12.395579498024816,0.05448051673804465
12.016096,12.340189433214231,0.0540210619268623
12.020192,12.288056061203891,0.05356588174625937
12.024288,12.229764313643932,0.05313366154834632
12.028384,12.16912450783428,0.052716099751518274
12.03248,12.107820352625014,0.052315595378851144
12.03658,12.041365763641082,0.05193361568711958
12.040672,11.975697666632225,0.05155033135104473
12.044768,11.912721220248404,0.051161209909426124
12.048864,11.847618165414755,0.050778588318997994
12.052964,11.781285719006291,0.05040188331300776
12.057056,11.712605214348127,0.05004005076406001
12.061104,11.638331376315556,0.04971158009453934
12.065188,11.567203506183294,0.04939175786593441
12.069236,11.495522011551355,0.049085888087694
12.073332,11.414658316044964,0.048813713405487305
12.07738,11.326628303214006,0.04856836924825503
12.081416,11.234123623683528,0.04834925237222436
12.085504,11.136579235278314,0.048146021189100795
12.089588,11.034892354873376,0.04795867187620828
12.093676,10.929738749543862,0.047794920294078544
12.097764,10.820442652214624,0.04764745367989487
12.101848,10.705320354035578,0.04751272974841247
12.105928,10.589976606056661,0.047382784161341646
12.110008,10.469814599002882,0.04726167543253932
12.114092,10.339229581824295,0.04715848181993936
12.118172,10.207415173070894,0.04706492197277251
12.122256,10.068323722092993,0.04700668729600978
12.126336,9.928567921715487,0.04696997086468164
12.13042,9.789487888413122,0.046938993538901734
12.134452,9.652878055935922,0.04691390849140098
12.138488,9.514363064808762,0.04688981591422993
12.142568,9.373156423056567,0.04686526718785799
12.146596,9.230720389729559,0.046851848571884284
12.15068,9.089292298177496,0.046831686752570566
12.154708,8.95313678297557,0.046816690664158105
12.158744,8.825609844148422,0.04677804311666764
12.162832,8.698758672396421,0.04674828678906062
12.166912,8.574488426369514,0.04672353498778668
12.17096,8.459633248692468,0.046678465534309925
12.174992,8.34388085414041,0.04663260324291062
12.179024,8.230709385313453,0.04659166777908455
12.18306,8.121016059086607,0.04655470085817564
12.1872,8.013903658584864,0.04652179991304624
12.19124,7.911055892658309,0.046498913563690146
12.195284,7.817180295481872,0.04647736048699904
12.199372,7.727901507580429,0.04644990362786924
12.203408,7.646243354278821,0.046402187240464604
12.207444,7.562790767227187,0.046353707739573244
12.211536,7.484721481425626,0.04630414167377807
12.215572,7.404747036974105,0.046258669368097007
12.21966,7.321527317397876,0.04624068609417111
12.223692,7.242682957296769,0.04622902293592959
12.22772,7.161822713645772,0.04622986049454451
12.231752,7.07962235352002,0.046254153490224305
12.235784,6.997532718294207,0.046273396900135474
12.239868,6.912419257743552,0.04630846251418726
12.24396,6.826408580317883,0.04634543399555145
12.247988,6.744097495292198,0.04637753650555014
12.252076,6.65954907691675,0.04643295677669313
12.256156,6.578589526041348,0.04648927527191712
12.260188,6.503456176015758,0.04651959768535491
12.26422,6.431125201515137,0.04654326537217274
12.268304,6.360699385664476,0.04656015440752348
12.27234,6.29318667023872,0.046564545534351756
12.276372,6.227579113462921,0.046563305745450416
12.280408,6.161750106887253,0.046575089419559755
12.28444,6.0987234758365565,0.046578657817968896
12.288484,6.037491278535883,0.046582417210301374
12.292516,5.970765055085203,0.04659127197477004
12.296552,5.906730482259559,0.04660055667164927
12.300584,5.850316544033749,0.04658477951946354
12.304616,5.794234780507743,0.046547078838584895
12.308648,5.742184784081524,0.0464809785744875
12.312676,5.691253454330188,0.04640058312133613
12.31676,5.641440791253732,0.046303537426799275
12.320844,5.591406678377407,0.04622085115259991
12.32488,5.545182882801,0.04612267603408377
12.328908,5.495370219724545,0.046022325248622833
12.332936,5.444771064673012,0.045913486232196106
12.33702,5.392266750971521,0.04581121279723824
12.3411,5.334722728395295,0.045745717999193476
12.34518,5.272581896544077,0.04568541192430197
12.349212,5.207638689167888,0.0456306778168731
12.35324,5.13989310626673,0.04558176878130324
12.35728,5.0722582482655065,0.045523030181860595
12.361312,5.003836898289206,0.045455804729335796
12.36534,4.932502447887999,0.045401790710649655
12.36938,4.862065214361804,0.04534708117565382
12.373416,4.796003340310733,0.04530263670810924
12.37746,4.730838683134675,0.0452578635645904
12.381492,4.661863708658699,0.045228863429423165
12.385524,4.594350993232943,0.0452253517166608
12.389556,4.52560888623237,0.04524702754362166
12.393584,4.4623608053818025,0.04526014559141109
12.397668,4.398669824931496,0.04530998265119375
12.401748,4.336208236056006,0.04533382709352751
12.405832,4.27083354675561,0.04537577780448078
12.40992,4.207253291205239,0.04541877397389478
12.414,4.141435702305103,0.04550770869349237
12.418088,4.079649880504756,0.045555088193632215
12.422172,4.019093450279225,0.045573981407531314
12.426268,3.9611179457787937,0.04560582859554171
12.430356,3.9048261501284514,0.04565074890797795
12.434448,3.8467399207280852,0.0456957197964224
12.438532,3.786637807777826,0.04576275043659073
12.44262,3.726424969927632,0.04584396387165605
12.446712,3.6653149152024262,0.04592601874988926
12.450792,3.6040941355772853,0.046022871933990385
12.454872,3.542308313776937,0.04608232552129267
12.458956,3.4797360000015125,0.04612775112043101
12.463036,3.420076786650993,0.04615014447126938
12.46712,3.3587338644503837,0.04616148465422746
12.4712,3.302098476424704,0.04614955587159281
12.475288,3.2437793795489354,0.04611780137656873
12.479368,3.183998023622948,0.04604735183186662
12.483452,3.1259003765470497,0.045986958361497125
12.487532,3.069707888121109,0.045914577107107064
12.491616,3.0174364418950206,0.04579651411445736
12.4957,2.9695289374685236,0.04558432585490434
12.499784,2.9202813165672756,0.0454198148176841
12.503872,2.8736146213911278,0.04526664932436434
12.50796,2.8260507093399685,0.04511268158883092
12.512052,2.7787082470886784,0.04492579490612997
12.51614,2.734843927437501,0.04475395874499294
12.52022,2.6928847664362823,0.044566836320909624
12.524308,2.6530522138848918,0.04432840508210707
12.528396,2.611093052883673,0.044133455861321044
12.53248,2.568236675007442,0.04393701132761369
12.536568,2.52123780513149,0.043818912959181736
12.540656,2.473120268580656,0.043731244193672
12.54474,2.425113456929757,0.043612800438486976
12.548832,2.3780038621538706,0.04349066260562179
12.55292,2.3262974581029896,0.04337519228785838
12.557012,2.2658517527773925,0.043370868552661014
12.561108,2.205073872751991,0.043433657743159326
12.5652,2.143398775851578,0.043495754834435185
12.569296,2.080937186976088,0.043526839315716735
12.573388,2.01332516432593,0.04369492128758923
12.577484,1.942689316350931,0.04391198769937863
12.58158,1.8712669764008554,0.044115836395090716
12.585676,1.7963664938506672,0.044280394130187695
12.589764,1.7244898366253192,0.04435314130621032
12.593856,1.6494786291751962,0.04456729371763102
12.597956,1.5728944377749197,0.044717243343789626
12.602052,1.4937293206495423,0.042580155139744835
12.606144,1.4124375950743366,0.040481808017860346
12.61024,1.3362963032737996,0.03834038459584073
12.614328,1.2593685194981852,0.036186937399717053
12.618424,1.1836701272973875,0.03398318274111568
12.622516,1.1080824599965249,0.031763820661988115
12.626612,1.0321626179958574,0.029590204691573373
12.6307,0.9572507177701365,0.027421880678474602
12.634788,0.8822280926444808,0.025261115709544712
12.63888,0.8176284776436294,0.023019091063822616
12.642964,0.7578471217176418,0.020728678454388097
12.647052,0.699073707566601,0.01844066170214637
12.651144,0.641873277365714,0.016186301216454844
