Time,Force,Position
8.443504,11.760325695820448,0.0468519554302405
8.447531999999999,11.701773731469277,0.046830033315202205
8.451556,11.646589184818284,0.04681500840481002
8.455583999999998,11.594096288792326,0.04679992530384895
8.459608,11.544073593591532,0.04679157536353741
8.463639999999998,11.49124852286577,0.04678650716632181
8.467664,11.442455219239795,0.04676715120189026
8.471695999999998,11.398369449788747,0.04674060435226068
8.475724,11.358204722537552,0.04670348319123808
8.479752000000001,11.309411418911576,0.04668410709189456
8.483784,11.257815739760629,0.04666835625330615
8.487811999999998,11.203528409984647,0.04665212276423082
8.491836,11.152375630433442,0.04662108463470153
8.49586,11.097191083782448,0.04660429783635975
8.499883999999998,11.039879928681627,0.04659837815504123
8.503908,10.978647731380953,0.04660333984742993
8.507932,10.910802841255393,0.04661964241349773
8.511955999999998,10.84206073425482,0.04663650319189005
8.515992,10.775334510804141,0.04664582844108402
8.520084,10.705916636728425,0.04665510998343588
8.524180000000001,10.63750670442766,0.04666032860943083
8.528264,10.571001930776848,0.04666149235364023
8.532352,10.502702723376014,0.04666308026353827
8.536380000000001,10.434403515975179,0.04666466433823116
8.540468,10.363301933049375,0.04667039237704044
8.54456,10.290295191473614,0.04668040336671429
8.548656000000001,10.216059058323035,0.04670223398510096
8.552751999999998,10.13823405767241,0.046723437824144017
8.556843999999998,10.056820189521737,0.04674463588935101
8.560939999999999,9.975738496070868,0.046753981769971385
8.565036,9.893870310644923,0.0467595279037249
8.569132,9.809089024794073,0.046773481200629956
8.573224,9.718592262993347,0.04679975317285327
8.577312,9.628206226092555,0.046822336987342394
8.581399999999999,9.536136480341673,0.04684111525603165
8.5855,9.442493750640638,0.046851191799945194
8.589592,9.351874846264444,0.04684851510228981
8.593688,9.259572233038162,0.046841661725849866
8.59778,9.160878376786862,0.04683860559173756
8.601876,9.060500811685472,0.04683027625631557
8.605968,8.948803019584265,0.04684667893884158
8.610064000000001,8.828808825808084,0.04687272504524692
8.614159999999998,8.705447214331723,0.04688932214730815
8.618255999999999,8.577599518480307,0.04690600427902463
8.622352,8.448178838678734,0.046912822483160165
8.626444,8.316066508252128,0.04692130086126156
8.630548000000001,8.176997892625295,0.046919359901091584
8.634640000000001,8.028514208648605,0.046940723009872745
8.638728,7.879465482496705,0.04694288732423682
8.642824000000001,7.729408814569862,0.046949492506175715
8.646912,7.577557712892994,0.04695609584484747
8.651008000000001,7.421220526841068,0.04696511419378213
8.655103999999998,7.260507981314015,0.04696957478844145
8.659192000000001,7.092396250987001,0.04698946981208191
8.66328,6.919011944309849,0.04700201998809936
8.667372,6.738117727932798,0.04703676017460703
8.67146,6.553745368955636,0.04705986323419056
8.675548,6.363989708728401,0.04708361468351659
8.679635999999999,6.168740022351162,0.04711799646213331
8.683727999999999,5.968782801798993,0.04716910389254641
8.687815999999998,5.774983956796438,0.047168677196257114
8.691904000000001,5.582303778468766,0.04715156448877054
8.695996000000001,5.388726383266083,0.047127540519611766
8.70008,5.190662903688339,0.04710177231066
8.704168,4.988567657010809,0.04712049042947548
8.708255999999999,4.784578669358853,0.04728025854266548
8.712347999999999,4.585652225932696,0.0476025724376035
8.716435999999998,4.397282352882344,0.048114637840499797
8.720524000000001,4.205468590258481,0.04901860752040752
8.724612,4.014929889911563,0.050474437683855254
8.7287,3.8363335471173325,0.05252700949897383
8.732783999999999,3.673722746651111,0.05518805482229414
8.736871999999998,3.528559747563115,0.0584093400136897
8.740967999999999,3.4054413591283392,0.062045784470079524
8.745068,3.301011581322139,0.06616042058864964
8.74916,3.2224367314690756,0.07047935101647465
8.753260000000001,3.1608667833945003,0.07514172821522894
8.757352000000001,3.1198906045984582,0.08012628014981768
8.761444000000001,3.1112827393560396,0.08513385735546071
8.765536,3.12573884421732,0.09034314363015303
8.769628,3.1628160195825616,0.0956884433566215
8.77372,3.224751598801527,0.10111485244420731
8.777812,3.3086324814493104,0.10669259185118843
8.781904,3.4203955932756576,0.11230290012200471
8.785999999999998,3.560373108980373,0.11788464959656128
8.790091999999998,3.730901669137621,0.12324472133112742
8.794183999999998,3.917182904147475,0.12855200445043158
8.798275999999998,4.124699422484406,0.1335944706739627
8.802371999999998,4.359609599698032,0.13821380587596477
8.806511999999998,4.6178474156619655,0.14218404795520564
8.8106,4.883572305974733,0.1454995411314136
8.814688,5.152286768585741,0.14817299704179163
8.818776,5.42353648621972,0.15023573225257114
8.822868,5.690697348376246,0.15183979523935429
8.826956,5.957690397255173,0.15292333936330083
8.831043999999999,6.216562823556863,0.15378259949666218
8.835139999999999,6.472243611256114,0.1542954113137102
8.839236,6.726072876827676,0.15444388152069113
8.843328,6.9649245418461785,0.15454233923416336
8.847424,7.199221616436423,0.1543587355413386
8.851524000000001,7.42156491579845,0.15405457358798236
8.855616000000001,7.635997624707574,0.15362759857767314
8.859715999999999,7.843527684938744,0.15303515429057676
8.863807999999999,8.039004662717293,0.1524159692018165
8.867904,8.223879399417903,0.151744651433636
8.872,8.39300146126591,0.1511346441603848
8.876092,8.557912525060999,0.15036468209531142
8.880192000000001,8.709086797553374,0.14961713797830611
8.884228,8.843156861042859,0.1489113430373673
8.888311999999999,8.962825783830024,0.1482611521851296
8.892403999999999,9.072369618165592,0.14764495815441597
8.896495999999999,9.174037115074855,0.14704512811222306
8.900583999999998,9.267717549657881,0.14647175252436995
8.904671999999998,9.355438223140096,0.14592134058853237
8.908763999999998,9.436412643546422,0.14540190184481705
8.912855999999998,9.51254596952682,0.14488002046309417
8.916947999999998,9.583838201081292,0.14435911241437624
8.921039999999998,9.649957163510026,0.14385818808730816
8.92512,9.71225439096331,0.14337392553499767
8.929208,9.764227915516194,0.14298366945926874
8.933243999999998,9.811925387818356,0.14259672869887674
8.937335999999998,9.848501247569502,0.14227050975569305
8.941427999999998,9.877765812069555,0.14195657443300655
8.945564000000001,9.902521456843482,0.14162104860652358
8.949659999999998,9.918404240091693,0.14133721536908148
8.953744,9.929900246189245,0.14105971951676033
8.957836,9.934207099611173,0.14082092080257658
8.961872,9.929198191907648,0.14065113186661735
8.965964,9.924853633603728,0.14045001208943905
8.970047999999998,9.915015049149801,0.14030567928976587
8.974135999999998,9.903382030945853,0.14017824142086402
8.978216,9.891183970566695,0.14004327773672567
8.982299999999999,9.876404984462441,0.13992823526204173
8.98638,9.861060956182977,0.1398056789381913
8.990472,9.842128060403464,0.13971690291704475
8.994556,9.824313831298834,0.13960875410652637
8.998636000000001,9.804705168444181,0.1395171579387388
9.002731999999998,9.783523521639376,0.1394313755162675
9.006812,9.763571266409386,0.1393212248621653
9.010896,9.747540053379247,0.13916183595970832
9.014972,9.730057998974422,0.13903672397957537
9.019047999999998,9.715500462670033,0.13890913401973523
9.023136,9.70229446051593,0.13878517757123962
9.02722,9.689653500537034,0.13866814475827138
9.031304,9.680490683158252,0.13852249539266767
9.035391999999998,9.669422707129511,0.13839858369311506
9.039483999999998,9.658919773275978,0.13828170460961645
9.043564,9.658175500147639,0.1380775343464834
9.047648,9.655758935844743,0.13791871710716863
9.051735999999998,9.657717731016973,0.13772330282288633
9.055816,9.659233626589463,0.13754859251673135
9.059895999999998,9.663784765162326,0.13736734300575193
9.06398,9.672600538310377,0.13715572663590941
9.06806,9.684673004258672,0.1369278236256423
9.07214,9.702018046557104,0.13665626185848975
9.076224,9.721157522605557,0.13637080249351569
9.080312,9.740972765729154,0.1360874537849079
9.084392,9.762471717702837,0.13579469895545954
9.088472,9.78173333632676,0.13553896496638818
9.092555999999998,9.799765563375864,0.1353074753437219
9.096636,9.825750599724607,0.13497874541744515
9.100715999999998,9.852965027648166,0.1346274158519361
9.104803999999998,9.881752439521883,0.13427199337885026
9.108888,9.912899327320828,0.13391020679340676
9.112984,9.942706098645022,0.13357715290332628
9.117068,9.981374313819398,0.13317441318891748
9.121152,10.022623454718875,0.1327563254066139
9.125236,10.058267844568416,0.13239729648996792
9.129312,10.096936059742792,0.13200249215555523
9.13342,10.136501491792183,0.1316038326521906
9.137504,10.1807744580165,0.131159819957838
9.141592,10.22314226559086,0.1307381951379713
9.14568,10.26416995669047,0.13034697371370635
9.14976,10.30329248914012,0.12997801270394715
9.153848,10.341517804714758,0.12961969570245613
9.15794,10.379521670489526,0.12927535072405646
9.162032,10.422233070439223,0.12888929647754777
9.166128,10.464612295689117,0.12852031417132562
9.17022,10.51091256313886,0.12811049579584216
9.174316,10.561920364763534,0.12766033600941354
9.178416,10.60867494948855,0.1272729630780969
9.182512,10.657334692863525,0.1268711701297807
9.186604,10.70901826156334,0.12644073422229146
9.190704,10.759461021012807,0.12600380613536857
9.194796,10.812251838711973,0.12553224666971474
9.198892,10.858086371210911,0.1251086195706658
9.202988,10.902347919759697,0.12469209172132197
9.207083999999998,10.949633293633322,0.12424401756777508
9.21118,10.993329800006899,0.12382357923006886
9.215276,11.034445380655379,0.1234199566850431
9.219364,11.072193543603678,0.12303534242413564
9.223456,11.114416373251505,0.12259460718454696
9.227552,11.155730568348787,0.12213241166575656
9.23164,11.198495604820753,0.1216447603989591
9.235727999999998,11.240695599117515,0.12115279722300877
9.239816,11.280425392589109,0.12067264072780065
9.243896,11.315890551485513,0.12021736187204263
9.247984,11.354146668231357,0.11971578880714034
9.252067999999998,11.39004330905197,0.11922160853628554
9.256152,11.42268325707234,0.11874188413054963
9.26024,11.453750221142556,0.11826626022280597
9.264328,11.483022751462748,0.11780487126096877
9.268411999999998,11.508706414282894,0.11736941018625756
9.272496,11.535176569078113,0.11693506765592629
9.276584,11.56287611544815,0.11648627393818772
9.280663999999998,11.594385979118107,0.11600987140555757
9.284752,11.624998625913049,0.11554023233660812
9.288836,11.657848606057755,0.11504806634006332
9.29292,11.694730353302248,0.11452098285767864
9.297007999999998,11.732055000146481,0.11397879209108899
9.301099999999998,11.769490371890647,0.11343374761620251
9.305191999999998,11.802218209459884,0.11292715616447598
9.30928,11.83763769765416,0.1124091441714849
9.313368,11.873167910748368,0.11189108800456621
9.317456,11.906117198117474,0.11138459671831358
9.321548,11.937604226436363,0.11087605591680781
9.325636,11.970431371230005,0.11034889330768759
9.329728,11.997543040073769,0.10986543072688902
9.333824,12.028575751117385,0.10935489844261738
9.337924,12.058035478210849,0.10884745138670239
9.342016,12.087151612928972,0.10832546982139045
9.346111999999998,12.113908271721865,0.10780608345754374
9.350208,12.139313396364475,0.10728124324373903
9.354304,12.161572553106778,0.10675989436009016
9.358244,12.183155942773938,0.1062391244147646
9.362376,12.199356031191027,0.10574591109532257
9.366376,12.21510180233284,0.1052418897194777
9.370463999999998,12.227037256174743,0.1047657643810059
9.374548,12.235273117616659,0.10431221218306076
9.378636,12.245192687908665,0.10385560502308816
9.382663999999998,12.259144025300456,0.10336934450872337
9.38674,12.273881854667328,0.10288401992010703
9.390824,12.282793483184388,0.10243926625099646
9.394908,12.289689228151559,0.10201162424768931
9.398988,12.303086941043675,0.1015502177230333
9.403064,12.320860013410918,0.10107418820598138
9.407148,12.338976678153497,0.10061546818746288
9.411228,12.360571485496191,0.10014592965279581
9.415316,12.380150409288989,0.0996953947516151
9.4194,12.403096750781966,0.0992393084293428
9.423488,12.430529176650003,0.09876747477338127
9.42758,12.4650286126182,0.0982732330928169
9.43166,12.503006191186511,0.09777107393662907
9.435748,12.547264287879903,0.09724765183686093
9.439832,12.590071543198608,0.09674940632166677
9.443908,12.63837282466732,0.09622852478704123
9.447988,12.68925503186113,0.09570387588416386
9.452072,12.741710223005098,0.09518222446351565
9.456152,12.7994379904992,0.0946477925285381
9.460235999999998,12.857952249968378,0.09411812107977353
9.464316,12.917031551612764,0.0936032184068268
9.468408,12.97611085325715,0.09309096134818778
9.472487999999998,13.041802847726425,0.09254769582210305
9.476568,13.108392059070711,0.09200359899304678
9.480648,13.175657037490137,0.09147194111793552
9.484732,13.242922015909567,0.09094560281669875
9.488812,13.30951122725385,0.09041860593839746
9.4929,13.38024293059786,0.0898694737215878
9.496987999999998,13.448172258416895,0.08933551271753934
9.501079999999998,13.514307152485907,0.08881145821741863
9.505171999999998,13.579544829679907,0.08829654779772786
9.50926,13.638834163448632,0.08779574914218777
9.513348,13.695542571492254,0.08730346696056286
9.517436,13.748440662235959,0.0868331792163466
9.52152,13.804805477904244,0.0863360919301242
9.525612,13.86228896024741,0.08583532200175356
9.529688,13.922464093215613,0.08533218511043805
9.533776,13.982517083608347,0.0848123458973504
9.537859999999998,14.038859063925566,0.08428675273661136
9.541951999999998,14.094181684792304,0.08374761770092111
9.546039999999998,14.144785353808583,0.08320753885084349
9.550131999999998,14.196274822024339,0.08264529753460868
9.554227999999998,14.247974322364433,0.08205983789776733
9.558319999999998,14.299662405028993,0.08145431512482731
9.562416,14.344050610117993,0.08084999889987544
9.566508,14.383830588256464,0.08023869843889672
9.570604,14.42460709049435,0.0796027706893149
9.5747,14.45472771513203,0.07899023846373183
9.578796,14.48752857271921,0.07835104382639334
9.582884,14.51953152065578,0.07769015005672054
9.586976,14.547602008716968,0.07702593607952962
9.591072,14.575328904402816,0.07634916899314961
9.595164,14.603609424588344,0.07565918542275517
9.59926,14.630194818248246,0.07494863770223872
9.603352,14.65172908535788,0.07424266939556232
9.607444,14.669441617492065,0.07353035790930582
9.611532,14.681083663625506,0.07280365995277686
9.615616,14.690476958733651,0.07207105518559595
9.619699999999998,14.700313153441535,0.07132843321652962
9.623784,14.707789872224186,0.07058267493538332
9.627872,14.715488040806708,0.06983175914872464
9.631956,14.720826733464,0.06907752015755626
9.636048,14.722576558621244,0.06833142395769479
9.640135999999998,14.72376134160328,0.06757892097001628
9.64422,14.723373140635163,0.06682081775573734
9.648304,14.725000823216938,0.0660541257336766
9.652392,14.72113447964871,0.06529686214446645
9.656484,14.723094336930291,0.06451979423333273
9.660567999999998,14.716647067636961,0.06375907373567201
9.664652,14.70527081436883,0.06301297620509212
9.66874,14.68828981005076,0.06227484697455499
9.672824,14.666379821757891,0.06154970464429624
9.676916,14.638078590440005,0.06083103783825476
9.681,14.601824549822478,0.06013489058895892
9.685092,14.556044715955162,0.059455821122612836
9.689184,14.499620422163169,0.058800522652715875
9.693272,14.43401392749672,0.058175131922707526
9.697412,14.357762972905599,0.057571817943470785
9.7015,14.265041357539989,0.057006279028872876
9.70564,14.158762181824802,0.05646945490949211
9.709772,14.036123070235067,0.055966516911238856
9.71386,13.898586281821002,0.05550521670655778
9.718,13.741333557507744,0.05509886489057266
