Time,Force,Position
8.13896,3.236444338767803,0.04459264479870921
8.142992,2.9306919988375753,0.042157367158476164
8.14708,2.6367256208579692,0.03973051722296775
8.151124,2.3581340723290314,0.03731290503801818
8.155216000000001,2.0938101042514137,0.03489817835147674
8.159308000000001,1.8560168312020753,0.03250272371088377
8.163400000000001,1.6567845002825736,0.030111893196684246
8.167484,1.5079983806679318,0.03616031548101352
8.171524,1.4040537213082092,0.04200552700815191
8.175652,1.3412509298034232,0.04781738613300554
8.179744,1.323732498153296,0.05345884218827145
8.18388,1.3419612154325018,0.05908479608934436
8.188004,1.4002017162162304,0.06462945730219402
8.192096,1.503848719430085,0.07012258005632457
8.196224,1.6507756166242378,0.07554966007823119
8.200316,1.8406502330988839,0.08097563490105264
8.204352,2.08052816127865,0.0862109170944418
8.208484,2.3600971159386672,0.09146446435676535
8.212572,2.6774405207534437,0.09669037095590464
8.216672,3.0289695082229326,0.10192100517503831
8.2208,3.421640363547358,0.10932510028504679
8.224924,3.843689960127166,0.11674431838308871
8.22896,4.3014981233118394,0.1241524438161275
8.233092000000001,4.795064853101378,0.13152426750704496
8.237224,5.3334387901192395,0.1387493694439127
8.241316,5.890310689137012,0.14588627277157293
8.245452,6.451699473701049,0.1528881582043006
8.249592,6.992372346411084,0.1514145264650685
8.25374,7.517601883617253,0.15012030022243938
8.257864,8.027388085319556,0.14885154821718727
8.262008,8.521398776818188,0.14771175147291138
8.266156,9.006601660988908,0.14657139938572503
8.270296,9.476139759855892,0.14547537657357337
8.27444,9.923931169742865,0.1443880368853597
8.278564,10.344913346424022,0.14331756210559168
8.2827,10.741545073048998,0.14218451487800096
8.286836000000001,11.103071164793183,0.1411810451415499
8.290972,11.433756256231769,0.14020759286386103
8.295052,11.741010949840254,0.1392230243797809
8.299176000000001,12.02584318739358,0.13819989963104087
8.303312,12.286336392566259,0.137141475070983
8.307452,12.517882338407762,0.13602878310791072
8.311596,12.720923924517832,0.1348594304838134
8.315716,12.892315182996157,0.13364941390576904
8.319848,13.021312346693662,0.13253626519933653
8.323984,13.12263731333694,0.1314561254649585
8.328112,13.202616271753206,0.13046152987825738
8.332256000000001,13.273023766217548,0.12945076361407448
8.336384,13.332397537679746,0.12842469030201947
8.340516000000001,13.382077702614554,0.12736022477102066
8.344608000000001,13.41847539352192,0.12627830547593324
8.348700000000001,13.437768875426398,0.12518306121496017
8.352784,13.44423420057871,0.12407538778922
8.356868,13.443831130079666,0.12295261750825844
8.36096,13.438819832630097,0.12183550560999493
8.364988,13.42920030823,0.12072515910504768
8.369084,13.418782874179291,0.11959056974378993
8.373164000000001,13.405883821627885,0.11843585934170635
8.377248,13.384333357350634,0.11729428605290884
8.381328,13.357498899047714,0.1161542893911985
8.385364000000001,13.32314311336936,0.11503889453743343
8.389412,13.286206401965908,0.11392780628358702
8.393496,13.247253807012562,0.11283016616171546
8.397524,13.202253561409536,0.11177426587607328
8.401612,13.15602392423169,0.11072486636101293
8.405708,13.10788912840389,0.10967928162070739
8.409788,13.056165465076038,0.10864237117292556
8.413816,13.004109627048384,0.10760890503398468
8.417908,12.948476339196215,0.10660845749216646
8.422,12.89757342087004,0.10562660662759243
8.426,12.851290147169927,0.10466581433563597
8.430044,12.811985994021102,0.1037264062726802
8.434140000000001,12.777412210398271,0.10280610437001897
8.43824,12.747790246101307,0.10190149495466969
8.442332,12.724349492705022,0.10099910187355635
8.446428000000001,12.705749833734666,0.10011871755748086
8.450528,12.691769819390368,0.09926815429719768
8.454624,12.685654724796844,0.09841870873687175
8.458728,12.685388666404194,0.09758327731567941
8.462732,12.687493501612305,0.09677396343387279
8.46684,12.695558097921229,0.09597847599893344
8.470944,12.718211031705748,0.0951528224637444
8.475056,12.748618160341099,0.09433906628349445
8.47916,12.791941335277485,0.09352311192929892
8.483212,12.84907777338992,0.09270572494056978
8.487244,12.919695299978597,0.09189937750537716
8.491332,13.006928465268293,0.09108369017561375
8.495420000000001,13.108528518233712,0.09025834763386219
8.499508,13.23032165972466,0.0893939265910382
8.503596,13.35401995986557,0.08853404610732929
8.507684,13.487022603456403,0.08765364979836347
8.511768,13.624278463946892,0.08675798947329477
8.515856,13.77228950926199,0.08582735968472549
8.519944,13.923324379901928,0.08489682262132613
8.524028,14.079509684316536,0.08395599437340097
8.528116,14.237932322080905,0.08301465737588493
8.532208,14.399256642594645,0.08205485760245103
8.536296,14.563150471157954,0.08108939980055563
8.540388,14.733645574870616,0.0800960979268923
8.544476,14.911639170607646,0.07907309435210255
8.548564,15.091747957118974,0.07803341134354803
8.552704,15.267580691379578,0.07700175720432004
8.556792,15.441263981839288,0.0759583988450164
8.560928,15.61301927829797,0.0748980537038289
8.56506,15.77802832168077,0.07383640653278095
8.569204000000001,15.936623286687482,0.07276433974938618
8.573344,16.08398591424325,0.07169678414600668
8.577488,16.216981654123295,0.07064550147347762
8.581636,16.333926797477528,0.06961205238982739
8.585776000000001,16.444358555231275,0.0685808141953542
8.589908,16.539083308834556,0.06757027912987676
8.594052,16.62326290973756,0.06657549272381313
8.598132,16.69006321531553,0.06561846568280492
8.602268,16.741610834018303,0.06468145505007855
8.606348,16.770395856145978,0.06377837266620257
8.610484,16.783363149223245,0.06288473589989996
8.614628,16.775030104775627,0.06202537566191141
8.618764,16.74472095572799,0.06119467475881426
8.6229,16.68840393498054,0.060404008216774
8.626984,16.600585016383274,0.059656540754835466
8.63102,16.47846182441122,0.05895223297792502
8.63516,16.31778114216473,0.05830859887331334
8.639248,16.115851319018752,0.057725531649086545
8.643336,15.87098864612321,0.0572011860125765
8.647472,15.582406631503025,0.056733733122868675
8.651556,15.251567534208414,0.05633220207386806
8.655592,14.883965380389386,0.05599173178745322
8.659684,14.482623995370778,0.055703032260616875
8.66376,14.044298104027881,0.05549118840252695
