Time,Force,Position
8.06318,11.997607138298303,0.054352407284822817
8.067276000000003,11.81132962067118,0.054488729416367204
8.071372,11.617087876068886,0.05463233633560629
8.075419999999998,11.41746283021652,0.05478944633648189
8.079516000000002,11.210992224063869,0.05494476144874434
8.083603999999998,10.99756533271099,0.05510427100506885
8.087695999999998,10.784027716458178,0.05527480240718869
8.091784,10.572738851230659,0.055470082601569055
8.095876,10.35922407032891,0.05573338325296629
8.099964000000003,10.142265399853645,0.05611710785234786
8.104048000000002,9.929051992480497,0.05666779178970965
8.108140000000002,9.727891667559973,0.05739978576435973
8.112227999999998,9.54238471026765,0.05833440491236739
8.116324000000002,9.383198415879269,0.059491901260674745
8.120360000000002,9.247641133769795,0.06086482152160305
8.124447999999997,9.128535128939136,0.06244836258044408
8.128539999999997,9.024307417437134,0.06423066244253144
8.132631999999997,8.93798182458863,0.0661901126789151
8.13672,8.877732609493133,0.06825462996103639
8.140808000000003,8.835496237951071,0.07048684319896284
8.144900000000003,8.81105126016257,0.07288675911288363
8.148996,8.802271067677808,0.07546917676724482
8.153096000000001,8.815546903521797,0.07819396246105734
8.157191999999998,8.856029201469209,0.0810062817953435
8.161283999999998,8.91397071847038,0.08397088487920258
8.165375999999998,8.990944438475463,0.08709021606566072
8.169467999999998,9.0899741868093,0.09031515259730441
8.173564000000002,9.205222344946547,0.0936486731938351
8.177656000000002,9.343965955111704,0.09701644588204658
8.181752,9.503723398804066,0.10037593975713378
8.185848000000004,9.68433828042157,0.10356746783434656
8.189904000000002,9.868297744388187,0.10661985598244607
8.193999999999999,10.041677802627934,0.10955866852997212
8.198096000000003,10.20140895911384,0.11227590523330627
8.202183999999999,10.345143155596203,0.11482717577800351
8.206272000000002,10.474464793700713,0.11725697021124612
8.210308000000001,10.594646449777507,0.11954015651595806
8.214400000000001,10.708158324651746,0.12167205189373179
8.218492000000001,10.808399143174084,0.12374605077417167
8.222579999999997,10.906112672493588,0.1256346306170096
8.226671999999997,10.996812828235207,0.12737563991322012
8.230763999999997,11.083069118448503,0.12892903303983613
8.234860000000001,11.157703808133382,0.13035021343323583
8.238944,11.21825811414021,0.13168425648377938
8.243036,11.269439570643922,0.13289926842626035
8.247124000000003,11.318746669668878,0.1338982450805101
8.251211999999999,11.356764342865223,0.13477262351310748
8.255303999999999,11.387524357332744,0.13548438161527865
8.259384,11.405311237121564,0.13609259164758045
8.263472000000004,11.411808691081772,0.13659284930109433
8.267564000000004,11.400426861739547,0.137106272036233
8.271652,11.382165219070428,0.13757501439777156
8.275740000000003,11.367347465974827,0.13793741453671654
8.279827999999998,11.35106745382901,0.13830256027848514
8.283919999999998,11.341388716832546,0.1385781086018788
8.288008000000001,11.338975604385043,0.13873555801906437
8.292095999999997,11.335753164611399,0.1388379800062388
8.296184,11.328353979811434,0.1389047421408627
8.300267999999999,11.31980187530999,0.13890080857242082
8.304351999999998,11.302598359082697,0.1389270816103962
8.308435999999997,11.284364065729395,0.13890702850155676
8.312520000000003,11.268023513350517,0.13883813848674245
8.316599999999998,11.251671543296109,0.1387401606362771
8.32068,11.236537547140982,0.1385919920173584
8.324760000000001,11.224305233735228,0.13838366502796398
8.328840000000003,11.204895185329377,0.13823371934423195
8.332919999999998,11.18189626942348,0.1381130918186013
8.337,11.15946239569279,0.13799845937272162
8.341080000000002,11.14151460633716,0.13784725360363928
8.345160000000003,11.127831451556721,0.1376688358337786
8.349244000000002,11.117404989576523,0.13747470325448433
8.353323999999997,11.11225110394646,0.1372418741080029
8.357408000000003,11.108559477366619,0.13700836324412236
8.361495999999999,11.10946466006177,0.13673404473122078
8.365576,11.111499927107335,0.13647330196975688
8.369603999999999,11.110179194128255,0.13626100977020833
8.373680000000004,11.111107212174474,0.13604519354941969
8.377660000000002,11.113841081646248,0.13584363908372807
8.381747999999998,11.119610194118394,0.13563620864967724
8.385844000000002,11.132900633965972,0.13538678348034833
8.38994,11.148439824838846,0.13513456889274042
8.394076000000002,11.157255597986898,0.13495059871579418
8.398132,11.166636413310156,0.13477286938440833
8.402268000000003,11.171653286833825,0.13465518492714126
8.406352000000002,11.174765001707534,0.13455650060418614
8.410444000000002,11.176758049906361,0.13447370268545492
8.414584000000001,11.181774923430028,0.1343551873570501
8.418727999999998,11.182416437478574,0.1342680881127192
8.422824000000002,11.181042067977225,0.13420484345679556
8.426855999999997,11.173952222525998,0.1341982589080145
8.430932000000002,11.168656810824794,0.1341773398568276
8.435016000000001,11.158653864948665,0.13420103589905802
8.4391,11.145848543547563,0.13425059429746436
8.443188000000003,11.12912217994661,0.13434247496902943
8.447275999999999,11.10802045687053,0.13446551159647926
8.451367999999999,11.090839775994308,0.1345460085238047
8.455464000000003,11.0725404284432,0.13464282881790088
8.459551999999999,11.059170064866892,0.13468520927742123
8.463643999999999,11.045799701290582,0.1347272326088483
8.467727999999997,11.033769454189025,0.1347432219230485
8.471827999999999,11.0215177572876,0.1347679854091471
8.475928,11.015435853611322,0.134748828641381
8.48002,11.012045600560075,0.13470888301642212
8.484103999999999,11.01829186565856,0.13457310477942058
8.488184,11.027119056482146,0.13442152999048324
8.492276,11.041772448155541,0.13421095525919802
8.496424000000001,11.060236157128854,0.13396578969278816
8.500511999999997,11.082620908302019,0.1336798974994591
8.504603999999997,11.104329892400042,0.13339263700396412
8.508692,11.12984919379798,0.13306881775266638
8.512784,11.154692728120779,0.13274373315800872
8.516872000000003,11.182338637968545,0.132393909950594
8.520908000000002,11.213684140216293,0.1320130870630057
8.525000000000002,11.250966568213787,0.13157034949944904
8.529096,11.29486168903617,0.1310688208769687
8.533192000000003,11.338978259658424,0.1305627936580402
8.537288,11.385442888530372,0.13002243053715684
8.541383999999997,11.427642882827133,0.12950991385505484
8.545480000000001,11.470285776723632,0.12898232607112875
8.549575999999998,11.507545369370064,0.12849605269690223
8.553672000000002,11.54625580339118,0.12798420544367364
8.557768,11.579915110862029,0.12749812763979557
8.561856000000002,11.612001434382723,0.12701784471314598
8.565952,11.640609615303303,0.12656402284331517
8.569987999999999,11.671455129573648,0.12608464684380954
8.574076000000002,11.698490326544077,0.12563997572803398
8.578163999999997,11.7226124230896,0.1252251805491933
8.582255999999997,11.747299561810333,0.1248190803217203
8.586340000000003,11.774567626256164,0.12440132170606909
8.590432000000003,11.805535283101978,0.12395927525099958
8.594516000000002,11.841886241197862,0.12348623658840768
8.598603999999998,11.878237199293748,0.12301495079745882
8.602692000000001,11.914809607189502,0.12253850915763653
8.606728,11.95295499903541,0.12206463054729344
8.61082,11.991100390881318,0.12159634695965668
8.614915999999997,12.029700100002499,0.12114243333878338
8.619012000000001,12.07346166057388,0.12066969499420144
8.623104000000001,12.12036918904557,0.12019382787084298
8.627199999999998,12.168738976567479,0.11972293265782662
8.631296000000003,12.224397223989415,0.11920971839870512
8.635388000000003,12.279723296711552,0.11871237938415864
8.639484,12.343235046208724,0.11816805311414298
8.643576,12.410446388105882,0.11760372713926641
8.647664000000002,12.477436280203168,0.11705202395657759
8.65176,12.542631738550432,0.11651679667336781
8.655856000000004,12.613764122647442,0.11593692917671779
8.659948000000004,12.686236623219203,0.11534095038283008
8.664044,12.758365531415626,0.11473460299084887
8.668187999999997,12.83015084723671,0.11411985533286596
8.672276,12.901027528507251,0.11349346508101972
8.676364000000003,12.962366998852465,0.11290992602527923
8.680456000000003,13.026386702147182,0.11229243462180592
8.684548000000003,13.090173537966496,0.11166233556936442
8.688647999999997,13.148344205060335,0.11104599302041981
8.692739999999997,13.200001486553692,0.11044580585244314
8.696836000000001,13.24727199089639,0.10984078221950819
8.700931999999998,13.286566850588386,0.10925080039888238
8.705028000000002,13.321474933129723,0.10865518608420224
8.709124,13.352106963420338,0.10805041586230478
8.713216,13.37173952373541,0.10747956125505292
8.717312000000003,13.39079562419974,0.10687941221104197
8.721404000000003,13.40344906396352,0.10628986276618116
8.7255,13.410597059901761,0.10570486654348875
8.729592,13.414144770664423,0.10511150983461133
8.733687999999997,13.411068370926662,0.10453100386178846
8.737779999999997,13.398786934963383,0.10397221836997256
8.741871999999997,13.382905213824523,0.10340396221911093
8.745963999999997,13.364320424385095,0.10282174073338135
8.750060000000001,13.341238132895075,0.10223277886760103
8.754155999999998,13.309072947755002,0.1016828696115574
8.758252000000002,13.282501095989337,0.10107662934215494
8.762339999999998,13.2479650172485,0.10049804752419603
8.766436000000002,13.211855954557508,0.09991853162381568
8.770523999999998,13.176976283441332,0.09932295619748403
8.774620000000002,13.145685479825204,0.09871129329746495
8.778716,13.11708632683411,0.09808761881277911
8.782812000000003,13.089052216018226,0.09746887795435735
8.786908,13.063931205627245,0.09683138321903277
8.790912000000002,13.039375237411473,0.09619900555068983
8.795012000000003,13.021210512220717,0.09553698485290518
8.799056000000004,12.999124744830109,0.09489721261376868
8.803092000000003,12.97826836901432,0.09424233732782673
8.807188,12.960214368723499,0.09357320265808311
8.811220000000002,12.944176251982574,0.09288929926839416
8.815248,12.931161960566486,0.09218192702273927
8.819280000000003,12.92375242020034,0.09144700634535077
8.823364000000002,12.916797197109467,0.09072176080655976
8.827451999999997,12.911414957968747,0.08999680569472074
8.831532,12.90436042765347,0.08929623449031832
8.835572000000003,12.900894764838242,0.08858002586318933
8.839648,12.893065160223422,0.08789951305256036
8.843680000000003,12.891626798633618,0.08719414481603929
8.847703999999997,12.884694410893811,0.08650655721213749
8.851783999999999,12.875856864504046,0.08582709347369014
8.855819999999998,12.862643958639158,0.08515609010528855
8.859911999999998,12.845277143099011,0.0844860521327696
8.863992,12.827234560483726,0.08380955321324252
8.868084,12.806389602343472,0.08314321603050952
8.872172000000003,12.782963718478115,0.08247796772580361
8.876259999999998,12.75684618398772,0.08181878138877609
8.880351999999998,12.731736591272277,0.08115032521391947
8.884440000000001,12.704611115006935,0.08049176913117383
8.888532000000001,12.672999554366537,0.07984247460859473
8.892624000000001,12.638585618201168,0.07920082168918186
8.89666,12.603839507335993,0.07856650808688961
8.900748000000004,12.56808545469587,0.07793639533000625
8.904840000000004,12.528742534555702,0.07731090160983707
8.908871999999999,12.485589297115617,0.07669744206108146
8.912963999999999,12.44837298542528,0.0760509232302196
8.917052000000002,12.414291223959712,0.07538183496895819
8.921147999999999,12.382336070943976,0.07469482091460189
8.925244000000003,12.344997616678171,0.07401684220761279
8.92934,12.313153188562367,0.07331950976797084
8.933435999999997,12.277719892946518,0.07262433903377648
8.937532000000001,12.244302480880565,0.07191383613134532
8.941627999999998,12.214363211414721,0.07119624561556012
8.945711999999997,12.184645391748747,0.07046808530515883
8.949803999999997,12.155149021882643,0.06972932726920318
8.953888000000003,12.130581635991337,0.06896535111875816
8.957927999999999,12.107022191874977,0.06819355301356343
8.962019999999999,12.086154398383654,0.06741568726655674
8.966111999999999,12.062938546642629,0.06665435751372598
8.970203999999999,12.043090112601785,0.06589133015371063
8.974300000000003,12.024593212711226,0.06513681681512719
8.978396,12.010803846995593,0.06436839581992712
8.982491999999997,11.992650539480373,0.06362724776628216
8.986588000000001,11.98077775009023,0.06287512998504201
8.990627999999997,11.975074753925242,0.06211728003516723
8.994716,11.966237207535473,0.061377623356976024
8.9988,11.955838094871085,0.06066065482538914
9.002888000000002,11.94510680750689,0.05995293916726583
9.007012,11.935505604493112,0.0592609906482256
9.011104,11.923556343229636,0.05858726606385306
9.015148,11.916436758716555,0.05792242010170102
9.019279999999998,11.911344475428901,0.05727566732178878
9.023371999999998,11.902109700141526,0.05664785192268315
9.027407999999998,11.892210575454541,0.05603919480787942
9.031499999999998,11.87974194271799,0.055453797572074914
9.03558,11.858201834006918,0.05490294015222779
9.039672,11.830392624846297,0.05438025250051299
9.043764,11.792946897535947,0.05388057869967761
9.047847999999998,11.7555011702256,0.053376215585344264
9.051931999999995,11.712118517165507,0.052889069408959107
9.056023999999995,11.664925546805495,0.05240692912677299
9.060112,11.606755941821007,0.05196227932660704
9.064207999999995,11.544665294636665,0.05152442178778775
9.068304,11.4729381293026,0.05110772994683662
9.072391999999995,11.390787953843725,0.0507086308884278
9.076483999999995,11.30147146106029,0.0503361686998278
9.080572,11.203304942102205,0.0499873582018843
9.084599999999998,11.100774481344528,0.04966085255335874
9.08868,10.992528544636976,0.049341327029830684
9.092764,10.880140115929699,0.04903638298648014
9.096847999999998,10.757328677097624,0.04874734096452014
9.100876000000005,10.62577793699083,0.04847803745594217
9.104907999999998,10.489863255084442,0.04823110660879156
9.108991999999995,10.348687414503454,0.048007475695006886
9.113076000000005,10.201242473472915,0.04781243026858642
9.117160000000002,10.05492761679279,0.047637401415353345
9.121188,9.910296468962754,0.04746022060066898
9.125268000000002,9.770716447682984,0.04728914704627356
9.129352,9.62666175970369,0.04714717117834901
9.133432000000004,9.48115623034971,0.04702207440227919
9.137508,9.33027881742119,0.04692818759652397
9.141588000000002,9.18108511334276,0.04683524859901881
9.145672,9.036156043839519,0.04674741801182059
9.149764,8.88977613296159,0.04667907429489576
9.153848,8.741945380708977,0.046630883594629635
9.15794,8.596019787106322,0.046574602264050906
9.162032,8.44998346860373,0.04652112067425729
9.166124,8.301034049676236,0.04647484851377406
9.170216,8.154554831573904,0.04643448155349706
9.174304000000005,8.006956946796693,0.046401711800980946
9.178392,7.863623696594671,0.046379027782350396
9.182484,7.717377345967744,0.04636612966559929
9.186567999999998,7.571241720240751,0.04634598715968806
9.190568000000004,7.4212957772138415,0.04633836748841772
9.194660000000002,7.274373659511774,0.046314005341644884
9.198756,7.125767832959615,0.046283887493472106
9.202844000000002,6.975821889932705,0.04627487417639359
9.20694,6.820049746055986,0.04628996207509458
9.211036000000004,6.666182760829225,0.046300267561942804
9.215124,6.512315775602463,0.04631047763524782
9.219212000000002,6.3643857161254465,0.04628594919027648
9.223304000000002,6.215447714873484,0.0462655778700274
9.227391999999998,6.061912904346528,0.04624896986209769
9.23148,5.914880061744523,0.04621829833453883
9.235564,5.774459911967407,0.04616413521138623
9.239656,5.6328103706154735,0.046128369966409816
9.243748,5.494749696763588,0.04609172324743598
9.247843999999995,5.358483456661726,0.04605369022878478
9.251872000000002,5.219193391235024,0.04603951537502797
9.255964000000002,5.077887442258428,0.046044828243752334
9.260000000000002,4.942518419031576,0.04600164547849269
9.264096,4.814437855704755,0.04595181791839925
9.268192000000004,4.691519143828135,0.045919498231527675
9.272228000000002,4.575213124776403,0.045861728848130515
9.276368000000002,4.462385248324784,0.04581003308957281
9.280516000000002,4.355162122923105,0.0457346159761668
9.284612,4.248946939296372,0.04564891424690123
9.288656,4.144747639219533,0.0455435377898972
9.292688000000002,4.044247931542676,0.04542370299790447
9.296727999999998,3.948234308240878,0.04530208773485506
9.30076,3.849761901789447,0.04524046233748617
9.304848000000003,3.752075987313093,0.04518967511728625
9.308944,3.6570817234617747,0.04513666421099774
9.31298,3.5583878672104747,0.045088024166432435
9.317063999999998,3.4539785350092984,0.045067279417915246
9.321147999999996,3.34867198593311,0.04505042048812552
9.325176000000004,3.2424682199819106,0.045030066717401805
9.32926,3.1370509460057883,0.045026714914910546
9.333340000000003,3.0365626560044645,0.04496219626149717
9.337368,2.942797783727962,0.04483378494490251
9.341396,2.842198768826703,0.044757288542756846
9.345428000000002,2.739694595275486,0.04469604688776116
9.349459999999995,2.635728162674049,0.04456577669488601
9.353496000000003,2.530643063397731,0.0444608468467865
9.357524000000002,2.4228663134963773,0.0443395626037622
9.361563999999998,2.3119550133702482,0.044289236497091516
9.365599999999995,2.202838146994144,0.04423239723582788
9.369628000000002,2.0991045818681098,0.044175442409120455
9.373668,1.988758323917188,0.044182935291013366
9.3777,1.8738152566912722,0.044218495564449074
9.381744,1.7620067396901318,0.04197800413227927
9.385776000000003,1.6559136986388667,0.0397282180128202
9.389808,1.5525123082126373,0.0374825059196174
9.39384,1.4490001928864735,0.03524196932117671
9.397864000000002,1.3527765374603384,0.03299228879730638
9.401943999999997,1.262944125059221,0.030732160980803724
9.405984,1.1775977970331633,0.02847745453999488
9.410011999999998,1.0932594107820521,0.026208119491749338
9.414040000000004,1.0085888498311362,0.02398280914345225
9.418072,0.9235861141804156,0.021802980376087314
9.422099999999997,0.8441881295796357,0.019614433023097386
9.426132,0.7694976791537846,0.01741233559709386
9.430172000000002,0.6991825882030579,0.015269498274018932
9.434203999999998,0.633464306527325,0.013114702559381323
9.438239999999997,0.5749237598516868,0.010978178401013911
9.442276000000003,0.5222094140258589,0.008795692026912137
9.446368000000003,0.4730839357000784,0.0066235893297889046
9.450460000000003,0.42317196539922086,0.004457165109482407
9.454496000000002,0.3834615554232979,0.0022413598335342825
9.458527999999998,0.35204754712235137,0.0
9.462619999999998,0.32130930589654677,0.0
9.466708,0.29113610684594937,0.0
9.470796000000004,0.2628680664453105,0.0
9.474884,0.24357219479478986,0.0
9.478967999999998,0.22237116449431077,0.0
9.483051999999995,0.203972509718802,0.0
9.487084,0.1874790135932517,0.0
9.491172000000002,0.17917119424274272,0.0
9.495203999999998,0.17546018416722767,0.0
9.499284,0.17365433274167116,0.0
9.503311999999998,0.17331074036633368,0.0
9.507352,0.17375363996607318,0.0
9.511439999999997,0.17005404756609102,0.0
9.51552,0.16635445516610886,0.0
9.519547999999997,0.16175764589111488,0.0
9.523632000000005,0.15705011171618602,0.0
9.52772,0.148642985141275,0.0
9.5318,0.14349255136660666,0.0
9.535892,0.13542901716703307,0.0
9.539967999999998,0.12589183355635142,0.0
9.544048,0.12220365883190208,0.0
9.548132,0.116831775257364,0.0
9.552215999999998,0.1111277169830213,0.0
9.556299999999997,0.1027092000472212,0.0
9.560391999999997,0.09709305863639142,0.0
9.56448,0.09046897545061496,0.0
9.568572,0.08373416736490363,0.0
9.572660000000004,0.07329976687921012,0.0
9.576756,0.06196814951850481,0.0
9.580852000000004,0.05153374903281131,0.0
9.584984000000002,0.04132079834698756,0.0
9.58902,0.031107847661163788,0.0
9.593112,0.024926664075126812,0.0
9.597244,0.01964269736410165,0.0
9.601332000000005,0.014358730653076489,0.0
9.605467999999998,0.00896403904211646,0.0
9.609548,0.007268939831138596,0.0
9.61368,0.004898073545018649,0.0
9.617763999999998,0.004432365908857221,0.0
9.621799999999997,0.004432365908857221,0.0
