Time,Force,Position
15.63316,0.7100983022918862,0.014537051975405006
15.637244,0.7081817259663951,0.009693253079688694
15.641324,0.7042492660910102,0.0049588832162341485
15.645408,0.7046807480152169,0.004329077770647918
15.649488000000002,0.7094875894145478,0.008628255524952548
15.653567999999996,0.7136186637387367,0.012874304151741376
15.657647999999998,0.7195441718129492,0.017215356774500173
15.661723999999996,0.731406605636907,0.021284249549199313
15.665803999999998,0.7420396478860483,0.02549134733217514
15.669884,0.7526726901351893,0.029790525086479766
15.67392,0.7605033568593603,0.03407719701565329
15.678008000000002,0.7683340235835312,0.03840627478630121
15.682092,0.7760539654077674,0.04267996115827382
15.686176,0.7826552405571218,0.04705334726731504
15.690263999999996,0.7885807486313342,0.051257409781481286
15.694259999999996,0.7896879976306829,0.05125740978148128
15.698339999999998,0.7930325799797948,0.05125740978148128
15.702423999999995,0.8008632467039658,0.05546147229564753
15.706500000000002,0.8035434796534684,0.055461472295647525
15.71048,0.8081288712529295,0.055461472295647525
15.714580000000002,0.8103662046026926,0.05546147229564753
15.718667999999996,0.8130578552277282,0.059912157706628846
15.722708,0.820014140427953,0.06434784003080664
15.726812,0.8246337850540126,0.06482383609696069
15.73092,0.8329644397555874,0.0653925371239131
15.735024,0.8432230884581863,0.06646030604136105
15.739076,0.8605715826120106,0.06775401254398097
15.74318,0.8805352555175341,0.06973208424314058
15.747283999999995,0.9097267999996442,0.07183734493131434
15.751332,0.9487112582335482,0.07407848338327448
15.755383999999996,0.9983972647697903,0.07659639878939523
15.759432,1.0630494541835604,0.07915930611654351
15.763532,1.143576461025403,0.0818900493366603
15.767631999999995,1.2414405443455365,0.08467003490985289
15.771683999999995,1.3605855816948795,0.08768966390087735
15.775727999999996,1.5070706413986446,0.09499384168109641
15.779712,1.678337633082797,0.10239885845872859
15.783751999999996,1.8724813980973785,0.10573421412057789
15.7878,2.1005014064179326,0.11330839657197077
15.791892,2.3571364993698567,0.12098625482774703
15.79592,2.6464184440529372,0.12868847623130872
15.799964,2.9663199392417487,0.13191604396619416
15.804003999999996,3.3119005832859596,0.1351793455080942
15.807999999999996,3.68516484205993,0.1380773368534934
15.812083999999995,4.076697647213802,0.14098829529364845
15.816076,4.493665316072138,0.14346811661291384
15.820115999999995,4.929997362634192,0.14563761731133854
15.824212,5.384342252749678,0.14742337310821957
15.828239999999996,5.854894134993043,0.14894031632775012
15.832331999999996,6.339182808539119,0.15024353001684987
15.836367999999997,6.839323464162203,0.15124807871927726
15.840472000000002,7.346676107811981,0.15217340566459456
15.844508,7.859202020587492,0.15297230837634399
15.848595999999995,8.379348567962838,0.15355805843019055
15.852687999999995,8.890156518861662,0.15408205238737666
15.856723999999996,9.393840371282662,0.1544624579905805
15.860812,9.882302337999668,0.15470664904260534
15.864899999999995,10.35956276843693,0.15473632742772572
15.868991999999997,10.808673849193628,0.15472427318274218
15.873083999999997,11.234442421669094,0.15456685690961006
15.87712,11.6324931263882,0.15434593898046464
15.881212,11.99790839705168,0.1541570812106796
15.885307999999998,12.334399243735053,0.15397000596688923
15.889408,12.64611957611357,0.15377231517646045
15.893503999999997,12.942927362136832,0.15344342545047307
15.8976,13.218763533479622,0.15304979798634027
15.901692,13.472853015842398,0.15261790083452378
15.905792000000002,13.706314475900042,0.15212919281506976
15.909888,13.91837283935301,0.15161922454263055
15.913923999999998,14.108020164426351,0.15109158341864604
15.917964,14.273019117770307,0.15058557393469474
15.922059999999998,14.419195900234683,0.15003913220722417
15.926155999999995,14.543194511794841,0.1494943279352689
15.930207999999997,14.63751646042641,0.1490374279032643
15.934291999999996,14.717315125780193,0.14857579331655676
15.93838,14.780364592181954,0.14816583220917193
15.942463999999998,14.829589377732136,0.14779750433735123
15.946560000000002,14.858044614906047,0.1475360051184478
15.950647999999996,14.881425890178624,0.14725727402063268
15.954736,14.890883177375219,0.14704163035416212
15.958831999999996,14.890238211471283,0.1468793022909044
15.962928000000002,14.884641426241483,0.14671707678841645
15.967024,14.878678213285278,0.14649776856456945
15.971119999999996,14.867308863727938,0.1462709473046796
15.975208,14.84380995984464,0.14609412301896066
15.979291999999996,14.80661993536076,0.14599397129177608
15.983375999999996,14.764145916851211,0.1459035189572888
15.987408,14.714937062941306,0.14584699064031434
15.991452,14.660898532281005,0.14580813655070693
15.995451999999997,14.607745800820185,0.1457394342317986
15.999475999999998,14.547858233959007,0.14570526163408426
16.003559999999997,14.484381799597784,0.1456936252336654
16.007636,14.419454523861873,0.14570589034077813
16.01172,14.360697041351113,0.1456794839501576
16.015804,14.310014510715455,0.1455966741704901
16.019831999999997,14.25934339775533,0.14553640597688547
16.023915999999996,14.214177728620745,0.14545861742972482
16.028004,14.18012225436164,0.1453196369008513
16.032087999999998,14.1460896154536,0.14522566106418874
16.036179999999998,14.125194472646468,0.14507362927609754
16.040275999999995,14.11507735001501,0.1448713171713068
16.044372,14.114841030684213,0.14462524654980946
16.04836,14.119789398154682,0.14439642872885872
16.052455999999996,14.128903092975941,0.14417131927148688
16.056552,14.148008315997794,0.14390097014093597
16.060647999999997,14.182709818270189,0.1435430151439067
16.064747999999998,14.223371081643393,0.14317890455086468
16.068843999999995,14.275818306967219,0.14276045360665285
16.07294,14.333770976116584,0.14232766609631722
16.077032,14.396221147316542,0.1418932053952194
16.081132,14.471010904966796,0.14138747827141548
16.085227999999997,14.547262921667267,0.14088159551705726
16.089319999999997,14.630238356092564,0.1403241746968965
16.093416,14.718929266467734,0.1397290436318261
16.097515999999995,14.803244817367776,0.13916541832264678
16.101612,14.891691442592014,0.13854394120670196
16.105712,14.97956160796551,0.13790015569195996
16.109807999999997,15.063831488163423,0.13726217023706797
16.113904,15.155932035085508,0.13654360341963873
16.118,15.24521878880709,0.13583048661230404
16.122092,15.330573082653284,0.13513325742182172
16.126187999999996,15.414121525073927,0.13443310162842284
16.130287999999997,15.493947539743521,0.13371924803150248
16.134384,15.572521327487232,0.13298171573274783
16.138415999999996,15.644249554930653,0.13228072789835202
16.142507999999996,15.707227063423824,0.13162956234651324
16.146596,15.766715011641352,0.13097783609031086
16.150688,15.818116590308241,0.1303545866391067
16.15478,15.867712317549572,0.12972379910245252
16.158868000000002,15.91370775961532,0.12909617015343594
16.162955999999998,15.952857641380781,0.12850089330034445
16.167047999999998,15.9962607400459,0.12787137983024943
16.171136,16.038766621836004,0.12725134496835264
16.17522,16.0728653770512,0.12668424155442962
16.179307999999995,16.109987957591237,0.1260978148435848
16.183396,16.14184937945667,0.125557213479205
16.187484,16.1733786266223,0.12502814605076112
16.19158,16.204354249288247,0.12451577480930404
16.195672,16.231298104854414,0.12403729463149138
16.19976,16.258807002595788,0.12356629936845637
16.203847999999997,16.28911827586213,0.12308220710052052
16.207936,16.315397782028686,0.12262868109392164
16.212028,16.34202088057058,0.1221876074545415
16.216115999999996,16.37044983053803,0.12176030877238316
16.220159999999996,16.39753866403073,0.12134888036522089
16.224251999999996,16.427097698348593,0.12093213314546838
16.228348,16.459913425466706,0.12051047180363131
16.232448,16.496207295184924,0.1200777168303239
16.236544,16.53497136572831,0.11964195531219855
16.240647999999997,16.573181811772024,0.11922292066628833
16.244744,16.615767617290857,0.11878959017539537
16.248831999999997,16.657013306334942,0.11837557963981402
16.252928,16.695678069653926,0.11797227465818243
16.257023999999998,16.739161092047773,0.11754204624576432
16.261120000000002,16.77681791359181,0.1171478559339904
16.265216,16.81951444401058,0.11672181498191417
16.269311999999996,16.86109230775447,0.11630661154027443
16.273408,16.90939358922318,0.1158576320711349
16.277503999999997,16.956686928916945,0.11541740187346876
16.2816,17.003525951335437,0.11497228902460972
16.285695999999998,17.047784048028827,0.11453802233150769
16.289787999999998,17.09305008649717,0.11409797570993038
16.293883999999995,17.14223716716536,0.11363876308988212
16.297983999999996,17.193096539008103,0.11316022169993731
16.302075999999996,17.247311910875496,0.11265530337247756
16.306172,17.30129441526748,0.11213953683299613
16.310267999999997,17.350115068209274,0.11164062919079003
16.314367999999998,17.39725201230097,0.11114867611061799
16.318463999999995,17.445286173267682,0.11065779677222637
16.32256,17.495336217784285,0.11015733835070252
16.326655999999996,17.542583886775923,0.10967223424245601
16.330747999999996,17.585345471392493,0.10920450511045156
16.334847999999997,17.629680039959222,0.10873766571091237
16.338939999999997,17.67659553425105,0.10826762625684387
16.34304,17.729005054692884,0.10777776053208367
16.347132,17.782766109285003,0.10729654207566348
16.351227999999995,17.839661714101897,0.10679780236864848
16.355324,17.885458541718847,0.10634547253428837
16.359424,17.93169826893553,0.10588443780045888
16.363519999999998,17.97513562062725,0.10543670540249671
16.367611999999998,18.015881321693925,0.10499878573929626
16.371708,18.06088023966026,0.10453591604198156
16.375804,18.097693480851557,0.10410331035521127
16.379904,18.126996812342952,0.10370276610062204
16.383996,18.157418810509235,0.10329611003438985
16.388091999999997,18.18604637492549,0.10289626949641216
16.392191999999998,18.2165790979917,0.10248877760344749
16.396283999999998,18.24542811220783,0.10208534237185822
16.400384,18.2603645560235,0.10171484744714406
16.404476,18.2667717306888,0.10136100296803698
16.408571999999996,18.267562736628623,0.10101001661366461
16.412671999999997,18.267112933318096,0.10065063640593212
16.416763999999997,18.262730670132182,0.10029174944563533
16.420816,18.24892192092088,0.09995177739885829
16.424899999999997,18.22579741058412,0.09962742943955154
16.428991999999997,18.191562705371886,0.09932370850992792
16.433035999999998,18.150150265159553,0.09904020560990733
16.437136,18.10873782494722,0.09875545827290415
16.441168,18.064412284309984,0.09848298835341789
16.445216,18.01627642637283,0.09822516223257607
16.44926,17.964330251135763,0.09798188487139561
16.453195999999995,17.90162889107408,0.0977871774806856
16.457244,17.84218422381264,0.0975890965896243
16.461288,17.788798624876417,0.09737733939646577
16.465332,17.73665383519054,0.09717278869172502
16.469379999999997,17.68395542100499,0.096980422696645
16.473319999999998,17.62991689034469,0.09680020638258789
16.477304,17.574095343609894,0.09664267250598826
16.481335999999995,17.530170483725662,0.09646483467346083
16.485376,17.49455344319194,0.09627696137163456
16.489408,17.463433904708804,0.09609433698442209
16.493439999999996,17.43703331807613,0.09591205496632857
16.49748,17.41086559891886,0.09574239974116361
16.501516,17.389195381812183,0.09557840302570447
16.505611999999996,17.373927825406057,0.09541261373462302
16.509711999999997,17.365284379500352,0.09523972916499827
16.513811999999998,17.361470610345037,0.09506504825959727
16.517907999999995,17.362929417539863,0.09487805147570504
16.522012,17.361032224710044,0.09471377090388819
16.526107999999997,17.367320708655267,0.09452490075409653
16.530196,17.382470636450673,0.09431436848165746
16.534288,17.404798299246174,0.09408377964212405
16.538383999999997,17.427347411841545,0.09384836174907037
16.54248,17.44619693203693,0.09362595925865504
16.546567999999997,17.45585283368233,0.09343287508358859
16.550664,17.46651667710268,0.09323488691099288
16.554763999999995,17.47818846229797,0.09303201992981702
16.558792,17.494002739492984,0.09280668370051137
16.562887999999997,17.511722175337958,0.09257549144097091
16.566936000000002,17.527757902332844,0.0923472262138043
16.571032,17.544015079127593,0.09211402663620603
16.575059999999997,17.559485763947272,0.09188125815536005
16.579095999999996,17.579663982941877,0.0916324962194815
16.583187999999996,17.601182318411233,0.0913715873402652
16.587264,17.626056653905238,0.09108984027760751
16.591348,17.652381830773926,0.09079383254250901
16.595432,17.67545031484237,0.09049895875208029
16.599459999999997,17.701985523835397,0.09018125189839189
16.60354,17.738267975878085,0.08982461296594184
16.607615999999997,17.771858777295733,0.08947633176653605
16.611656,17.801406393938066,0.08912977657770305
16.615743999999996,17.83442073550498,0.08876108523724226
16.619828000000002,17.86743507707189,0.08839322746337427
16.623915999999998,17.901789535113554,0.08801379662381008
16.628007999999998,17.941072977130016,0.08761312912464125
16.632088,17.981696535621232,0.08720166152440699
16.636175999999995,18.020968559962157,0.08678470195025521
16.640275999999997,18.059675542127877,0.08636409977339443
16.644364,18.094228614618345,0.08594796386968542
16.648448,18.127208703158654,0.0855315398467223
16.65254,18.167355109023525,0.08508485791568163
16.656628,18.20637143053799,0.08462827203300353
16.660715999999997,18.244479117501903,0.08415817886433412
16.664812,18.28526703741532,0.08366738898193801
16.668904,18.320782380978603,0.0831869497484589
16.673003999999995,18.356408449441822,0.08270604982956913
16.6771,18.399422285029466,0.08219062056683836
16.681192,18.437839311342124,0.08168877017457203
16.685292,18.47120521110451,0.08119219817465216
16.689387999999997,18.504338243391494,0.0806843286046101
16.693488,18.53981933392818,0.08016273591980726
16.69758,18.57294094853963,0.07964181293944463
16.701675999999996,18.60975073787553,0.07909714846771311
16.705767999999996,18.647114151711104,0.07854222547574148
16.709867999999997,18.68906295714614,0.07796243950675558
16.713903999999996,18.732462603955863,0.0773723077312806
16.718003999999997,18.78538804401538,0.07676019663817923
16.721999999999998,18.835388965974463,0.07614133115998109
16.726091999999998,18.88178960275796,0.07551122100937657
16.730175999999997,18.925597896140825,0.07486553276642134
16.734275999999998,18.958528862123615,0.07424089992738185
16.738367999999998,18.990673336131323,0.07361603896197179
16.742448,19.015983667514277,0.07301185647276914
16.746492,19.031768205647438,0.07243203020824476
16.750587999999997,19.045979759830445,0.07184942881797325
16.754684,19.05772111318829,0.07126659647762043
16.758779999999998,19.06520924964648,0.07070468544142201
16.762875999999995,19.074934719454426,0.07013229002670546
16.766927999999997,19.085103088862112,0.06955129692381012
16.77096,19.089998881919666,0.06897392041716209
16.775055999999996,19.092535199051987,0.0683936483089863
16.779135999999998,19.089577490034298,0.06782158640217685
16.783224,19.081125754866612,0.06725856456542355
16.78726,19.070990310848828,0.06669524931913975
16.791287999999998,19.054917941081307,0.06614939112120666
16.795315999999996,19.032122153588965,0.06561843062338818
16.799344,18.992622837846724,0.06511401858874118
16.803423999999996,18.951451230929937,0.06462439396034254
16.807507999999995,18.91499857586361,0.06414207625281476
16.811592,18.8851700312977,0.06366390457682004
16.81562,18.85949539640705,0.06318742666950303
16.819715999999996,18.83371003661646,0.06271228390872977
16.823792,18.81532386162583,0.062225839716421844
16.827772,18.80343965456016,0.06172841494033072
16.831852,18.79312843144464,0.06123306182845282
16.8359,18.782595758529258,0.06074167508304197
16.839992,18.766569059463862,0.06025541628689553
16.844019999999997,18.74449470974879,0.05978583752441491
16.848116,18.718732185309264,0.05933740522862817
16.852211999999998,18.698585829595217,0.058897286200075956
16.8563,18.67800799195696,0.058483161311042454
16.860404,18.66046539731908,0.05807697383989833
16.864491999999995,18.64192627858178,0.057690088849304225
16.868596,18.624406519294965,0.0573176575289232
16.872683999999996,18.607119627483545,0.056957448715837834
16.87678,18.59297870357244,0.05660335545313853
16.880872,18.59050159903649,0.056242058300095696
16.884967999999997,18.59441573752555,0.05587547005566459
16.889003999999996,18.59821915111468,0.05551199997819295
16.893087999999995,18.596982855829083,0.05516246907922821
16.897136,18.595525110743605,0.0548177426605858
16.90122,18.597102608658503,0.05448305507714597
16.905308,18.599134423848678,0.05415814072896828
16.9094,18.604201482039223,0.053844003361794665
16.913436,18.61320100010515,0.053539893962669206
16.917424,18.624338544296446,0.05324624390559796
16.921516,18.64422680743798,0.05295436165600709
16.925608,18.669952689104864,0.05266947404914958
16.929695999999996,18.701061872021818,0.05238328816014008
16.933784,18.731949605138905,0.052102442951763896
16.937871999999995,18.764853221805883,0.05181722886472217
16.941951999999997,18.79731393887312,0.05154111530316877
16.946043999999997,18.83415001541548,0.05126645401522402
16.950127999999996,18.867630091933197,0.051005742610248886
16.954207999999998,18.9077228612758,0.05073812653824158
16.958299999999998,18.951404498118453,0.05047077301110385
16.962388,18.989714251386566,0.05022262642658766
16.966475999999997,19.022762845980075,0.04999137552734051
16.970508,19.051336773874063,0.04977851938309845
16.974484,19.079689251968176,0.049570082123750595
16.978536000000002,19.10479645493758,0.049373089522048434
16.982628000000002,19.124974673932183,0.049185695898280465
16.986715999999998,19.136524316552006,0.04901030665495368
16.990804,19.13865889082198,0.048844738999639585
16.994891999999997,19.13339428029198,0.04868425413331495
16.998983999999997,19.125327294237017,0.04852616818046567
17.003072,19.105607906482426,0.04838625386926836
17.007159999999995,19.07949727570282,0.04824873344144707
17.011248,19.044758068548433,0.048122286393733824
17.015331999999997,19.004524835244037,0.04799782915800983
17.019412,18.955441575764993,0.047888631970319215
17.023487999999997,18.905682549210812,0.04777450148651181
17.027467999999995,18.84773784588159,0.04766224779547856
17.031508,18.787322941727197,0.0475449185563246
17.035591999999998,18.712674710148086,0.04744255897432646
17.039688,18.625587584894273,0.04735521844567336
17.043775999999998,18.532330666415312,0.047264947663150064
17.047864,18.43088807116131,0.04717609760991754
17.051948,18.32114907423233,0.047091202966654616
17.056028,18.2054731515536,0.04701693535333743
17.06012,18.08161155209984,0.046943987656039424
17.064207999999997,17.954161085146026,0.04687003013937648
17.068296,17.822900300892304,0.04679977822204606
17.072388,17.690631574863627,0.046730877911184986
17.076432,17.554331081735164,0.04667053041779433
17.080524,17.407386128682028,0.046626063725967344
17.084619999999997,17.26155984230377,0.04657643446379648
17.08872,17.11001807997564,0.046532926906974414
17.092815999999996,16.9604922011974,0.04648342678184138
17.096847999999998,16.80222702114445,0.04644751378641384
17.100891999999998,16.642388857141345,0.04640617228721719
17.104888,16.4720169581135,0.046378220002016524
17.108876,16.29581885823584,0.04635933526672381
17.112971999999996,16.11289734063336,0.04634965428063313
17.117068,15.927849214581054,0.04634781118060426
17.121168,15.742014596553668,0.04634349575586379
17.125196,15.555172036751344,0.0463407296966087
17.129283999999995,15.36990246089917,0.046343316546687226
17.133371999999998,15.18373566817198,0.04634645196908761
17.137455999999997,14.995885166594704,0.04634703338375882
17.141483999999995,14.81061559074253,0.0463500944217149
17.145563999999997,14.620638480715426,0.04635784637185664
17.149591999999995,14.427748270263416,0.046371994778644274
17.153628,14.227569599911376,0.046388416228650704
17.157676,14.024023511859163,0.046398803277855144
