Time,Force,Position
11.457388,0.5206001903328946,0.0
11.461436,0.5190157887072079,0.0
11.465528,0.5153047786316929,0.0
11.469616,0.5165227525309765,0.0
11.473716,0.517064959355118,0.0
11.477812,0.518836557754076,0.0
11.481908,0.5253156903279628,0.0
11.486004,0.5360480398015061,0.0
11.490088,0.5457724475001027,0.0
11.494172,0.5556075800986342,0.0
11.498256,0.5623081624723908,0.0
11.502392,0.5706924536962361,0.0
11.506536,0.5787445702202768,0.0
11.510672,0.5955359880190331,0.0
11.514808,0.6096357551927539,0.0
11.518944,0.6246327392414865,0.0
11.52308,0.6367166228653139,0.0
11.527216,0.6531758659642657,0.00512609957910159
11.53134,0.6667220086383121,0.005126099579101589
11.535468,0.6766907014878443,0.005126099579101589
11.5396,0.6881330710631283,0.011190650507278653
11.543744,0.7010605350396969,0.017673960751875835
11.54788,0.7232044529173194,0.024217545372042973
11.552024,0.7499794330965344,0.031023250258913313
11.556164,0.79035764432746,0.03771620543086651
11.5603,0.8444612291855641,0.044372960789504215
11.564448,0.9127445049461191,0.05105375090841605
11.568592,0.9905113551097289,0.058017383861750746
11.572732,1.088085482576796,0.06501658417294562
11.576872,1.2067076965976697,0.07211629102815166
11.581004,1.3513183988226813,0.07926773422878178
11.585084,1.516789990828228,0.0866545428771716
11.58922,1.7154620590646061,0.09402953557553308
11.5933,1.943535703907431,0.10142781619751401
11.597444,2.2080779354568625,0.10881006585409642
11.60158,2.515037097138179,0.11612445691522975
11.605716,2.864733945975652,0.12335504641646244
11.60986,3.25200663051908,0.12541019273162668
11.613996,3.678428134718618,0.13257626858875446
11.618132,4.150145416448346,0.13964472424241714
11.622268,4.652237963532871,0.14063809013439507
11.626404,5.1818805650961535,0.14119404100906296
11.630548,5.7375002371880415,0.14165343411361467
11.634688,6.314931652457749,0.14183308153020546
11.638824,6.906432033729973,0.1421203908221067
11.642948,7.510527704278959,0.14242056479695125
11.647032,8.125855712278893,0.14265577789457187
11.651116,8.750720931204155,0.14259629779709665
11.655204,9.372871664153315,0.14248179617009554
11.659288,9.993182292650319,0.14221511515348995
11.663376,10.605582330694423,0.14185146730542536
11.667468,11.203180547283205,0.14120564218493528
11.671496,11.769139853915776,0.14054585804436714
11.675468,12.300757182291571,0.13984226635756403
11.67944,12.794542972134941,0.1391200055526395
11.68348,13.24118146232043,0.13844867444046782
11.687576,13.641924879773924,0.13785517097985028
11.69162,14.002721567920696,0.13728870423013045
11.695664,14.32681680188546,0.13669904031935878
11.699712,14.607277131819055,0.13619103985630393
11.703812,14.854647710421755,0.13567124691131427
11.707852,15.06826418829395,0.13515885440420605
11.711952,15.247683665835899,0.13466988663547788
11.716044,15.399763121023424,0.13418742466647063
11.720144,15.526972754681696,0.13369896245366575
11.724248,15.626178016585929,0.13323369933488677
11.728348,15.700192699936641,0.13279510304769
11.732444,15.758775465459015,0.13232778043476848
11.736544,15.805759465804043,0.13184617661080744
11.740644,15.836681451947726,0.13141512974734054
11.744744,15.854133767290696,0.13104064384366942
11.74884,15.866767823558808,0.1307028195780779
11.75294,15.885128773452324,0.13035070920794825
11.757036,15.909670934246522,0.12999153534499078
11.76114,15.937935522791767,0.1296527779067532
11.765244,15.973289956788236,0.12932106697520276
11.769336,16.01494774426086,0.12899749940027175
11.773436,16.061335901259472,0.12868689405918188
11.777532,16.10774689360915,0.12841809086300937
11.781632,16.159331155084566,0.12815006274773574
11.785732,16.215523643510505,0.12787929235834455
11.78982,16.2786838348122,0.12760085838123825
11.793852,16.34780378721471,0.12732239288042127
11.797952,16.42354785011764,0.12702737080569468
11.802044,16.50613747332086,0.12671056909576103
11.80614,16.596137698999573,0.12637501556404349
11.810232,16.68995965965374,0.12603893491310333
11.814328,16.783903762883376,0.1257250024289859
11.818424,16.87998589223837,0.12541911098060998
11.82252,16.980775555768293,0.12509004647501848
11.826616,17.089960928197595,0.12470136554686857
11.830712,17.202280850851675,0.1242942097547797
11.8348,17.30967178953095,0.12392359876795891
11.838896,17.417959945085244,0.12355514632310588
11.843036,17.529504793439774,0.1231837768017921
11.84718,17.650919027419437,0.12277731519510363
11.85132,17.779388853823725,0.12233036234682518
11.855452,17.910882505552856,0.12186918350509396
11.859588,18.052012675431712,0.12136113058912981
11.86372,18.197850379485498,0.12083690706710903
11.867856,18.349071384789358,0.12030087938297225
11.871996,18.504999924268144,0.11975065889038294
11.876136,18.666189622421534,0.11917372250467101
11.880272,18.82736790289939,0.11858951001340637
11.8844,18.987981141202038,0.11801074452672507
11.888524,19.15206110442927,0.11741367091418334
11.892644,19.317813358831046,0.11680299116369425
11.896772,19.48545935420726,0.11617548625165923
11.90092,19.64670268888292,0.11556192890850384
11.905052,19.80602944723309,0.11494815327582628
11.909188,19.959518587057918,0.11435649118954072
11.913312,20.110193933682236,0.11376749501312981
11.917444,20.26163293693057,0.1131499086058309
11.921572,20.408009395953105,0.11253306627502027
11.925656,20.55066342722459,0.11190416201424229
11.929792,20.683990279695088,0.1112889370105011
11.933932,20.810914471465036,0.11068747743055711
11.938064,20.93501345235895,0.11007190233554237
11.942152,21.049563804652003,0.10947153340349507
11.94624,21.154000486168986,0.10887914336854321
11.950328,21.247537004934834,0.10829573923593636
11.954468,21.332078519599495,0.10771311207654069
11.958556,21.403593263063186,0.10714897150696079
11.96264,21.46365421927606,0.10660080319644064
11.966728,21.510909854087835,0.10606325899304657
11.970816,21.54345500884855,0.10554375673968881
11.974908,21.564767826158313,0.10503326163099463
11.978996,21.572943147367173,0.10453849793236789
11.983092,21.574593665300018,0.10403355055646028
11.98718,21.568146396006686,0.10351989089928462
11.991268,21.55304771498751,0.10300783709231094
11.99536,21.53153495559225,0.10248373321426736
11.999456,21.5009278848714,0.10196891482001598
12.003548,21.465036820124887,0.10144921280620325
12.007636,21.421956602702743,0.10093113964843951
12.011732,21.367655465505187,0.10043171659668274
12.015764,21.306386625431877,0.09992872090741825
12.019804,21.235469849533303,0.09944396392948286
12.023848,21.158604730209447,0.0989656903760124
12.027884,21.076467034535458,0.09849531287618986
12.03198,20.992977804711188,0.09801756237422894
12.036024,20.90410527363684,0.09754980170066485
12.04012,20.814446250587423,0.09707857322462932
12.044212,20.72837609503805,0.09659579662573116
12.048244,20.645784082088788,0.09610325611871004
12.052336,20.56925113746474,0.09559730823846439
12.056372,20.495409843465726,0.09508173864113192
12.06046,20.424825242266955,0.09456118263459451
12.064496,20.359967534693595,0.09403455629139011
12.068592,20.297923620320738,0.09351275220665728
12.072632,20.241041557398074,0.09298068101656291
12.076728,20.184957404126028,0.09246232595120868
12.080772,20.136837477829154,0.09192615839984683
12.084868,20.09567383673251,0.09137741620336322
12.088968,20.060458539061138,0.09082011383928536
12.093012,20.038136452339735,0.09022769791482574
12.09706,20.022992100618428,0.08961929872670836
12.101112,20.0164763252719,0.08898205877295001
12.105144,20.016462517850325,0.08832671861295925
12.109196,20.0278796623285,0.08763616601066948
12.113284,20.0390753570068,0.08694938754460294
12.117316,20.057780961385006,0.08624196986368012
12.12142,20.08332070838797,0.08551206569558614
12.125516,20.112216455415574,0.08476591117798052
12.129552,20.14704912819293,0.08400071835772517
12.133648,20.182435425469958,0.08322649449926749
12.137688,20.22723679109684,0.08243155749027299
12.141672,20.279990966023366,0.08161227088888108
12.145716,20.333520215249433,0.08078015758871174
12.1498,20.390294739600208,0.07993570653369668
12.153884,20.447179988850923,0.07909176095496075
12.157972,20.512128772301207,0.0782237203161113
12.162056,20.577188280651427,0.07735839052984894
12.166144,20.639445413476675,0.0765033724914168
12.170232,20.702931937876738,0.07564491456029748
12.174316,20.760813711226863,0.07480221857720952
12.1784,20.818584759677055,0.07396630669857496
12.182488,20.874118474777486,0.07314513072184026
12.186572,20.929984364577717,0.07232152250147733
12.19066,20.98775541302791,0.07150099135718581
12.19474,21.051131212528038,0.0706728587923941
12.198824,21.114839186727977,0.06984361962050437
12.2029,21.179444377802927,0.06901900335138529
12.206976,21.240239251577957,0.06820571676555587
12.211052,21.300358358277848,0.06739458806243684
12.215136,21.361374681852748,0.0665862345567298
12.219212,21.4133081117776,0.06579271144794782
12.223296,21.456834415127535,0.0650154327257069
12.22738,21.500360718477474,0.06424072085951972
12.231468,21.54220331297732,0.06346857563170244
12.235556,21.585386023951923,0.06269042514142545
12.239644,21.618256449701647,0.06193001343542397
12.243732,21.646530066176382,0.06117609905110135
12.247816,21.669531106300987,0.06042327969444984
12.2519,21.689619046000686,0.05967791712087979
12.255988,21.70948553590051,0.05893642933423665
12.260072,21.721842116100433,0.05820486414053364
12.264164,21.72668878660046,0.05748148634708913
12.26824,21.721456039351022,0.056780704420734636
12.272324,21.694823647352298,0.05611644376180136
12.276404,21.64891821905412,0.05548001676819455
12.280488,21.583296854856748,0.054878248356885796
12.284568,21.500086163210003,0.05430468617123584
12.288648,21.403993678288835,0.0537519414239004
12.292728,21.2862800988185,0.05323447846883205
12.296808,21.148064091473906,0.05274736134160184
12.300884,20.99304524865501,0.05228633210776796
12.304964,20.82413667078674,0.05184634525568595
12.309048,20.637528040569165,0.051432628400195586
12.313136,20.432322141127276,0.051044712926960153
12.31722,20.19977967118636,0.050696644933995776
12.321308,19.949537148896145,0.050373539176043126
12.325352,19.67890292363159,0.05007593573851457
12.32944,19.3904579211178,0.04980539541132311
12.333528,19.07400058102984,0.04957150136097431
12.337616,18.73277617849242,0.049362079940017206
12.341704,18.372057289855668,0.0491788984682529
12.345796,17.99464629064457,0.04901977354767035
12.349892,17.600088863583842,0.048875992968963174
12.353988,17.1967921352484,0.04874169568348606
12.358084,16.789574364713104,0.048606877791211076
12.362176,16.380229985727983,0.04847230973020308
12.366264,15.961138363693196,0.048349317621516306
12.37036,15.5312915568338,0.04824174580720397
12.374392,15.096515765999607,0.048139348674530125
12.37844,14.659613366715584,0.04803814351457509
12.382532,14.215655375006936,0.04795451462349473
12.386564,13.7676656161985,0.04787453807679519
12.390608,13.311833772990362,0.04780707548564122
12.3947,12.847262628507503,0.047752608769649325
12.398796,12.386280351524697,0.04769409235437461
12.402892,11.922384974116984,0.047636224891339465
12.406992,11.459276088684348,0.047572821698342316
12.411084,10.99605647835178,0.047506252455281006
12.41518,10.536647185319131,0.04742725484074659
12.41928,10.08071603488659,0.04734281638794188
12.423372,9.625460651529194,0.047264299162840064
12.427468,9.169983818371923,0.04719277374811978
12.431504,8.718550169989975,0.04714205420236378
12.435592,8.27171333088302,0.04707183251617745
12.439676,7.823425650401382,0.04702153224954991
12.443768,7.372900636569979,0.04699067752285628
12.44786,6.925410865738949,0.047020079551884544
12.451896,6.485885321883092,0.0470717163633494
12.455988,6.054324005002406,0.04713636529021486
12.460076,5.627813814671985,0.04724400066022937
12.464112,5.213299618416523,0.04733654939663337
12.468196,4.804733765586338,0.04749361606610246
12.472228,4.41153132453129,0.047639812680105656
12.476256,4.033360120551572,0.0479160400636541
12.480336,3.6646154025972466,0.04555587910351522
12.484368,3.311909863493198,0.04320075631894334
12.488396,2.971322461039576,0.04085709227212327
12.492424,2.649576612961201,0.0385202631511993
12.496452,2.3514905783329394,0.03619139321128497
12.500536,2.0719139233801203,0.033871613424012695
12.504668,1.81420264812739,0.03154707803313659
12.508752,1.578024577874944,0.029216859203602185
12.512888,1.362028178472497,0.02687017628607186
12.51692,1.1636439418704823,0.02454460364471082
12.520956,0.9869036351686858,0.022210888661008853
12.525044,0.8300128246170844,0.019866910403330253
12.52908,0.6952088435654412,0.017465344082005466
12.533176,0.5738631156389754,0.015040754076579168
