Time,Force,Position
15.290432,0.9290165731605173,0.07341753513562622
15.294528,0.9379887419106354,0.07785091711483776
15.298627999999995,0.9440478102358487,0.08233478795006757
15.302767999999997,0.9404703604113341,0.08291455789462092
15.306856,0.9359956937118079,0.08352619916673225
15.310944,0.9270349426372226,0.07932847539965493
15.31504,0.9203229425879332,0.07519292125663343
15.319124,0.913500217638709,0.07105736711361191
15.323216,0.9044401593397215,0.06697061640900309
15.327308,0.8957236934160718,0.06286438970021058
15.331404,0.8875722696676291,0.05882620856607027
15.335496,0.8870528981945532,0.06024495296161896
15.339588,0.8896909122973179,0.06187891730077582
15.34368,0.8896601111261131,0.06418902221220739
15.347776,0.8938060549812283,0.06679125327571032
15.351875999999995,0.9098715210379656,0.06944092085640033
15.355971999999998,0.9373028847966506,0.07217505988351242
15.360063999999998,0.9877639656324368,0.07446530971093594
15.364164,1.0609340065210529,0.07658771633530699
15.36826,1.1483065736631852,0.07910640286901
15.372352,1.2640156872591537,0.08147463591783513
15.376451999999995,1.4112073152092657,0.08359507880020868
15.380543999999997,1.5841773992391788,0.085810663620354
15.384639999999996,1.7917873831990765,0.08768485516762327
15.38874,2.027768166639409,0.08971909153753521
15.392832,2.304226468535069,0.09652180719454084
15.396928,2.610850003661187,0.10337917857948492
15.401024,2.952689898568029,0.11025258865351287
15.405119999999997,3.3343429625305903,0.11711629186185125
15.409215999999995,3.75861157107384,0.1239367668855962
15.413311999999998,4.214175497197963,0.1308061649532378
15.417407999999998,4.705620132502419,0.13192326539633453
15.421504,5.224084033137026,0.13302813435682848
15.425539999999998,5.777409283501487,0.13369897398120886
15.429631999999998,6.360090439770263,0.13422426019091624
15.433719999999996,6.968294349292373,0.1345615649989771
15.437811999999996,7.595053309192059,0.13482504113715243
15.441899999999997,8.225889706893666,0.13533071585818102
15.445984,8.858089056421088,0.1358233349850685
15.450072,9.491063480248053,0.13612970786520173
15.454107999999998,10.114477857798628,0.13642770320843395
15.458199999999998,10.725174803496971,0.13669966658004326
15.462172,11.326044582416921,0.1367871273191575
15.466168,11.909676592082981,0.13678190874573923
15.470143999999998,12.476845906794697,0.13664311893911196
15.474072,13.010173231227038,0.13658272306450334
15.47806,13.520635200004484,0.13644377429263088
15.482156,13.999702543976653,0.13628666072458354
15.48614,14.446245178793136,0.13611797308301762
15.490128,14.854204036128715,0.13597905065097163
15.494163999999998,15.231531925283033,0.1357691097248341
15.498244,15.563209026856287,0.1356149585631446
15.502336,15.860101250573024,0.1354109936885841
15.506428,16.11850900403326,0.1351954598148663
15.510516,16.337202895662177,0.13498343023689982
15.514551999999998,16.516870110210455,0.1347961003652219
15.518539999999998,16.663913308378643,0.13461384253612768
15.52256,16.78629671714191,0.13439215217556547
15.526587999999997,16.886158362625615,0.13413240904015183
15.530628,16.965979863330464,0.13384833162033802
15.534716,17.025772636931983,0.13355823182189094
15.538747999999998,17.068239751730744,0.13326813322635991
15.542776,17.09317117560241,0.13300341708783264
15.546855999999998,17.09990255914737,0.13277952214920896
15.550936,17.093595753815826,0.13257469021248014
15.554968,17.084452319932716,0.13232874326346353
15.55906,17.06563811487328,0.13208858322103711
15.563059999999997,17.043101482062795,0.13183099926640351
15.567092,17.01416218855176,0.13158851452402856
15.571179999999998,16.979274551615447,0.13136812411536264
15.575211999999995,16.945727031153883,0.13113126664955402
15.5793,16.922823970617,0.13082509827211666
15.583384,16.901050994430527,0.13052724438899907
15.587424,16.882091811444553,0.13023210284565373
15.591455999999996,16.869535289159135,0.1299223530239132
15.595495999999995,16.862484210699257,0.12960209835116002
15.59958,16.861270750764717,0.12926357374876707
15.603672,16.86052302578099,0.12895156643317904
15.607764,16.86483784502305,0.12864221919676835
15.611847999999998,16.870404891190997,0.12835830370023726
15.615939999999998,16.883947582009647,0.12805857100564338
15.620019999999997,16.900869108204013,0.1277671347289824
15.624108,16.920272252899075,0.12748802132980958
15.6282,16.950785592469614,0.12716872028032955
15.632288,16.985120667015607,0.12684671644506848
15.636375999999998,17.019356434337197,0.12654774841768962
15.640459999999996,17.055176603284472,0.126265779666942
15.644547999999997,17.09291334855724,0.1259926522028867
15.648639999999997,17.13581194528021,0.1257016137058668
15.652724,17.184769610328388,0.12538751858197258
15.65682,17.230149825552054,0.12511093167515266
15.660908,17.26623711500133,0.12490383657879076
15.665,17.30714266352547,0.12466888140504694
15.669083999999998,17.34434861964963,0.12445303653521791
15.673171999999996,17.376625591798987,0.12426945902458188
15.677256,17.40710813019833,0.12409422539678833
15.68134,17.429970033997833,0.12396300421705805
15.685419999999995,17.449575244997092,0.12383887934999223
15.689495999999998,17.46603448809604,0.1237200205000259
15.693572,17.480134255269764,0.12360453490615658
15.697655999999998,17.4879535043184,0.12351745375028166
15.701728,17.493524002341744,0.12343101982329681
15.705816,17.496845749339787,0.12334506534349773
15.709899999999998,17.494219152912557,0.12327858174999136
15.713984,17.484525546385164,0.12324088662248237
15.718055999999995,17.47650423103233,0.12317920548877324
15.722143999999997,17.467242106429147,0.12311112201856332
15.726228,17.455509781000796,0.1230490860227818
15.730315999999998,17.437386212547427,0.12301718950967129
15.734403999999998,17.41780038504384,0.12298433070169623
15.738491999999995,17.395179314539877,0.12295281173110141
15.742576,17.378716619585532,0.12287804652846254
15.746664,17.35754639045626,0.12282809654519361
15.750752,17.341870187476992,0.12275202270280608
15.754839999999998,17.328431317847482,0.12265682313310979
15.75892,17.31499244821798,0.12256152193138634
15.763004,17.30648256256327,0.12243543923708433
15.76708,17.305482586608463,0.12227000112815939
15.771164,17.30415043595385,0.12211311606075338
15.775243999999995,17.303826227074186,0.121949358873627
15.779324,17.307312335494434,0.12176466300134137
15.783407999999998,17.31237142786484,0.12157808251410417
15.787488,17.321130112635228,0.12137356618393516
15.791572,17.33078601428063,0.12116533997793476
15.795655999999996,17.346046666975973,0.12092825709954268
15.799736,17.35626761079658,0.12072451211670374
15.803819999999998,17.369069480342286,0.12051258083952748
15.807907999999998,17.381982074787928,0.12029778959526459
15.811992,17.399712928308432,0.12005577482912007
15.816087999999995,17.411839030778996,0.11984168546242113
15.820172,17.427664725649542,0.11960972108596074
15.82426,17.44057732009519,0.11939513702110094
15.828287999999995,17.452481972765884,0.11918689173908324
15.832376,17.459789816161585,0.11900046987091865
15.836468,17.46698693465735,0.11881703639131541
15.840563999999995,17.47810509535297,0.11861070114467434
15.844655999999995,17.486199430723747,0.11842395345510189
15.848707999999998,17.490594173694546,0.11825538286726721
15.852743999999998,17.49218654114037,0.11810042599723367
15.856831999999995,17.497589225886113,0.11792549220546943
15.860868,17.500189535106887,0.1177645271348685
15.864956,17.50110613547757,0.11760810517722653
15.869039999999998,17.500117577198292,0.1174619497252879
15.873131999999998,17.497899627344207,0.11732774624931255
15.877223999999998,17.497365386340203,0.11718944804687532
15.88132,17.503333113261153,0.11702071030131417
15.885412,17.50470403090711,0.1168725870412928
15.889504,17.5084344244783,0.11672226272217254
15.8936,17.511046151374607,0.11658138017115598
15.897692,17.52385943859584,0.1163936935642254
15.901784,17.533316725792435,0.11623314103963013
15.90588,17.54726009736409,0.11605557182826881
15.909975999999997,17.56658677018582,0.11585748539040629
15.914067999999997,17.592415410932496,0.11563034378023758
15.918163999999996,17.619817035629325,0.11540233539088375
15.922251999999997,17.644870602076463,0.11519580563198034
15.926347999999996,17.674631702698523,0.11496708445633969
15.930439999999995,17.707649496120833,0.11473393322115918
15.934535999999998,17.74616131569314,0.11447789516275059
15.938627999999998,17.785127452540724,0.11423118900201316
15.942719999999998,17.826453065313537,0.11398296557343399
15.946815999999998,17.872154037561476,0.11372175524635174
15.950912,17.91964944355944,0.11345484185690623
15.955008,17.97297105040721,0.1131587797207556
15.959104,18.025506165279907,0.11286521479237116
15.963199999999995,18.07412023795275,0.11259411081114279
15.967299999999998,18.131362887000382,0.11228207456990952
15.971396,18.189159160547682,0.1119584984317292
15.975492,18.247741926070052,0.1116356826225832
15.979584,18.30083066544242,0.11133695673364791
15.983683999999997,18.361085722139357,0.11099647021135242
15.987775999999997,18.41494953581127,0.11068133361781832
15.991875999999998,18.46163561448309,0.11039156142101667
15.995967999999998,18.502938391904838,0.11012192211668485
16.000068,18.545692010701273,0.10983769814885805
16.00416,18.586196878472414,0.10955234644527265
16.008256,18.624120820518453,0.10927467536804561
16.012352,18.65789085288923,0.10900531589266249
16.016447999999997,18.693222451534638,0.10871939522658106
16.020543999999997,18.723502923629777,0.1084443607415975
16.024639999999998,18.75366125314945,0.10815524443977041
16.02874,18.779665672993865,0.10787413236859342
16.032832,18.80678875951316,0.10758628646187748
16.036928,18.82740987810751,0.10732480407828464
16.041023999999997,18.846347287851767,0.10706724432569695
16.045119999999997,18.86673553897071,0.10679455942015587
16.04922,18.88040037236483,0.1065531102588072
16.053312,18.893954480859012,0.10631507793851974
16.057408,18.906046330302978,0.10607558761178248
16.061504,18.920154063296838,0.10582608034656957
16.065596,18.92764910346581,0.10560416024208788
16.069695999999997,18.94197828625954,0.10535087164651045
16.073791999999997,18.964371003252843,0.10505620199319718
16.077892,18.985977228271068,0.10476166551164817
16.081988,19.003208093814173,0.10447891799371788
16.08608,19.026486610006963,0.10416603843608259
16.090131999999997,19.051105242674495,0.10384133599693467
16.094164,19.076056050041835,0.10350937966149151
16.098195999999998,19.09137033925944,0.10321887932463672
16.102283999999997,19.107016803176855,0.10292070837502379
16.106379999999998,19.1198608915693,0.10263321616882519
16.110467999999997,19.13382364663663,0.10233840829726973
16.114516,19.142513825353817,0.10205708895662848
16.118608,19.153662787220643,0.10175580898829964
16.122604,19.162009373562494,0.1014645597349502
16.126683999999997,19.16766430927931,0.10118119388143287
16.130668,19.17275420282092,0.10089276181882026
16.134691999999998,19.173358011987467,0.10061717238534099
16.138768,19.169586461678904,0.10035137533307259
16.142795999999997,19.161218102095336,0.10010072002614732
16.146772,19.15396840918665,0.09984230422749252
16.150807999999998,19.140327473252945,0.09960410377284286
16.154856,19.120749611569497,0.0993932475763484
16.158939999999998,19.10027453301104,0.09918437336516606
16.163024,19.077562121102815,0.09898977168212056
16.167108,19.04409452436999,0.09884175528764727
16.171191999999998,19.006595160537366,0.0987130042819558
16.175275999999997,18.968763622004943,0.09859118434518474
16.179364,18.939671384747232,0.0984320577657107
16.183456,18.912041406539743,0.09827507510244904
16.18754,18.88519792030733,0.09811772029862997
16.19158,18.8571250425001,0.09796986703545889
16.195667999999998,18.829727931768016,0.09782409051269568
16.199724,18.801777196536253,0.09769030503239387
16.203756,18.776739561729396,0.09754402709899013
16.2078,18.75316418597276,0.09740009355209686
16.211883999999998,18.732169735941227,0.09725122060389287
16.215971999999997,18.71487487830967,0.09709012803086142
16.220056,18.70274187212832,0.09691946110395197
16.22414,18.693300516572002,0.09674147452205321
16.228223999999997,18.68565359476571,0.09655878794964076
16.232259999999997,18.679579656909567,0.09637606870696414
16.236344,18.67328426925356,0.09619799818945496
16.240419999999997,18.672704357547428,0.09599865397234492
16.2445,18.6779506466911,0.09577550910815594
16.248583999999997,18.695525104609544,0.09550777166343628
16.25266,18.71780709670291,0.0952238974222056
16.256743999999998,18.74221569724611,0.09492858873217885
16.260828,18.76471913913935,0.09464164316961915
16.264903999999998,18.792373014807254,0.09433040115259694
16.268987999999997,18.822939990900068,0.09400850089054129
16.273068,18.856530792317717,0.09367356335367874
16.277155999999998,18.891129535510316,0.09333398073301864
16.281191999999997,18.92415529475276,0.09299411548515749
16.28522,18.957967545970284,0.09265540709803564
16.289299999999997,18.99423858033744,0.09229902214365521
16.29338,19.028825905854504,0.09194520078511441
16.297463999999998,19.06150807272161,0.09159872919004029
16.301544,19.096538297838418,0.09123762901870486
16.305619999999998,19.13178997275509,0.09087249647191199
16.3097,19.163452780171713,0.09051597094585573
16.313779999999998,19.193431878738252,0.09016088634040735
16.317867999999997,19.22856141107946,0.08978208201878371
16.321952,19.26077784299576,0.08941568914772258
16.32604,19.292097058037054,0.08905276430380371
16.330067999999997,19.31511987140337,0.08871376463472024
16.334152,19.33556175904458,0.0883790446969436
16.338192,19.356114371585733,0.08804297471087322
16.342288,19.374086058401776,0.08771076360926466
16.34638,19.385445052392935,0.08740003067231128
16.350475999999997,19.39612827930896,0.0870874277675267
16.354575999999998,19.406246464049765,0.08677062066295836
16.358667999999998,19.419499199015352,0.08643959762132936
16.362751999999997,19.43577575930578,0.08609652731581234
16.366847999999997,19.449803568570907,0.08574986172361411
16.370935999999997,19.460021060536118,0.0854155004023803
16.37502,19.469562785426188,0.08507818686648996
16.379103999999998,19.480555351690946,0.08472780880582338
16.383184,19.485832442005826,0.08439521076828199
16.387231999999997,19.49222819899559,0.08405684332949798
16.391316,19.50355293996015,0.08370107808242631
16.395408,19.51991738979945,0.08332575353909788
16.399496,19.533700913913645,0.08295438376670927
16.403579999999998,19.54781661272764,0.08257668112969527
16.407667999999997,19.5592406609166,0.08220415585658145
16.411752,19.57357780953047,0.08182218755723655
16.415847999999997,19.587128466169258,0.08143952795309001
16.419943999999997,19.596082313533056,0.08106703115547828
16.424035999999997,19.607617086621957,0.08069244825706476
16.428123999999997,19.616238759285952,0.08032626429246358
16.432163999999997,19.62194733152504,0.07996959211562726
16.436255999999997,19.62171897801438,0.07963325646673955
16.44034,19.618798973878686,0.07930191738288739
16.444423999999998,19.614649578168173,0.07897928581692598
16.448515999999998,19.614199774857646,0.07864878666820978
16.452607999999998,19.61397142134699,0.07831341913602241
16.456699999999998,19.616545443361304,0.07797164767004114
16.460791999999998,19.617779348900864,0.07764057358345335
16.464827999999997,19.621029137990323,0.077301818282661
16.468904,19.61946066800491,0.07697670448831177
16.472996,19.61587631446961,0.07665944945368632
16.477088,19.612402685834244,0.0763407982524012
16.48118,19.60680244874905,0.07603150227813447
16.485267999999998,19.60198870363893,0.07572347444346425
16.489303999999997,19.598293625203695,0.07540944200250257
16.493332,19.596614430318347,0.07508891823306998
16.497411999999997,19.59874555273292,0.07475922015882976
16.501492,19.606592151097374,0.0744154779869223
16.505575999999998,19.611857823736724,0.07407342069646848
16.509624,19.62306042212582,0.07371271024214701
16.513703999999997,19.63717612093982,0.07334432530655022
16.517743999999997,19.659244629053454,0.07295121673874064
16.521828,19.68131313716709,0.07255856975511618
16.525911999999998,19.703935269780406,0.07215561849151787
16.529995999999997,19.722636360193867,0.07176462181066988
16.534072,19.74313188435735,0.07137180952514595
16.538151999999997,19.76082503299586,0.07098504627273076
16.542227999999998,19.77996902300906,0.0705866949646019
16.546315999999997,19.799223737922194,0.07018649853197403
16.5504,19.82452610348501,0.06976725784012262
16.554488,19.84926342687262,0.06934321582887885
16.558567999999998,19.872882083585345,0.06892618581969369
16.562644,19.89941384072298,0.06850242505989519
16.566679999999998,19.922467455260495,0.06808082642765122
16.570771999999998,19.95033932887288,0.06764961617766549
16.574859999999997,19.974511610085283,0.06722529731696306
16.578944,19.997897399322603,0.06680135908293225
16.583032,20.019267305010036,0.06638476902805499
16.587115999999998,20.04355031112237,0.06596192353870575
16.591192,20.0678333172347,0.06554046403239638
16.595236,20.087519514072046,0.06512550522526539
16.599328,20.102276726934587,0.064724187120252
16.603416,20.119049823347023,0.06431779010301066
16.607504,20.134593528184645,0.0639191316508767
16.611531999999997,20.152374566372025,0.06351078004436474
16.615616,20.170942096534485,0.063104715567815
16.619699999999998,20.192422727121855,0.0626928352858337
16.623783999999997,20.212784691034337,0.06228660056927289
16.627872,20.23617048027166,0.06187311043452243
16.631956,20.25642171928421,0.061471140435350874
16.635996,20.27802449244704,0.06107709353706476
16.640027999999997,20.29783283185985,0.060685070080479075
16.644067999999997,20.316854679297585,0.06029252310894067
16.648159999999997,20.340584060910242,0.05989353719287811
16.652247999999997,20.35669280792307,0.05950829968946594
16.656339999999997,20.37380949671084,0.05912062367707368
16.660431999999997,20.386894418398832,0.05874372900398729
16.664472,20.400422239686556,0.0583591986578991
16.668504,20.411147685449308,0.057978698139836624
16.672587999999998,20.42108663923699,0.057597429536755
16.676675999999997,20.435954576999467,0.05720573617483601
16.68076,20.453957064986717,0.05680503301241117
16.684835999999997,20.469943669424076,0.05641007855489149
16.688916,20.488056882311263,0.05600887218768772
16.692995999999997,20.5022490529986,0.05561539998179005
16.69708,20.515089689535657,0.05521516367825531
16.701159999999998,20.527143834097632,0.05481412689555132
16.705243999999997,20.53930870355954,0.05441133258889
16.709324,20.545647372171643,0.0540188700485886
16.713403999999997,20.551420998608535,0.0536205894570837
16.71748,20.553937932245184,0.053217419505095995
16.721567999999998,20.5517473317069,0.05281879128991324
16.725544,20.543730530318808,0.05242908061924035
16.729623999999998,20.52607721078099,0.05205315506174025
16.733708,20.50831316634324,0.05167800554710636
16.737792,20.48461219615574,0.05131308635324344
16.741871999999997,20.45721163356826,0.050949365663514566
16.7459,20.42096104480613,0.05060014844787443
16.749988,20.375073937894275,0.05026272653681771
16.754071999999997,20.319328863032823,0.04994164494409248
16.758167999999998,20.24980477802191,0.0496433799519795
16.762251999999997,20.16739889973657,0.04936776242896311
16.76628,20.07524577840157,0.049105905869047894
16.770372,19.96953509671698,0.04886221481796044
16.774459999999998,19.857887489282653,0.04862718383122425
16.778551999999998,19.73414458054896,0.048416192787696814
16.782643999999998,19.595725444790812,0.048227380231853
16.786739999999998,19.44464596555809,0.0480562057244768
16.790831999999998,19.283819243275712,0.04789817672102137
16.794928,19.109889277919027,0.04776678629052441
16.79902,18.922291027312824,0.047655225012408355
16.803051999999997,18.72505625855689,0.04755476025545492
16.807143999999997,18.519414363226048,0.0474583468496088
16.811231999999997,18.309064933720283,0.0473637027966875
16.81532,18.089078986064784,0.047280243330241035
16.81936,17.86057518693444,0.04720366110703622
16.8234,17.623442811429317,0.04713602224254031
16.827496,17.376563192874528,0.04708339472110685
16.831584,17.129683574319742,0.047028011927636594
