Time,Force,Position
15.443604,0.6392749120581356,0.009339063601016603
15.447696,0.6325286589822477,0.00469529113280297
15.451783999999998,0.6267903476813065,0.0
15.455875999999998,0.6295698878552111,0.0
15.459963999999998,0.6351518035540861,0.0
15.464055999999998,0.6379313437279905,0.0
15.468144,0.6390271750518064,0.0
15.472236,0.6446090907506814,0.0
15.476324,0.6501910064495563,0.0
15.480412,0.6506224883737629,0.0
15.484495999999998,0.6547535626979519,0.0
15.488583999999998,0.6612441129473715,0.0
15.492668,0.669529096946815,0.0
15.49676,0.6810707737465008,0.0
15.500852,0.6904858420963585,0.0
15.504944,0.6968770851213761,0.0
15.509032,0.7020389365715775,0.0
15.513128,0.7063035711467668,0.0
15.517216,0.7106789306218909,0.0
15.521312,0.7151650149969501,0.0
15.525404,0.7203268664471512,0.0
15.529496,0.7166386917227019,0.0
15.533588,0.7106024587485547,0.0
15.53768,0.7041233261746678,0.0
15.541772,0.6954182779265509,0.0
15.545868,0.6966054506546295,0.0
15.549967999999998,0.7091585210846558,0.006611256979185448
15.554059999999998,0.7337532562917719,0.013335272937227312
15.558156,0.7747878511021676,0.02040205458967048
15.562252,0.8425860084162453,0.027480157630394957
15.566352,0.9330166539098163,0.03461481336963994
15.570444,1.05034442215807,0.041815112138354385
15.574539999999995,1.199177540111533,0.048965326414864806
15.578635999999998,1.3768243571451704,0.05611212219740077
15.582731999999998,1.5828419736592423,0.06335143438721566
15.586828,1.8265347331036714,0.07051836358078084
15.590924,2.1075704607786534,0.0776402390501854
15.595024,2.4268577912347324,0.08473400242611515
15.599116,2.7890049514224353,0.09178010667128676
15.603152,3.1908773911169885,0.09883035544634376
15.60724,3.6354989356432306,0.10586115105876906
15.611328,4.131165986676138,0.11285669700065432
15.61542,4.675408343390545,0.11980638714387441
15.619512,5.257459403286312,0.12675963991407072
15.623556,5.88526055798754,0.1336534913805581
15.627648,6.543093385668228,0.14052571666427935
15.631731999999998,7.224310940476888,0.14076204675643825
15.635812,7.921724069737893,0.14088145229988716
15.639848,8.632706177024014,0.14060946674879812
15.643935999999998,9.341871015209042,0.14030462918089112
15.647968,10.042350188641626,0.13992072134572348
15.652052,10.732559295696078,0.13943915007277644
15.656135999999998,11.402273940696396,0.1389804612449817
15.660208,12.050707631667505,0.1385076856109582
15.664295999999998,12.68424019395889,0.13789769401152216
15.668379999999996,13.288294707770493,0.13735108796872586
15.67238,13.862749030526846,0.13682932742563797
15.676467999999998,14.402540618002146,0.1363186373706716
15.680555999999996,14.898907333570616,0.13584856998990907
15.684584,15.35374291820668,0.13535744330504343
15.688611999999996,15.767379546610144,0.13484916839793856
15.692696,16.133536700655924,0.13435909525466805
15.696775999999998,16.45120643856907,0.13389492277291212
15.700852,16.727234320649877,0.1334086290831825
15.704935999999998,16.953335362898905,0.13298125000267466
15.709027999999998,17.13904677624147,0.1325581070246361
15.713112,17.28640727957853,0.1321590225097551
15.717207999999998,17.404167591860343,0.13174104771231263
15.721296,17.48921599821319,0.13136968067175697
15.725384,17.550536085062735,0.1310136181558333
15.729476,17.591395962884743,0.13068089310349298
15.73356,17.615949541354475,0.13035841590314934
15.737643999999998,17.62656771407269,0.1300583770307238
15.741728,17.626950073439374,0.129759800343225
15.745816,17.61082751900497,0.1295110772034883
15.749904,17.589077378169563,0.1292568637860317
15.753991999999998,17.55722498423362,0.12903671817428072
15.758083999999998,17.52323456417232,0.12881489357880216
15.762175999999998,17.48756043526093,0.12859812994810624
15.766272,17.454135057374835,0.12837958046878892
15.770364,17.42139686423942,0.12818064704670917
15.77446,17.39225895627958,0.12798308372293823
15.778556,17.36369750817048,0.12780793001586388
15.782648,17.33705263638687,0.1276397757254704
15.786744,17.3159132084288,0.12746223772109497
15.790839999999998,17.296247457196486,0.1273032986252965
15.794935999999998,17.28287364176478,0.12713388559742378
15.799032,17.27310011150866,0.1269667397470167
15.803119999999998,17.26894274997801,0.1267878327820041
15.807216,17.27051228207277,0.1265946032078976
15.811308,17.28172974999279,0.12636270114488268
15.815404,17.29587173601325,0.1261324323026589
15.8195,17.31495412368404,0.12588972231319012
15.823592,17.337182479255137,0.12564317818076476
15.827688,17.367596511601278,0.12535865072757066
15.831776,17.399804977697443,0.12506731375139032
15.835875999999995,17.437728919743478,0.1247436773348235
15.839964,17.477336570639604,0.12441674010896137
15.844063999999998,17.5223275227858,0.1240671884424498
15.848159999999998,17.563508157632086,0.12373907743923594
15.852256,17.602107866753265,0.12342067818259993
15.856348,17.64070757587444,0.12310342335602187
15.860435999999998,17.6850227609455,0.12275575053019383
15.864532,17.733148263316476,0.12238923666912817
15.868624,17.7826138821622,0.12200945377718153
15.872716,17.83330889258274,0.12161774362717605
15.876803999999998,17.88377103552788,0.12121489606611581
15.880891999999998,17.930755035872906,0.12082560614370719
15.884983999999998,17.977395443842592,0.12042798712460816
15.889072,18.018541825662275,0.12005586926368318
15.89316,18.051170356007113,0.11972926290773579
15.897252,18.077296918427,0.11943397270050124
15.90134,18.098150904496748,0.11915825222645933
15.905432,18.1144080812915,0.11890399245164476
15.909524,18.123155348386355,0.11868765901187188
15.91362,18.128768065256434,0.11849342323475108
15.917712,18.132475623476555,0.11830948748940166
15.9218,18.13237286439676,0.11814565314299849
15.925888,18.132048655517096,0.11798780888159639
15.929975999999998,18.135091864337607,0.11782105228841436
15.934067999999998,18.13668423178343,0.11767122150504837
15.938155999999998,18.139173816104268,0.11751817804607166
15.942244,18.138639575100267,0.11738425797494645
15.946328,18.132954900321597,0.11728418565505533
15.950416,18.124246400218087,0.11720261395870439
15.954503999999998,18.116435116989585,0.11711754625749411
15.958595999999998,18.106386500411325,0.11705002303064789
15.962683999999998,18.097124375808143,0.11698165742288599
15.966772,18.085403468055326,0.11693612774972825
15.970864,18.07749287760242,0.1168714750198604
15.974956,18.072606112474357,0.11678842118401342
15.979048,18.07354554819611,0.11667404181146215
15.983132,18.07908179319285,0.11653991859081259
15.987228,18.0875311386145,0.11639023206235903
15.991324,18.100577293311144,0.1162208665845081
15.995412,18.11474211468267,0.1160427458367917
15.999504,18.130025602729074,0.11585625172457586
16.003596,18.147324974325375,0.11565785526777615
16.007692000000002,18.158233102896656,0.11548579503696105
16.011788,18.170592072842624,0.1152975377463196
16.015884,18.184512609063216,0.11508966097448173
16.019984,18.196417261733906,0.11489425241920573
16.02408,18.2057409886795,0.11470620848324019
16.028172,18.21449967344989,0.11451323675720586
16.032272,18.22225041644533,0.11432606961869139
16.036368,18.227985275890877,0.11415104819218864
16.04046,18.236301061061525,0.11396892312771773
16.04456,18.244506121332243,0.11378958173838492
16.048656,18.25360839847797,0.11360686836002507
16.052748,18.26551305114866,0.11341239457517392
16.056844,18.278204195794434,0.11321762438794068
16.060944,18.289887398665257,0.11302937531002485
16.06504,18.29865750111118,0.11285640217210284
16.069132,18.30530099510727,0.11269792463603011
16.073232,18.30835562160331,0.1125524366768458
16.077328,18.314323348524262,0.11239242680262651
16.081424000000002,18.319172408770328,0.11224109032019605
16.08552,18.321894860566573,0.11210406432776455
16.089616,18.329103396737874,0.1119509796664782
16.093708,18.33597975820937,0.11180628272200407
16.097804,18.348128696031,0.11164592594476928
16.1019,18.360388358752566,0.11148309218576714
16.106,18.378363497424008,0.11129427199236337
16.110092,18.401046170270376,0.11108522058860024
16.114188000000002,18.432246694591594,0.1108392766451517
16.118288,18.468265477987675,0.11057125989242428
16.12238,18.505402928058636,0.11029639788368498
16.126476,18.54466698657943,0.11000865761419107
16.130572,18.586389828249853,0.10970049675884186
16.134668,18.62351586064528,0.10941107207765641
16.138764000000002,18.66086334284058,0.10911747305722794
16.14286,18.69641639128585,0.10883030365640206
16.14696,18.73723059840573,0.108512014746081
16.151052,18.780392863775305,0.10817570338107028
16.155148,18.82725472154486,0.10782578927038193
16.159244,18.869519770039425,0.1074938390781737
16.16334,18.91200626833386,0.10715742962239917
16.167436000000002,18.95493566622803,0.10681088646160886
16.171532,19.001221064146854,0.10644257280148327
16.175628,19.043241827490483,0.10608381933790015
16.179724,19.07819558073395,0.10574625188705662
16.18382,19.111576350027264,0.10540937422875751
16.187920000000002,19.137557934520615,0.10510054534417121
16.192012000000002,19.160958593288864,0.10479865619191076
16.196112,19.174268416632117,0.10453303548030103
16.200204,19.179392563200324,0.10429471739418583
16.2043,19.181260016968288,0.10406025643806088
16.2084,19.180546545011154,0.10383169807189137
16.212492,19.17591203085417,0.10362147697975745
16.216592000000002,19.172285458472132,0.10340605788982662
16.220688,19.167761669215082,0.10319347331794591
16.224784,19.16323787995803,0.102980752940233
16.228876,19.153674381826242,0.10279391430198842
16.232972,19.146237492144287,0.10259475819359953
16.237068,19.135322459862216,0.1024035130776535
16.241168000000002,19.124518152480082,0.1022094776899608
16.245264000000002,19.113713845097948,0.10201541556532026
16.249352000000002,19.103917479490764,0.10181622694427614
16.253448000000002,19.087508421058693,0.10164226305886516
16.257548,19.073680288351717,0.10146286416916675
16.261644,19.064448964919738,0.10126823546474599
16.26574,19.05611485836277,0.10107084369758032
16.269836,19.051591069105715,0.10085815092350937
16.273932000000002,19.04807522162361,0.10064068634210604
16.278028,19.048480416341352,0.10040558523225729
16.282124,19.056727695458807,0.10013589854231734
16.286216,19.060156715501392,0.09988532830573034
16.290312,19.062799243568904,0.09963465094728417
16.294396,19.06667116321123,0.0993739622155523
16.298496,19.07087525755336,0.09910616685166408
16.302592,19.0733956430454,0.09884076086898529
16.306688,19.077477594812066,0.0985583479505634
16.310784,19.079986562628584,0.09827552602864537
16.314872,19.075661387820336,0.0980219132908527
16.318956,19.075478705011808,0.09774665934307104
16.323048,19.078430572428058,0.09745460694011576
16.32714,19.0808173976691,0.09715770730689001
16.331228,19.083536397609944,0.09685379429661195
16.33532,19.088492730900555,0.09653517770638208
16.339404000000002,19.096129297140664,0.09619319849111978
16.343492,19.09950122880559,0.0958580319704488
16.34758,19.104213276945266,0.09551105392616056
16.35166,19.10903604998487,0.09516199035009122
16.355752,19.11026995552443,0.0948219161707182
16.359840000000002,19.11071736908892,0.09448180248420122
16.363936,19.106235798678608,0.09416282846845876
16.368032,19.112620137992838,0.0937982383039012
16.372128,19.120012419082013,0.09342897073387703
16.376212,19.126839657995983,0.09305460618119472
16.380304,19.12996730450997,0.09269094581852914
16.384396,19.133648575523633,0.09231496150861655
16.388484000000002,19.134306021212456,0.09195245510454858
16.392572,19.137200800251037,0.0915757703569402
16.396648,19.144459521089214,0.09117350433572143
16.400736000000002,19.14701070775246,0.090786795230528
16.404824,19.145751577115792,0.0904131532676675
16.408904,19.14661905492895,0.09002863341683551
16.412992,19.147707982541984,0.08963979218814203
16.417080000000002,19.149804851929957,0.08924684674500892
16.421164,19.14596479556819,0.08887772929823502
16.425248,19.145037839631325,0.08849779023112382
16.429332000000002,19.143213666819445,0.08811997544093687
16.433412,19.141832393607306,0.08773300335563147
16.437492,19.140561845295107,0.08734287996102932
16.441572,19.13861552990776,0.08694971076701051
16.445652,19.136669214520417,0.0865560547560143
16.449732,19.126880814733372,0.08619215815309236
16.45376,19.119108298496215,0.085820043715339
16.457848000000002,19.11380598308423,0.08544730044970734
16.461936,19.110519551222133,0.08506545886034986
16.466024,19.108695378410257,0.08468715461028992
16.470112,19.10776842247339,0.08430648100245519
16.4742,19.106398566936786,0.08393524497507342
16.478228,19.10368859492543,0.08357536483003498
16.482308,19.102883781564028,0.08320932593414815
16.486388,19.103873401952654,0.08283947631648245
16.490464,19.100720530341558,0.08248820914449584
16.494552000000002,19.098243425805602,0.08214047915229065
16.498628,19.093639712819826,0.08180305717506081
16.502724,19.092846317133958,0.08145401456201999
16.506800000000002,19.091831471648224,0.08111001149830263
16.51088,19.09261105991251,0.08076316873288895
16.514960000000002,19.09014537305209,0.08043261248313448
16.51904,19.093284437241604,0.08008836990666408
16.523124,19.096767093806463,0.07975413066605881
16.527160000000002,19.10349502549603,0.07940391434377281
16.531244,19.112803882910697,0.07905136470521679
16.535328,19.118978190100588,0.07871294029860837
16.53942,19.125263222190416,0.07837297957132935
16.543512,19.133231963130335,0.07803257121653691
16.5476,19.142097920945265,0.07769136415954682
16.55164,19.15455274626024,0.07734491873850459
16.555732,19.171150063574935,0.07698230955624011
16.559828,19.188755322664576,0.07661644965216767
16.56392,19.209052232379257,0.07624745629664581
16.568012,19.23046780876882,0.07587307619803146
16.572096000000002,19.254009993608214,0.07548910706174362
16.576188000000002,19.273520411347818,0.07511987631992302
16.580276,19.294825262837445,0.07474829456661006
16.584368,19.315687214727333,0.07438651207307644
16.588456,19.33464400796726,0.07402987341631395
16.592548,19.34979048390727,0.07368314658329383
16.596636,19.369865943822084,0.07332154821512983
16.600724,19.385012419762088,0.07297602849314469
16.60482,19.401388287276916,0.072622806898158
16.608908,19.414408154767102,0.07228721854254272
16.612996,19.424847096532186,0.07195284404022215
16.617084000000002,19.437301921847165,0.07161172768279235
16.621172,19.446843646737236,0.07127895505093976
16.62526,19.45817980537733,0.07094473506795776
16.629356,19.466713588492453,0.07061642070774711
16.63344,19.471990678807337,0.07028619942613415
16.637528,19.468307018047632,0.06998355146847286
16.641612000000002,19.464734082187867,0.06967887846028502
16.645704000000002,19.454437728603274,0.06939026513871102
16.649792,19.445038591893695,0.06910083884139138
16.653884,19.43822038090921,0.06881086090882256
16.657972,19.43431527034964,0.06851314499704378
16.662072000000002,19.43163955136488,0.06820811303315436
16.666164000000002,19.429517456879797,0.06789216684593093
16.670252,19.42941124594461,0.06756984609736225
16.674348000000002,19.432107410534392,0.06724233956798592
16.678444,19.427969432499417,0.06693222845759139
16.682536,19.42495012113932,0.06661652708520273
16.686632,19.420357825829075,0.0662981296291834
16.690728,19.420018747418478,0.06596316893335105
16.694824,19.422592769432793,0.06562105103156882
16.698916,19.4246017492719,0.06527340014531739
16.703008,19.427840120685822,0.0649181905659736
16.707104,19.42860829127458,0.06456156302086012
16.711192,19.430495128538215,0.06419958780281355
16.715284,19.433057732876993,0.06384115666715223
16.719376,19.44177871276539,0.06346203745855877
16.723472,19.449491750878842,0.06308621947396151
16.727568,19.46123655609208,0.06269801665276506
16.73166,19.46838455203032,0.062315646364872405
16.735696,19.4710464635935,0.061937065991697994
16.73978,19.467538581931535,0.06156021618759361
16.743868,19.45921244119471,0.06119309862747764
16.747956000000002,19.44696525825803,0.06083472716100181
16.751988,19.436623233971307,0.060473345896137
16.756072,19.427289151459533,0.06010947611621844
16.760156000000002,19.42299477782249,0.05973096615461393
16.76424,19.415898028660475,0.05935579367557651
16.768324,19.410374263448617,0.05898376417602186
16.772416,19.40003223916189,0.05862116340122674
16.776504,19.38879299800016,0.05825909159600165
16.780528,19.376213640363677,0.05790591731948546
16.784556000000002,19.36150767427736,0.057559748424091485
16.788636,19.345572316616227,0.057220191238124295
16.79272,19.32873974208009,0.056880662838755425
16.796752,19.313025834218827,0.05653618948859462
16.800784,19.29641470948255,0.05619202586047515
16.804864000000002,19.279692859846346,0.05584973771151394
16.808944,19.26577338573511,0.05550428297095702
16.81302,19.25734793777388,0.05515417444473898
16.817104,19.251724865337618,0.0548005254856158
16.821188,19.25327952790145,0.054443360054105064
16.825268,19.258533782865264,0.054082369661906354
16.829348,19.266590413354052,0.05371781152543819
16.833432000000002,19.267923626118016,0.05336400451855246
16.837472,19.26264414605709,0.05301821559919098
16.84156,19.255348782446276,0.05267722465241484
16.845648,19.252760953010387,0.05233034657928985
16.849736,19.248378689824477,0.05198389443963244
16.853824,19.24186981818874,0.05164329926431809
16.857908000000002,19.23244784612809,0.05130707437887995
16.861988,19.22190720739256,0.05097471031553352
16.866076,19.210247901982154,0.05064588325323328
16.870160000000002,19.194778279271826,0.050320956635851066
16.874244,19.175055439661847,0.05000859079146708
16.878332,19.149174224502254,0.0497115068965665
16.882428,19.11522947514308,0.049431549581649706
16.88652,19.07478275785896,0.04915541951519328
16.890616,19.02257291397528,0.048899153643081325
16.894712000000002,18.958710668391983,0.04866042073100887
16.8988,18.883085296209128,0.048440950862169686
16.902896000000002,18.80051505650158,0.048234151945441464
16.906988000000002,18.710889224369403,0.04804205623315076
16.911084,18.61521574158754,0.047862101423596336
16.915176,18.51349460815601,0.04769404756246563
16.919272,18.409536141374712,0.04753313440320677
16.923364,18.294601039968935,0.04739371730935107
16.927452,18.165100436438628,0.04727590605369438
16.931552,18.02473392318378,0.04717733794763892
16.935644,17.881454309504033,0.047081452269929144
16.939736,17.733810754024688,0.04700020887756142
16.943828,17.577427897270624,0.0469318749728838
16.947916,17.41320295611686,0.046876527268386384
16.952004000000002,17.244835522963378,0.04683164646933936
16.956092,17.07445220626,0.04679033730697359
16.96018,16.900147847356767,0.04675525580489536
16.964268,16.724724821778654,0.046724231928571634
16.968356,16.542921970851054,0.04671504742311537
16.972444,16.362913553673483,0.04670521814757182
16.976532,16.181786469821024,0.04670035777244565
16.980620000000002,16.0053669201435,0.04668973583943847
16.984708,15.822445402541021,0.04668348738305177
16.988792,15.636942959213444,0.04667350505399456
16.99288,15.446622256811004,0.04667093532259894
16.996964000000002,15.258095988158587,0.04666832413219778
17.001048,15.065648677306317,0.04667338948206515
17.005132,14.87801962552891,0.04667060560540463
17.009216000000002,14.695995324801446,0.04666225423019777
17.013304,14.51587618272394,0.04665125090113255
17.017392,14.332401040621788,0.04665729624639305
17.021484,14.145226306119657,0.046666557099936445
17.025576,13.95995673026748,0.04667334741010655
17.029672,13.779394688590235,0.04667426903018593
17.033764,13.59883264691299,0.04667513547667799
17.037856,13.416365446585786,0.046678565798036434
17.041948,13.232890304483632,0.04668549574508818
17.046036,13.052328262806386,0.046685322753968674
17.050132,12.875908713128863,0.04667039146918245
17.054224,12.69758400480138,0.04665794618847458
17.058320000000002,12.521385904923722,0.04663491441288231
17.062416,12.34115603794628,0.046624752640037966
17.066512,12.164515038468885,0.04661445812752746
17.070608,11.986423197616807,0.04662168591879116
17.074704,11.809339298539674,0.04662595818428881
17.078796,11.627547865287612,0.04663835466973339
17.082892,11.448669532460455,0.04664362903611866
17.086988,11.269901924533233,0.0466434405951597
17.091088,11.091245041505944,0.04663760198919792
