Time,Force,Position
18.69576,0.021642896077866944,0.0
18.699852,0.02379101459932106,0.0
18.70394,0.024144699370751532,0.0
18.708032,0.025395601017193827,0.0
18.71212,0.02675722756357099,0.0
18.716212,0.02901607098495998,0.0
18.720308,0.030156247731467398,0.0
18.724404,0.030177757803093255,0.0
18.728444,0.03188297672480788,0.0
18.732532,0.029746275878886626,0.0
18.73662,0.027498850133030488,0.0
18.740712,0.025627944509670524,0.0
18.7448,0.028365265836837406,0.0
18.748944,0.04067405111592828,0.0
18.753084,0.07133927232379017,0.0
18.757172,0.12498057408648282,0.007554642075528847
18.761264,0.20921859100384024,0.014897575173133944
18.76536,0.3195672387008034,0.0221704896368699
18.769452,0.4602797340770288,0.029333563351105683
18.773548,0.6275457598325992,0.03637892153547931
18.777644,0.8155276974421716,0.043494792368964655
18.78174,1.033308440555799,0.05054108006327309
18.785832,1.2801129148739372,0.05758530772421562
18.789928,1.5527951524962784,0.06460568783855618
18.794024,1.85192019559803,0.0716235538064198
18.79816,2.175915060229038,0.07864426075368958
18.802248,2.5266849050392612,0.0856746947235694
18.806336,2.9069213806537344,0.09268037115166154
18.810428,3.3148300533224346,0.09964831980587752
18.814516,3.754132025516971,0.10656610514508127
18.818612,4.220541152590526,0.11346068974709522
18.822708,4.710989263795569,0.12035111736037343
18.826804,5.2232491181784315,0.12720613448095247
18.830896,5.746840617236643,0.13400813552782953
18.834992,6.264193817016509,0.14073870087535578
18.839088,6.760918994491244,0.13986565909180254
18.843184,7.226470996960573,0.13918406888226673
18.847276,7.66130414169977,0.13856838757493564
18.851372,8.06620492068391,0.13803963675732592
18.855468,8.435912175238395,0.13765965669269012
18.859564,8.783895576163927,0.1372138480728383
18.863656,9.102744520985016,0.1368332107847814
18.867752,9.395249967551095,0.13641712799264677
18.871848,9.659407449987807,0.13602975837953005
18.875944,9.896557084769901,0.1356332474582282
18.88004,10.107706813672323,0.13521282763301404
18.884136,10.29318881139488,0.13475221419991854
18.888232,10.449303485537587,0.1342975826092924
18.892328,10.569548868175493,0.13390903011332114
18.896424,10.656395160133764,0.13357313582451347
18.90052,10.717695863487638,0.13322459282801746
18.90462,10.75557758668694,0.13283033455033574
18.908716,10.767925138957375,0.13245004408513805
18.912808,10.757010106675306,0.13213657385034203
18.916904,10.733965520067276,0.13187520254351626
18.921,10.705648357109114,0.13165040855938534
18.925088,10.674983135901252,0.13146201136512653
18.929184,10.646788115518557,0.13126066921157067
18.93328,10.615569269811022,0.13109363460978155
18.93738,10.590520217328631,0.1308809400091309
18.941472,10.56692200622093,0.13063703163291782
18.945572,10.543213070213293,0.13039714073635128
18.949672,10.51614813418101,0.13020636911820832
18.953768,10.48829670617365,0.13001754652587294
18.957864,10.462682611516055,0.12979406475182304
18.961964,10.434044691533618,0.12960543381829637
18.96606,10.406647580801533,0.12942541336591842
18.970156,10.380036962044523,0.12924185252075707
18.974252,10.361169120462813,0.1290082331476337
18.978288,10.348028172506517,0.1287484301254739
18.982324,10.331974124125312,0.12851891170753438
18.986416,10.312231901019658,0.1283532120069807
18.990504,10.292046778314264,0.12820617019169156
18.994596,10.274553306233907,0.12803763187442674
18.998684,10.259308585178847,0.12786678903649212
19.00278,10.24631261514908,0.12769369576102715
19.006864,10.23948643834446,0.12747613028263668
19.010956,10.234122520590063,0.12725912298915673
19.01504,10.235604163135955,0.12700084908300588
19.019132,10.239888181206815,0.1267181122452144
19.023224,10.246863849902713,0.12641683193007622
19.027312,10.259112094948744,0.12608091191537243
19.031404,10.274949207494824,0.1257177006198997
19.035488,10.298296229740805,0.12528868334001983
19.039584,10.322662611437263,0.12488302528966556
19.043684,10.354096003233883,0.12443032144232036
19.047776,10.386426611905513,0.12397398253236279
19.051872,10.423021855152335,0.12349851677721406
19.055968,10.461522257049111,0.12300963294268362
19.060064,10.498449674995737,0.12252668668871691
19.06416,10.537171526692385,0.12203158266852115
19.068256,10.579027928613804,0.12149922782344373
19.072352,10.62290021408512,0.12094646633373833
19.07644,10.671812208431172,0.12034448724178481
19.080532,10.716348843302097,0.1197684299531966
19.084628,10.763122811522786,0.11916567255709641
19.088724,10.810450404243152,0.11854597142588147
19.092816,10.855529245938218,0.11792735606018216
19.096912,10.90116171213296,0.11729289227160998
19.101008,10.94353748552746,0.11667262308102738
19.1051,10.98579111634649,0.11603543377980194
19.109188,11.025341678864951,0.11539094734816288
19.11328,11.064770098807946,0.11472418155662778
19.117376,11.102736259700723,0.11406438102991406
19.121468,11.136769960718116,0.11341189176817959
19.125564,11.16787914363507,0.11275929307739276
19.12966,11.192929258226812,0.11213456050024305
19.133752,11.209904420943445,0.11155790393836147
19.137848,11.222947123784689,0.11098773337526506
19.141944,11.23430611777585,0.11042351271650462
19.14592,11.246894503341826,0.10984281501140244
19.150012,11.25622619610756,0.1092696736033937
19.1541,11.263198412948064,0.10869929320671202
19.158136,11.264565878738622,0.10816955112634315
19.162224,11.269743661829104,0.10761015382251879
19.166252,11.270213910744653,0.10708445737452238
19.170336,11.268779001010245,0.10657440720258606
19.174416,11.267344091275838,0.10606328263904939
19.1785,11.260525880291357,0.10558150627419445
19.182528,11.252699727531933,0.10510796021643633
19.186608,11.235802098797986,0.10471452992871579
19.190744,11.216556411814341,0.10435089880273418
19.194824,11.195073391480934,0.10401263566116446
19.198904,11.165748286747823,0.10373584327619308
19.202984,11.137541848689592,0.10344446745116302
19.207068,11.107430251981404,0.10316498985581372
19.211156,11.082923406323154,0.10284843567008063
19.21524,11.062226877964825,0.10250368448511724
19.219288,11.041984666881765,0.10217030511846883
19.223364,11.02397978914847,0.10180995563235495
19.227448,11.003172535890203,0.10146642729834342
19.231532,10.98797003368188,0.10108761826898835
19.235608,10.971648864798677,0.10072016407282539
19.239692,10.955327695915472,0.10035145507968256
19.243772,10.940014468807213,0.09997414429513093
19.24786,10.926717125248844,0.09957861062514488
19.25194,10.912301115015596,0.09919535392435812
19.256024,10.90259263895728,0.09878297128946505
19.260104,10.893449205074168,0.09837772035461363
19.264176,10.887894638691108,0.09795619568707978
19.26826,10.890071431807812,0.09747974503995002
19.272348,10.894042658674543,0.09699494778701175
19.276436,10.898911102416282,0.09650551964303826
19.280524,10.906692646582929,0.09599300837914646
19.284556,10.913023349374887,0.09550539600536448
19.288644,10.91969764454218,0.09503448668924452
19.292724,10.926261214809543,0.09456960489646425
19.296816,10.932824785076907,0.09410478370181566
19.300912,10.938269688669386,0.09365173249315288
19.305,10.941366534012172,0.0932277351764879
19.309096,10.946933580180119,0.09280089830418274
19.313192,10.946342250798452,0.0924271496993161
19.317288,10.951244947566792,0.09202706795140904
19.32138,10.956601961610403,0.09163958957881468
19.32548,10.96184825075408,0.09125776903542743
19.329568,10.969454015822988,0.09087861498027607
19.333664,10.978743489741985,0.09049705825365473
19.33776,10.9819853130113,0.0901626606400031
19.341856,10.989934670455545,0.08980310075757413
19.345948,10.991049885275036,0.08948843886745719
19.350044,10.98914127476968,0.08919727183779928
19.354136,10.987011214464458,0.0889145837091063
19.358224,10.986564863009328,0.08862943932642792
19.36232,10.989707379054241,0.08833114139386485
19.366408,10.996770937299004,0.08800753619401971
19.3705,11.005174612018523,0.08766431316448087
19.374596,11.011562403188147,0.08733651183050513
19.378684,11.018625961432912,0.08701398422118803
19.382772,11.027816128127508,0.08667265809769586
19.38686,11.04059516232215,0.0863191433394087
19.39094,11.048666662341862,0.08598926436827227
19.395028,11.056848887261511,0.08565381626997416
19.399112,11.062007286856316,0.08534158741681215
19.403196,11.06727641135106,0.08502495917679
19.407284,11.068513768746014,0.0847370967843307
19.411376,11.065154316865977,0.08446878043973473
19.415464,11.058992489460968,0.08421366212898364
19.419548,11.058656862905769,0.08392393024131534
19.423644,11.049692659975792,0.08368146054063895
19.427736,11.046554657895623,0.08340363026532045
19.43182,11.044092422890595,0.0831309070407581
19.435908,11.03692265371064,0.08288051497475134
19.439996,11.028744942755738,0.0826374038913895
19.444084,11.018662073150876,0.08240458159961508
19.448172,11.003428769771348,0.08221076891217499
19.452264,10.98965772544204,0.08202337153146388
19.456356,10.979475548612779,0.08182457674884608
19.4604,10.969969138858659,0.08163113374822291
19.464496,10.96091704637981,0.08145115335002588
19.468592,10.951643504101092,0.0812796558312235
19.472688,10.949769146622339,0.08107818717863725
19.476784,10.955072524143679,0.08085553770778249
19.480876,10.963178277189991,0.08062175966061626
19.484976,10.974086405761273,0.08037665285865513
19.489072,10.987686184957589,0.08012322930600675
19.493168,11.007455757379056,0.07985611005633912
19.49726,11.025885213325768,0.0796065717436669
19.50136,11.04106939414777,0.07938617473549851
19.505456,11.063542034869803,0.07914035846796906
19.509552,11.087587659541988,0.07889925193321361
19.51364,11.113649167764068,0.07864627990407268
19.517728,11.14722058568605,0.07836124193111736
19.52182,11.181578495583105,0.07807872128767734
19.525912,11.215493505880422,0.07781270382721676
19.530004,11.256353383702434,0.07750676898827961
19.534092,11.294300161099537,0.07721714608159383
19.538176,11.328325896296787,0.07695050687901828
19.542264,11.364035340344131,0.07668458098312995
19.546344,11.400642001266485,0.07641773945822469
19.55044,11.436462170213762,0.07615095668037224
19.554528,11.469479963636068,0.07589741878405365
19.558616,11.49509857225841,0.0756709400723245
19.562708,11.51578819690595,0.07547188842049685
19.5668,11.534351213103664,0.07528971093546122
19.570896,11.554597938151467,0.07510754318485702
19.574992,11.56845342017425,0.07494507435798448
19.579076,11.590261711496675,0.07473895084839846
19.583168,11.612967219694111,0.07453104034698878
19.58726,11.63488623591647,0.0743225473585114
19.591352,11.654789368588933,0.07412706636279519
19.595444,11.674360326561596,0.07394409652802368
19.599532,11.690010242334402,0.07378147187158551
19.603616,11.705660158107214,0.07361941503450473
19.6077,11.72142079877996,0.07345366121637428
19.611788,11.730912339003153,0.0733306639690231
19.615876,11.740625329026217,0.0732001010362804
19.619968,11.750449043949216,0.07306567458862079
19.62406,11.754102965647064,0.07294156589314453
19.628144,11.756859670469904,0.07281984200377165
19.632232,11.754798116217879,0.07271908630067646
19.636324,11.748926244665936,0.07263363285298317
19.640412,11.74776190728892,0.07253070771284305
19.644492,11.749732120136683,0.07240680504289794
19.648576,11.751026565909301,0.07227730941248865
19.65266,11.750969477531637,0.07213697442237885
19.656744,11.753936214478811,0.07197935009888251
19.660828,11.750966025676242,0.07185242058272133
19.664912,11.747430794698463,0.07171627241008251
19.668996,11.744792780595695,0.07157858531319086
19.673076,11.741589724317722,0.071431713398646
19.677152,11.732106149914665,0.0712973196865659
19.68124,11.723851967086427,0.07114978053632907
19.68532,11.714922017183044,0.0709966392331919
19.689404,11.709237342404371,0.07081992861314389
19.69348,11.707019392550283,0.07061192171983623
19.697568,11.704690717796254,0.07040736842497305
19.701652,11.706172360342146,0.07018889940922596
19.70574,11.713258753937977,0.06995256167936528
19.709828,11.719669380458663,0.06971100440246865
19.713916,11.731119715854087,0.06944217159719486
19.718008,11.746491093449364,0.06915538778144092
19.7221,11.76320258751939,0.06885421188813194
19.726188,11.77811964783939,0.0685569126361815
19.730272,11.797854967234255,0.06824212344183798
19.73436,11.818376778604199,0.0679304920783318
19.738452,11.842708907274055,0.06760747721755023
19.742528,11.867483935543657,0.067270024174859
19.746612,11.890464530063232,0.06693583834226388
19.750692,11.909069765107684,0.06660581463706984
19.754772,11.92397540775215,0.06628478497408906
19.758856,11.946723134796326,0.06593050439245192
19.762936,11.97058952851538,0.06556887878437019
19.767016,11.99366943025936,0.06520567777059584
19.7711,12.011255305853332,0.06485537417658588
19.77518,12.028951906347238,0.06450297730820807
19.779256,12.050901723740804,0.06412531746438413
19.783336,12.06567380613427,0.06375801459514643
19.787424,12.081896729902427,0.06337411996143645
19.791508,12.098451828370386,0.06298046753350292
19.795604,12.114331159763205,0.06258220715433715
19.799696,12.13143988273084,0.06217406883041502
19.80378,12.144738288398557,0.06177899758886786
19.807864,12.161171244291051,0.06136792841591714
19.811956,12.172220898933471,0.06096461546495152
19.81604,12.18080035275073,0.060557669812515875
19.820124,12.18198062176802,0.06016600169487417
19.824208,12.185287499235137,0.05976255903537782
19.828296,12.192736868701978,0.05933879947415485
19.83228,12.204107280368671,0.05890118375851613
19.836316,12.220406676010164,0.05844517540419941
19.8404,12.233117204151608,0.057994324969549
19.844488,12.242914631868144,0.05755315667059421
19.848572,12.254617218234642,0.05710777539612752
19.852612,12.269011455226176,0.056659923389187856
19.8567,12.277911666067704,0.05621931765612641
19.860736,12.281096400959358,0.055793910545332656
19.864828,12.289996611800882,0.0553535519742909
19.868912,12.292959896892665,0.05493489997609162
19.8729,12.293120806459482,0.05452109959266023
19.876932,12.292273774251347,0.05411146524349953
19.881012,12.288735091418175,0.05370414535083641
19.885096,12.281386091285087,0.05330407629515917
19.889124,12.267202948527244,0.05292369323877508
19.893208,12.251901139094516,0.052549187850726875
19.897244,12.239180255386891,0.05217650615024172
19.901332,12.232064122729206,0.05179406588129625
19.90542,12.221702714946813,0.05142972446403132
19.909504,12.207985307139772,0.051087182454657154
19.913592,12.19314923265785,0.0507519120592866
19.917672,12.17417066617621,0.05043418516162327
19.92176,12.152844041444867,0.05013287622625563
19.925848,12.135217009113509,0.049826948439050965
19.929928,12.115574093232256,0.04952801512869978
19.934008,12.090104976501195,0.04924239551386381
19.93804,12.070019161020205,0.0489544852326121
19.94212,12.048482504164527,0.04868224078030935
19.9462,12.022803355309128,0.04842694610623546
19.95028,11.99578408997898,0.04818403356387249
19.954356,11.970227083699049,0.04795004659299239
19.95844,11.941314077394471,0.04773588671409842
19.962528,11.906918462615423,0.047551924682573334
19.966616,11.875435948261279,0.04735918492693307
19.970708,11.847431576507248,0.04716852493187603
19.9748,11.821110913603304,0.04698028245963702
19.978888,11.790082716524433,0.04679815029215341
19.982972,11.751323159945793,0.046632366101935184
19.987056,11.712452878467218,0.046469085101239975
19.991144,11.66988300458866,0.04630787968136428
19.995216,11.621376204960356,0.046162730808394004
19.9993,11.572082913356978,0.04601244390163791
20.003392,11.519987246228627,0.04586397880462213
20.00748,11.460381669400379,0.045723926292421356
20.011572,11.393155457972295,0.045595544664769436
20.01566,11.329850288744064,0.045454858529777105
20.019756,11.254892717816212,0.045340255474320815
20.023848,11.184974855763091,0.0452065429827689
20.027944,11.114159776834962,0.04507094305687
20.03204,11.041771713956678,0.04492583588017292
20.036136,10.960755074703613,0.04479613928038418
20.040232,10.877157509725446,0.04466042080963395
20.044328,10.794113569246957,0.04450365299036235
20.048428,10.704014036343839,0.04436994554269981
20.05252,10.603491493315918,0.04425197960312407
20.056616,10.49534831568816,0.04414601179275274
20.060712,10.382276154085604,0.04405251630953495
20.064808,10.26629089205814,0.04396474847230716
20.068904,10.139993344805811,0.043889043651285466
20.072992,10.007758871803736,0.04383169570869328
20.077084,9.873729965051634,0.0437725729424339
20.08118,9.735780016099683,0.04372236803960751
20.085272,9.595027691622763,0.043673688015032824
20.089364,9.450243600046054,0.0436401598728968
20.093456,9.30725394221937,0.04360595974565878
20.097492,9.153619824468011,0.043598518373002534
20.10158,9.008835732891303,0.04355976302896202
20.105668,8.850715530764885,0.043545642242959245
20.109756,8.68508541893857,0.043540879076288584
20.113848,8.514637048037388,0.043546705978520645
20.11788,8.34810971933606,0.04353886250543192
20.12192,8.178558565309892,0.04354468550802306
20.126016,8.005872861058947,0.04356677819667863
20.130108,7.836210982132844,0.043574313078049105
20.134144,7.669683653431514,0.043561853694656476
20.138228,7.502259107855173,0.04354913100540546
20.14232,7.332929403628874,0.043542621641692834
20.146404,7.1637104243025105,0.04352942278142989
20.15044,6.999198979151074,0.04350662799527457
20.154528,6.839616517974437,0.043461985678071795
20.158612,6.678239623047777,0.04341288142943376
20.162704,6.518878611671011,0.043346033320188965
20.166792,6.360414817169255,0.0432756571613407
20.17088,6.205085572892275,0.04317562092703509
20.174968,6.047175402890194,0.04305911908593963
20.179056,5.896885867487949,0.04291707772487982
20.183144,5.73684908903604,0.04281055953568196
20.187232,5.578606744334154,0.04270452059406028
20.191316,5.423953267132315,0.04259807206480037
20.195404,5.273110107230393,0.042470960389728606
20.199488,5.119464571803502,0.04233938071403856
20.203572,4.966937703051492,0.04218592806631208
20.207652,4.815529500974364,0.04200454964674558
20.211736,4.660310981597318,0.04182520975219263
20.215812,4.507784112845308,0.04163159278444272
20.219896,4.357162402743258,0.04141803548028306
20.223976,4.210572459740995,0.041150334839409886
20.228052,4.064879733613741,0.04086362250330097
20.232136,3.9203056741613693,0.040527074474753844
20.236216,3.771134805434004,0.04015734850878018
20.240304,3.62286115358165,0.0397522791273785
20.244388,3.4706664595294447,0.03933214992301696
20.248476,3.318361040577304,0.03888960776331925
20.252564,3.166952838500176,0.03838361051328866
20.256656,3.017117620373201,0.037852458097265826
20.260744,2.865709418296073,0.037188814975336576
20.264828,2.7221433006186486,0.03638234460424635
20.26892,2.5826089500410108,0.03540639277003708
20.273008,2.4460984247882127,0.03427608891886126
20.277092,2.308469232860534,0.03301309548402759
20.28118,2.173642416457825,0.031552180944369713
20.285268,2.045206843080134,0.029998716021188847
20.289348,1.9145339363526797,0.028000956347006327
20.293424,1.789355055775231,0.026010610427312328
20.297508,1.6668678258228178,0.024046018406838746
20.301584,1.5489774051453984,0.0221004404168886
20.30566,1.43344646039321,0.02020156019201007
20.309748,1.318702007616099,0.018327103944683534
20.313824,1.2063170307642184,0.016507563864865217
20.317908,1.1018962808875097,0.014732796951998578
20.321988,1.0047639909108301,0.013000654673067569
20.326068,0.9130150021842215,0.011304233556248018
20.330152,0.8259735476325417,0.00963715949204595
20.33424,0.7392756854561996,0.008056852614867875
20.338328,0.6589690663048751,0.006520873597052699
20.34242,0.5840356560075286,0.005131996473020751
20.346516,0.5123589385104246,0.003872875420766797
20.350544,0.4467412893385336,0.0027774036866868666
20.354628,0.38538827474183196,0.0018363134378355228
20.358712,0.3313237200451598,0.0010477116319813776
20.362804,0.2825317416986237,0.0004703231031323947
20.366896,0.23542347220217644,0.0
20.370992,0.197619546155652,0.0
20.375088,0.16340448760917484,0.0
20.379176,0.1317703547877983,0.0
20.383272,0.10271714769152238,0.0
20.387368,0.07736353299522858,0.0
20.391464,0.058401161323952386,0.0
20.39556,0.04313838205265839,0.0
20.399656,0.02978076143132291,0.0
20.403752,0.017209632785064377,0.0
20.407852,0.008338096538788019,0.0
