Time,Force,Position
19.282104,0.2882170915406965,0.008264320490858517
19.286188,0.23616957927077317,0.005567134410389203
19.290272,0.19331568555083772,0.0027004947194516978
19.29436,0.15360775973121008,0.0
19.298448,0.12107756891167702,0.0
19.302536,0.09191479579232152,0.0
19.30662,0.06734883194796004,0.0
19.31066,0.04726895247865763,0.0
19.314756,0.030888665409337414,0.0
19.318852,0.02259226373436126,0.0
19.32288,0.016876787784485706,0.0
19.326932,0.01306647048456867,0.0
19.33102,0.012279978509491718,0.0
19.335108,0.014304795578622773,0.0
19.339196,0.014645903797665052,0.0
19.343272,0.015097736916642204,0.0
19.34736,0.015660294935554223,0.0
19.351448,0.01184104411639952,0.0
19.355536,0.009029735072191517,0.0
19.359628,0.007004918003060461,0.0
19.363716,0.007004918003060461,0.0
19.367804,0.007004918003060461,0.0
19.371888,0.007004918003060461,0.0
19.375972,0.007004918003060461,0.0
19.380056,0.009251184872061259,0.0
19.38414,0.014200520041630377,0.0
19.38822,0.0215207488119632,0.0
19.392252,0.03322775473295312,0.0
19.396332,0.044957596005008746,0.0
19.400416,0.059614439533797615,0.0
19.404496,0.07912379516404877,0.0
19.40858,0.10707453039580954,0.0
19.412664,0.13977847050463055,0.0
19.416756,0.18779218586631682,0.009438389617061182
19.42084,0.2532765379572951,0.019048662052870934
19.424924,0.3453144204276186,0.027876335675896806
19.429012,0.4577360400521394,0.036583413678622494
19.4331,0.5973844729748522,0.04494462790276173
19.437192,0.7622349021266261,0.05308472847153556
19.44128,0.9494735343069577,0.061070132203344694
19.445368,1.1577602530410958,0.06900875229970901
19.449456,1.390573200929153,0.07683512903545889
19.453528,1.6452207273460935,0.08462754246752006
19.457608,1.919797673641959,0.09243636970417243
19.461688,2.2131764396226306,0.1002248068794497
19.465768,2.5212999386809596,0.10800540702417978
19.469852,2.8447217953166213,0.11576295651543084
19.473936,3.1827776601300064,0.12350246714025737
19.478024,3.542511707870208,0.1311428509786829
19.482104,3.9158489866621218,0.13874827244077456
19.48618,4.300307878005047,0.14631885857751992
19.49026,4.688710646898892,0.153895551987629
19.494336,5.087314976117673,0.16140761750538946
19.498428,5.475229174709646,0.15948661860363741
19.502524,5.853293371172164,0.15730155480061644
19.506612,6.202555286230038,0.15590040181936773
19.5107,6.532552130808598,0.1545918654547828
19.514792,6.832849477107504,0.15364066871440946
19.518888,7.104688134377106,0.15293419170401834
19.522988,7.353474239218543,0.1524183968345139
19.527016,7.586595558756242,0.15188699509395973
19.531056,7.7936176651898705,0.15147657549285304
19.535152,7.977797251319669,0.15111642386776114
19.539184,8.144628343295642,0.15071481498691894
19.543268,8.292648682067572,0.15028960481104459
19.547304,8.425691420286439,0.1498536962868761
19.55144,8.545550991702271,0.14939115076796466
19.555492,8.645603285814644,0.14895072035625967
19.559576,8.724962503424084,0.14859380722238621
19.56366,8.78778255420584,0.14826781650621337
19.5678,8.838438797635037,0.14792643654069196
19.571884,8.880298651411854,0.14753519282162506
19.575964,8.909563215911906,0.14718601392989583
19.580052,8.938350627785622,0.1467575944934464
19.584136,8.965011431209508,0.1463742897950884
19.58822,8.994031710558627,0.14597874759590299
19.592308,9.02473569875783,0.14557375406053197
19.596396,9.058807104657214,0.14514104252703824
19.600492,9.097929637106866,0.14466728842711055
19.604584,9.14174828605591,0.14410173729258605
19.60868,9.181413025329702,0.1435741482273725
19.612768,9.226461065853565,0.14299378935521068
19.616864,9.272627773052308,0.14239187035374237
19.62096,9.313854078600722,0.1418241203618971
19.625048,9.349254183299326,0.14133396665701334
19.62914,9.382516261872565,0.14084637128091926
19.633236,9.411402980970681,0.14040314278898797
19.637332,9.44162981654355,0.13992927105407396
19.641424,9.469275726391317,0.1394771286159824
19.64552,9.49668876876368,0.13900242623139808
19.649616,9.518829234785908,0.1385786822932781
19.653712,9.538610224882905,0.1381690933397251
19.657748,9.556253188854543,0.13776085301714971
19.661828,9.5652675764514,0.13745972557075603
19.665912,9.570128054373,0.1371872821545591
19.669996,9.573304823444513,0.13692639488363054
19.674088,9.572106233040904,0.1367035725094672
19.67818,9.57281280128725,0.13645888061685316
19.682256,9.570262676733355,0.1362321429389055
19.68634,9.563005018004532,0.13605879230644005
19.690372,9.552944983750733,0.1359157711827266
19.694424,9.536715156271793,0.13582570696813548
19.698504,9.520817503492653,0.13571924898818521
19.702532,9.507500776438615,0.13559285616153735
19.706616,9.499899525334454,0.13540013293201014
19.710692,9.495100649755264,0.13517751001933817
19.714772,9.488839515125854,0.134955083306285
19.718852,9.482246205796637,0.13474855284167064
19.722936,9.475763621367358,0.13453606872552332
19.727028,9.468838137338338,0.13434483632707714
19.731112,9.465612245709298,0.1341154687283802
19.735196,9.460259745630433,0.13391838057663294
19.739292,9.45457507085176,0.13373718567082596
19.74332,9.456511030672923,0.13346999138478705
19.747356,9.455988207344454,0.13325009155997758
19.751436,9.456141151091126,0.1330321918885163
19.755516,9.457080586812879,0.13281097900392147
19.759548,9.45398825543484,0.1326438411859691
19.763628,9.455160558631993,0.1324469820315239
19.76772,9.459135237354117,0.13222096238609707
19.771744,9.466477333776417,0.13197347079536406
19.775828,9.479202731448787,0.1316782851059275
19.779912,9.491706679321286,0.13139434080327908
19.784,9.507013002718757,0.13108300401724055
19.788096,9.519406225691323,0.13080673028404208
19.792188,9.52877562333905,0.1305711652018528
19.796276,9.539718004936931,0.13033039561107115
19.800372,9.55346276205978,0.13006261526291238
19.804464,9.570574936882805,0.12977490255333768
19.80856,9.589481545455858,0.1294729251975518
19.812652,9.606261545579079,0.12920327736817921
19.81674,9.624946704352261,0.12891362873089982
19.820832,9.646544963550346,0.12859284051336572
19.82492,9.663214238773634,0.1283319301294079
19.829008,9.685598989946797,0.12801097178304652
19.833096,9.712802000194827,0.12763984149509414
19.83718,9.746506978367805,0.1272112306474307
19.841268,9.784132998740635,0.12673883371065614
19.845352,9.821193976938261,0.12626323263808303
19.84944,9.85735773826087,0.1257983185571367
19.853532,9.893067182308211,0.12532339477730864
19.857624,9.926871467705594,0.12487132263728352
19.86172,9.965272562377969,0.12438404755662597
19.865804,10.00277644017533,0.12390852260120111
19.869892,10.048011677472463,0.12336048949608197
19.873976,10.09246042279452,0.12281433418298898
19.878064,10.142513919166516,0.12222498011468329
19.882152,10.191670198663505,0.12164816569167035
19.88624,10.24496897016021,0.12103027628122219
19.890328,10.297924149281581,0.12039971482034588
19.894412,10.357824195927643,0.11970554625993914
19.898504,10.41805641727351,0.11900156658855299
19.902592,10.477612871544233,0.11830187401930134
19.906684,10.54243048448956,0.11754444330137927
19.910772,10.606007288184538,0.11678314269113835
19.91486,10.668686875004504,0.11603752104241187
19.918948,10.7259831605744,0.11533509392705454
19.92304,10.783500895944165,0.11462968534579678
19.927132,10.839224197563905,0.11393984060424782
19.93122,10.893153065433626,0.1132630353583026
19.935316,10.946406166228202,0.11258657817073754
19.939408,11.000999383497529,0.11189154600642645
19.943504,11.051438691091601,0.11121709980693587
19.9476,11.100415739635455,0.1105441386637187
19.951696,11.141993603379344,0.10992926846685981
19.955792,11.187603234223019,0.1092793517252368
19.959888,11.228948230491506,0.10865383573120263
19.963984,11.267933750834763,0.10803319674920646
19.96808,11.29772565262803,0.10747444223825502
19.972176,11.324604453996393,0.10694022025986101
19.976276,11.33915508658999,0.10649708499375987
19.980368,11.352697777408643,0.1060643747739819
19.984464,11.364446034477272,0.1056429888054871
19.98856,11.368573656946067,0.10527739252627205
19.99266,11.368669512315078,0.10494753070316645
19.996756,11.365287225083971,0.10463292979973328
20.000848,11.35809462055295,0.10434464755888052
20.004948,11.347988915597027,0.10407892559363552
20.00904,11.335080835116129,0.10383072115630461
20.01314,11.323291421310113,0.10356911617428853
20.017236,11.311169832804293,0.10332000851743793
20.021328,11.295237926998558,0.10309724148431468
20.025424,11.277179412742994,0.10289556931184399
20.02952,11.261701824212528,0.10268448993797752
20.03362,11.243421860157094,0.10249019205566588
20.037716,11.224244679226647,0.10230009924795655
20.041808,11.200814281396545,0.10215209552624786
20.045904,11.176940983966702,0.10202018648096949
20.050004,11.15755377091192,0.10186591460921776
20.0541,11.139850266707224,0.10170667317760752
20.058196,11.126854296677458,0.10151657295884499
20.062288,11.110048009347775,0.1013518030363067
20.066384,11.090217896693252,0.1012122737215192
20.07048,11.074873868413787,0.1010504600843716
20.074576,11.064237374309252,0.10085808547998457
20.078676,11.052371488629902,0.1006822587229237
20.082768,11.046331803800358,0.10046317555718239
20.086864,11.040513568770686,0.1002352999872426
20.090896,11.037497709265987,0.09998981690610463
20.094988,11.035157616836429,0.09974883362809861
20.099076,11.031023090656845,0.09951606213452449
20.103112,11.026445664877524,0.09929961553128706
20.107192,11.024670614623174,0.0990660776653736
20.111168,11.015164204869055,0.09888736067304563
20.115192,11.008127995940097,0.09870379724412573
20.119276,10.995154861261398,0.09856668552732532
20.123356,10.985427001707407,0.09839511655564133
20.12744,10.973793983503457,0.09823586928907282
20.131524,10.961042298624626,0.09808931139686289
20.135608,10.950085047495818,0.09793431261941178
20.139692,10.939803563442155,0.09778347360791198
20.143728,10.935802597513575,0.09760326254262273
20.147816,10.934493282210024,0.09741013735419718
20.151896,10.932176025131533,0.09722565295292426
20.155972,10.927399984903406,0.0970752589123958
20.160048,10.927110029050342,0.09690446849520457
20.164076,10.924472014947575,0.09676335009996681
20.168156,10.921280376345138,0.0966432262954808
20.172236,10.92044821366793,0.09652398686431732
20.17632,10.917600167440828,0.09642121240426847
20.180408,10.916325105163882,0.09631874374832494
20.184496,10.918971085086785,0.09618769800746027
20.188584,10.91837178988498,0.09608964649880893
20.192612,10.922369303958169,0.09596693539990088
20.1967,10.930177135331272,0.09582018806504612
20.200792,10.9423603261795,0.09565729457556123
20.204876,10.95320340055298,0.09551553957943505
20.208968,10.97054844285141,0.09533798321723046
20.213064,10.987782760249907,0.09516491067625664
20.217156,11.004009135873456,0.09500098795416444
20.221192,11.022362119946834,0.0948174743067038
20.22528,11.0398178871452,0.09463920754195493
20.229372,11.058170871218577,0.09445766718230163
20.23346,11.077421072166967,0.09427289303129271
20.237552,11.097900664690172,0.09407215837939417
20.241644,11.114902114613265,0.09388322173409944
20.245732,11.131903564536358,0.09369444925056138
20.249768,11.15383399843425,0.09347153759278791
20.253856,11.172286289732028,0.09326006938470895
20.257948,11.192643739679765,0.09303739101284389
20.262036,11.213222639427373,0.09280686364136341
20.266128,11.232904322299968,0.09258130112183273
20.27022,11.258633655822246,0.09231044434326807
20.274312,11.288394756444308,0.09201095490736522
20.278396,11.31748008999123,0.09170960067563239
20.282488,11.347905540012903,0.09139013387421932
20.286532,11.379338931809523,0.09106323011922846
20.290628,11.403373138806176,0.09077260248809173
20.294724,11.42572363695274,0.09048457549924431
20.29882,11.447398368024164,0.09019285078432372
20.302852,11.46716794044563,0.08991324091237175
20.306944,11.484467312041927,0.08963655326817271
20.311024,11.501988133438095,0.08935293001827806
20.315112,11.519841129534072,0.08905851563753472
20.319204,11.536342591479762,0.08875544471348412
20.3233,11.552057561450374,0.08845140252723513
20.327392,11.565413055495755,0.0881447308288356
20.331492,11.571480089641106,0.08786840894038418
20.335584,11.575076922961294,0.08759290715192675
20.339684,11.578219439006208,0.08730520110473358
20.343768,11.57967824620103,0.08701967830650165
20.3478,11.57776963569568,0.08673864710137513
20.351888,11.57036699904032,0.08648094356660938
20.355972,11.558589002909839,0.08623516990012613
20.360068,11.542214197504363,0.0860082507041843
20.364156,11.520566815748753,0.08579492807191083
20.36824,11.497789349642726,0.08556312846939035
20.372324,11.479265100436354,0.08529468798779735
20.376412,11.463088909479682,0.08499985571409596
20.380456,11.445229009672921,0.08470632817554807
20.384528,11.424898909040996,0.08441284556681342
20.38856,11.401090665808956,0.0841256365951279
20.392644,11.373804279976806,0.08384523936281077
20.396724,11.340913143094712,0.0835890230960357
20.400808,11.308022006212619,0.0833314798744378
20.404852,11.27344716048044,0.08307410922552849
20.40888,11.244698515598067,0.08278272763758196
20.41296,11.222673288440518,0.08245502176787355
20.417044,11.204569103482822,0.08210295795774289
20.421072,11.182765326125141,0.08176460449060664
20.425152,11.16118299856733,0.08141694564473734
20.4292,11.140497887884532,0.08106501046886702
20.433228,11.119137010126591,0.08070618868015018
20.437264,11.093068598193721,0.08036684042479987
20.441352,11.068229577835668,0.080010955630263
20.44544,11.044398499252562,0.07964612455788188
20.449528,11.019116579294769,0.07930251402174625
20.453568,10.993834659336976,0.07895808112356864
20.45766,10.967655522504172,0.07861516745376079
20.461748,10.942373602546382,0.07826844203182175
20.46584,10.921799216763517,0.07790022091498557
20.469928,10.905710915355709,0.07751792062781344
20.47398,10.889622613947909,0.07713374432886008
20.478072,10.879360513389912,0.0767172234178616
20.482164,10.86697180438209,0.07631656919158351
20.486252,10.860974338399283,0.0758946444668494
20.49034,10.850047888441681,0.07550132855572092
20.494436,10.832508745659192,0.07513610580433383
20.498528,10.813850936201822,0.07478065790744214
20.502624,10.800687152894458,0.0744067998168629
20.506712,10.791112237087141,0.07402398011169536
20.510744,10.78433969680479,0.0736303496598052
20.514844,10.782053240897504,0.07322590141813423
20.518828,10.78694451999031,0.07280338594990055
20.522908,10.794084550108412,0.07239094262488577
20.526992,10.803584056151747,0.07198391509383673
20.53104,10.818688313245021,0.07155713502261854
20.535124,10.831444512088595,0.07115467328417348
20.539208,10.8436470864325,0.07077241919550382
20.543288,10.85674687765141,0.07038869848768099
20.547372,10.866822843545485,0.07002408216268814
20.551452,10.879590460064595,0.06965550640958207
20.555544,10.89942508668386,0.06927751781652619
20.559628,10.918927538603326,0.06891330173186273
20.563708,10.94403474157273,0.06853134337376106
20.567792,10.966228844117229,0.06816481111307537
20.571872,10.991114597286762,0.06779372811694331
20.575952,11.019257043256541,0.06742689968818572
20.580032,11.04975896515155,0.06706812485311008
20.584116,11.078023553696795,0.06673017911659124
20.588204,11.105058750667224,0.06640771068386997
20.592292,11.129745889387955,0.06610880754559254
20.59638,11.152195694758921,0.06583004049652084
20.600464,11.17666138367978,0.06554312086651316
20.604556,11.201127072600643,0.06525740068654623
20.60864,11.225592761521503,0.06497235313340449
20.612724,11.246923900217588,0.06470837779427062
20.616816,11.274081239763486,0.06442194897480914
20.620904,11.305159621509235,0.06411992478340592
20.624988,11.337810987205138,0.06382440123363615
20.629064,11.372256786651064,0.06352731870036224
20.633148,11.40479742744703,0.0632389817988228
20.637228,11.42926311636789,0.06296338443744491
20.641312,11.451037154663718,0.0626921240709267
20.645388,11.468103658784614,0.06243543658338091
20.64948,11.486178104680459,0.06217477610496411
20.653564,11.50055295817632,0.06192265211714741
20.657648,11.514473494396908,0.06165694844872107
20.661732,11.52524806271719,0.061381382835756435
20.665804,11.537252022612286,0.06109421253297575
20.669888,11.549477432307254,0.06080062693636683
20.67398,11.564161625151854,0.060483260975620276
20.678064,11.578059326021378,0.060163355435569346
20.682152,11.586352275840962,0.05985811486741745
20.686236,11.591056358160497,0.05955665695424505
20.690332,11.598673540904937,0.05924604425787838
20.694416,11.607963014823932,0.05890956026956334
20.698508,11.614339388318022,0.05858499699786761
20.702596,11.617913386287142,0.05826787007955821
20.706688,11.616214807906127,0.05795195847447565
20.710768,11.611713854000142,0.057642071801743335
20.71486,11.605307741444197,0.057337518822830294
20.718952,11.603498438163244,0.05702483402935054
20.723036,11.604270060607396,0.05671341944712443
20.727124,11.607844058576518,0.05639613442860843
20.731212,11.6083942312208,0.056091929971356674
20.735304,11.612533271365127,0.055784600451308834
20.739396,11.621379845684384,0.05546790980683475
20.743484,11.629672795503968,0.05516869146264634
20.74758,11.63706852844854,0.054870878955420484
20.751668,11.643567044518099,0.05457440986396382
20.755764,11.648725444112905,0.0542935587212727
20.75986,11.65320807663257,0.05400576785172776
20.763952,11.657469259352366,0.0537245166404359
20.768048,11.665651484272013,0.05343035412793811
20.772144,11.668339683041657,0.053143181883411064
20.776244,11.668790548461534,0.05287165707448618
20.780336,11.66273944595646,0.05260948375128737
20.784436,11.654893909701364,0.05234778881667447
20.788528,11.64772414052141,0.052091501490491
20.79262,11.639657154466443,0.05183462832985431
20.796716,11.63001718446132,0.05157045010973878
20.800808,11.615558955381337,0.05131823553178121
20.804904,11.594709483276333,0.05107091691417148
20.808992,11.570160418771348,0.05082781332299685
20.813084,11.542808978741393,0.05058782236491784
20.81718,11.509963512561432,0.05035219671843641
20.821264,11.467481528231746,0.05014022612649392
20.825352,11.42533171860186,0.049916010801441354
20.82944,11.374331882797327,0.04971805252899409
20.833532,11.315600687493024,0.04953865900710028
20.83762,11.252272682913723,0.04936255114160469
20.841712,11.183118477484618,0.04920024490141192
20.8458,11.110375404555462,0.04903687501409584
20.849892,11.029790247226604,0.04889562454803268
20.85398,10.947078481447917,0.04876401832061519
20.858072,10.85551668949458,0.048659655613082345
20.862164,10.763733447741373,0.048561581050303934
20.866252,10.664108121588463,0.04848704554110041
20.870288,10.56246691188566,0.048419672464529
20.874388,10.459707035507972,0.04835862795121138
20.878476,10.35459910088059,0.04831573575683161
20.882512,10.249380441353269,0.04827548383872343
20.886612,10.14584549067604,0.04823760241172868
20.890708,10.037492280923948,0.048211203970678414
20.8948,9.927233912521896,0.04818863568723589
20.898896,9.816975544119844,0.048164124603757186
20.902896,9.703582625493013,0.04815787394103165
20.906932,9.586268664666335,0.04816250208709192
20.911024,9.472875746039506,0.04815436734035254
20.915076,9.361055811362833,0.04815598677887401
20.919104,9.247109268236335,0.04817094296341603
20.9231,9.136640867709945,0.04818974617873485
20.927084,9.024832350708806,0.04822747706220917
20.931112,8.91291310880773,0.04827120887488264
20.935196,8.799875200231773,0.04832519509108766
20.93928,8.69557659293053,0.048350114889216755
20.943368,8.593183144279248,0.04836980118055533
20.947452,8.49650517157784,0.04837510938970547
20.951532,8.399040706901355,0.04837530385311832
20.955612,8.297765924924953,0.048386261800842635
20.959708,8.19469670919853,0.048397874099685795
20.963688,8.089722334822147,0.04841457674956405
20.967744,7.981945584920791,0.04843665524017617
20.971776,7.879662861169443,0.048452355204042036
20.975864,7.781190454718012,0.04845590585043179
20.9799,7.680480714916818,0.048481494396058616
20.983988,7.58312697514027,0.04847453982866443
20.98808,7.483646626913893,0.04848544839119055
20.992168,7.384055553787581,0.04850157965410573
20.99626,7.28300222161105,0.048502149422052145
21.000348,7.181162397459441,0.04849820411077418
21.004436,7.0765201977828625,0.04850183884637284
