Time,Force,Position
16.444036,0.037441947679229634,0.0
16.44812,0.039900730828862516,0.0
16.452195999999997,0.0468455983535545,0.0
16.456276,0.054466232953388566,0.0
16.460359999999998,0.06478990853914719,0.0
16.464443999999997,0.07478140942510121,0.0
16.468528000000003,0.08185980988615002,0.0
16.472616,0.08793026857225213,0.0
16.476708,0.09489794413336607,0.0
16.480811999999997,0.10074695301959843,0.0
16.484896000000003,0.10345002132016676,0.0
16.488984,0.10626381452066994,0.0
16.493011999999997,0.1118799832461435,0.0
16.497044,0.12232580140736983,0.0
16.501119999999997,0.13221799506892185,0.0
16.505156000000003,0.1400943324952242,0.0
16.509240000000002,0.15010869604688767,0.0
16.513327999999998,0.15980230257427938,0.0
16.517356000000003,0.17489062802727492,0.0
16.521448000000003,0.18866167235658482,0.0
16.525532000000002,0.21647884733734496,0.0
16.529619999999998,0.24749907859607723,0.0
16.533708,0.2948484445581543,0.008479688094343425
16.537744,0.3581947705237715,0.016947394821753718
16.541832000000003,0.43339556449320726,0.025727494688168276
16.545916000000002,0.5323246779659522,0.03403180246142459
16.55,0.65677654469203,0.04204671295038397
16.554084,0.8003599216464227,0.05002069341595063
16.558172000000003,0.9655450096542962,0.05783248650566381
16.562256,1.1521103589157813,0.06562426948428172
16.56634,1.359380202355735,0.07340823574294209
16.570428000000003,1.584109264849448,0.08122031739320247
16.574471999999997,1.8280919801469437,0.08899750305964564
16.578508000000003,2.0853800048229445,0.09681580552791783
16.582607999999997,2.363483248577349,0.10462028096091504
16.586704,2.663741827884909,0.11235564456687164
16.590799999999998,2.9797644997206065,0.12008921478853804
16.594896000000002,3.310642629533898,0.1278400836765673
16.598992,3.6520008578496577,0.1356054420429915
16.603088000000003,4.012223475891733,0.14327610000169996
16.607184,4.368979369009229,0.15098421062138764
16.611292000000002,4.734440310374842,0.15857507461902684
16.615391999999996,5.086718084937418,0.15766087591383895
16.619483999999996,5.42524765052175,0.15673870910041068
16.62358,5.755511615602312,0.1554306119818843
16.627675999999997,6.0631659278544445,0.1545935712825477
16.631776,6.349783571228302,0.15403650996338114
16.635868,6.623218047799126,0.15348018537150201
16.639968,6.874718638616663,0.15309382952947703
16.644063999999997,7.108870735280376,0.15268322506978785
16.648152,7.325685755465797,0.15227764922845508
16.652252,7.527733207222493,0.15179614696652655
16.656352000000002,7.709629789300396,0.15133320538830397
16.660444000000002,7.876537353149705,0.15080268160354174
16.66454,8.021721063370064,0.1502884245208612
16.668636000000003,8.143165036411585,0.14983971575594468
16.672735999999997,8.243450197999362,0.14940556259142748
16.676827999999997,8.330430050208632,0.1488992969068417
16.680924,8.402875201464582,0.1483504882170597
16.685024000000002,8.458670460992913,0.14785454597918793
16.689116000000002,8.50892602366911,0.1472798714937765
16.693212,8.543008847244025,0.14683415061264965
16.697312,8.572815618568221,0.14639408409609986
16.701407999999997,8.599022104716834,0.1459601235914033
16.705443999999996,8.618161580765289,0.1456074684043996
16.709532,8.634155088913436,0.14527130704862956
16.713624,8.647002629161276,0.1449524738904915
16.717712000000002,8.652661016733486,0.14467978195730774
16.721804000000002,8.65819726173023,0.1443752342676785
16.725883999999997,8.657563713501824,0.14413693683218665
16.729968000000003,8.6578159644729,0.14385120803759713
16.734052000000002,8.652009147118761,0.14362508409548042
16.738131999999997,8.644961520514274,0.14338896288054656
16.742216000000003,8.636451634859565,0.14315512939238473
16.7463,8.629957632754754,0.14288870472376822
16.750384,8.621669196899918,0.14264114557461008
16.754468,8.612483544170068,0.14240247759048008
16.758504,8.597914590190147,0.1422243027912056
16.762584,8.578073059860092,0.14210037374261592
16.766659999999998,8.554077619854782,0.14200765912840038
16.77074,8.52492032839927,0.14196212406835743
16.774815999999998,8.4987868622686,0.14186727962937873
16.778844000000003,8.470637512588036,0.14180419853094697
16.782892,8.44159094603246,0.14175042835180787
16.786980000000003,8.414560263026774,0.1416636535814177
16.791072000000003,8.393920823046109,0.1414993957034206
16.79516,8.37126549951555,0.14136777078721066
16.799204,8.350293884835079,0.1412215450787751
16.803284,8.32719566170478,0.14111359749296143
16.807315999999997,8.308472798049605,0.14096077776489516
16.811392,8.28863126771955,0.14082914604938515
16.815476,8.276188922189458,0.1406047443326629
16.81956,8.260058401934918,0.1404650437203241
16.823635999999997,8.243595706980573,0.14034327122733053
16.827720000000003,8.230500429726407,0.14019335659175094
16.831756000000002,8.22536937944741,0.1399613713097547
16.835787999999997,8.226408122393561,0.13966719815720674
16.839884,8.228909124389931,0.13937071745323698
16.843976,8.238366411586528,0.13900796926536274
16.848068,8.249961724908484,0.13864658812584393
16.852168000000002,8.262011355505713,0.13829785125708036
16.856264,8.274183128678409,0.1379834182520841
16.860359999999996,8.289611594651348,0.13764767458734237
16.864456,8.30829675342453,0.13729209726205735
16.868551999999998,8.326539012597971,0.13696175637642446
16.872648,8.33996301269655,0.1367003550522013
16.876744,8.359888980720083,0.13635922482642793
16.880840000000003,8.379372049143873,0.13604172501809556
16.884936,8.399641609542742,0.1357191278524293
16.889039999999998,8.421705603691633,0.1353804201477019
16.893128,8.44041359781588,0.13510655582777922
16.897228000000002,8.454081883065395,0.1349136676855917
16.901284,8.476600194489562,0.13459397558169767
16.905372000000003,8.500912939663749,0.1342570806664714
16.909468,8.52141536753802,0.1339726689963817
16.913556000000003,8.534075711012589,0.13379902276919275
16.917644,8.548309038437312,0.1336218322585368
16.921736,8.567814942212168,0.13339808993541713
16.925824000000002,8.586091454412207,0.13320308982526907
16.929911999999998,8.605043733687392,0.1330117670701336
16.934003999999998,8.634308298187443,0.13270501016928024
16.938092,8.665367296437521,0.13238290324723967
16.942184,8.70102310396259,0.13201709935182646
16.946276,8.738141170537881,0.13165539688873104
16.950371999999998,8.78165048013819,0.1312350709171528
16.954468000000002,8.827519265663726,0.13080713002244665
16.958552,8.87305587648946,0.13040133383987704
16.962644,8.922967846790316,0.12996159421049744
16.966728,8.980279001891137,0.12945199916122963
16.970812,9.036139315617273,0.12898255360739144
16.974908000000003,9.097936555093154,0.12843906814700837
16.979000000000003,9.159401619869229,0.12791076190301381
16.983088,9.216502742845714,0.1274590841848961
16.98718,9.274279632897342,0.12701501982252314
16.991268,9.332510840224241,0.12658491538790667
16.995355999999997,9.398362682150974,0.126071480193652
16.999444,9.460625656577658,0.12559533598530548
17.003528,9.51829182172935,0.12516733232303054
17.00762,9.577973870430938,0.12471879296796813
17.011708000000002,9.637090876957314,0.12426425511912713
17.015804,9.686571365333966,0.12392309984617131
17.019892000000002,9.735376086635476,0.12358236389106662
17.023979999999998,9.775773681362072,0.12332445442786319
17.028071999999998,9.815827683713332,0.12305205135494218
17.032168000000002,9.846798792414539,0.12285824209972827
17.036255999999998,9.87720485894054,0.1226572378548222
17.040352000000002,9.906037941516384,0.12246172574668998
17.044444000000002,9.93273299796687,0.12226390346828848
17.04854,9.950234435867365,0.1221466471631035
17.05264,9.965597847642501,0.12202503891543733
17.056735999999997,9.97726166701766,0.12193673858660024
17.060827999999997,9.990487052667431,0.12181192047950547
17.064924,10.004376787716817,0.12165767500891309
17.06902,10.016914988615916,0.12149813781587168
17.073116000000002,10.031125480689575,0.12129817386080816
17.077212,10.04017412131303,0.12112939991665639
17.081312,10.04764977798633,0.1209641003600187
17.085407999999997,10.055679059159306,0.12077445801906521
17.089504,10.055633388457176,0.12064378669139322
17.0936,10.052109575154933,0.12053429419314539
17.097696000000003,10.050036603227376,0.12039357113405287
17.101792,10.047509314024545,0.1202401563127854
17.105884,10.046432866196401,0.12005498893937303
17.109984,10.040759609093264,0.11990759551191413
17.114076,10.0382209022149,0.11972057581718366
17.118176000000002,10.032425502536293,0.1195446801726849
17.122263999999998,10.025954335782545,0.119365547886833
17.126364,10.016902243303695,0.11920074578134628
17.130460000000003,10.011992642824568,0.11898514047311617
17.134556,10.008090984120388,0.11875799143889067
17.138588000000002,10.003513558341064,0.1185273115386174
17.142680000000002,9.997252423711652,0.11830458453368123
17.146764,9.986394479807245,0.11811840536299192
17.150851999999997,9.973742102152817,0.11794482311028782
17.15494,9.957390132098405,0.11780128985524402
17.159028000000003,9.942832595794018,0.11764470843785914
17.163116,9.929283001264578,0.11747659361001013
17.167151999999998,9.917417115585224,0.1173006401754193
17.171235999999997,9.915863515130741,0.11703667841941236
17.175324,9.919128173751124,0.11672706565424296
17.179412000000003,9.924297991021465,0.11640126699089563
17.183504000000003,9.92633325806703,0.11611326127061791
17.1876,9.934759768137612,0.11577914641025412
17.191695999999997,9.943186278208191,0.11544394281978383
17.195792,9.95520165577882,0.11508675626720291
17.199879999999997,9.971481667924639,0.11470946736772715
17.203968,9.989999013420222,0.11430322363012939
17.208052,10.012891718390929,0.11387377444131984
17.212084,10.03735740731179,0.11344551035684042
17.216164000000003,10.06372825488261,0.11300316791688275
17.220144,10.090209827353362,0.11255620350543076
17.224231999999997,10.118375108674204,0.11210376927835079
17.228316000000003,10.15494751656996,0.11158797218618648
17.232400000000002,10.191519924465716,0.11107221419764338
17.236479999999997,10.23369708341141,0.11051646259716104
17.240564000000003,10.278898067681947,0.10993591700418825
17.244643999999997,10.327012152377387,0.10933401330057704
17.248724,10.372545311347727,0.10874648764234282
17.252807999999998,10.409671343743156,0.10822515557534389
17.256891999999997,10.44366282591381,0.1077401724737564
17.260920000000002,10.471938832134587,0.1073006525651875
17.264996,10.506151764105109,0.10680889445798449
17.269071999999998,10.534870669925628,0.10635659016115094
17.27316,10.567399893046062,0.10587557713389711
17.277244,10.596118798866579,0.10542745349988056
17.281332000000003,10.62124883718705,0.10500029015196614
17.285416,10.644030817257823,0.10460809899766663
17.289512,10.662105263153666,0.1042508183201299
17.2936,10.677266608624603,0.10391894272321181
17.297687999999997,10.690522795445583,0.10360270545886585
17.301768,10.709162283516632,0.10325958765417043
17.305848,10.728698988462694,0.10291349710310944
17.309935999999997,10.742520217458882,0.10261120150186454
17.314024,10.75813588020509,0.10230007631249367
17.318112000000003,10.768822558976506,0.10203121283221285
17.322204000000003,10.773683036898106,0.10180841549500902
17.326292,10.771930821994822,0.10163069913235279
17.330388000000003,10.770854374166678,0.10145711104378877
17.334480000000003,10.773477518738517,0.1012608126441785
17.338576,10.778227271760182,0.10104253983959545
17.342671999999997,10.789700442506671,0.10077536871615812
17.346763999999997,10.795458137303285,0.10054912594112887
17.35086,10.800318615224885,0.10032696720629591
17.354955999999998,10.802376717621515,0.10012287122596546
17.359052000000002,10.804656269818016,0.09991026649718487
17.363148,10.812762022864327,0.09965496550886994
17.36724,10.819970559035628,0.0994039810999231
17.371336000000003,10.833226745856608,0.09910233518519337
17.375432,10.846139340302251,0.0987836781986906
17.379527999999997,10.858265442772815,0.098465226527908
17.383624,10.866016185768258,0.09816560784548099
17.387719999999998,10.869391569288574,0.09788259309932115
17.391816000000002,10.873099127508693,0.09758654076798688
17.395912,10.87713886042862,0.09727861085143212
17.400012,10.880724276073275,0.09695715350059207
17.404107999999997,10.883412474842915,0.09663858507554982
17.408204,10.892824091337383,0.09627443305147551
17.4123,10.904362316281672,0.09589058522874569
17.416392,10.912533123525787,0.09551422010730691
17.420488000000002,10.921822597444784,0.09512711373691414
17.424584,10.928531145638681,0.09474934149907675
17.428679999999996,10.93535041873251,0.09436644304096815
17.432776,10.947209400701075,0.09394423570457602
17.436871999999997,10.961194991119465,0.09350253686638688
17.440968,10.975623481137596,0.09304518054585716
17.445055999999997,10.983550003230778,0.09262371532361853
17.449091999999997,10.98900632449879,0.09220358891936412
17.45318,10.985944794291958,0.09183377763833751
17.457268000000003,10.982772539185191,0.09146786541406181
17.461356,10.980829675653244,0.09108572215605447
17.465444,10.980005478796171,0.09069231967965279
17.469536,10.981983657464072,0.09028342893363589
17.47362,10.983961836131973,0.0898743443386349
17.477704,10.980224538849999,0.08949802761967546
17.481792000000002,10.977384458443035,0.08911755928868921
17.485884000000002,10.973868610960933,0.08873019787825187
17.48998,10.963850795553876,0.08837557397001368
17.494076000000003,10.948449678896749,0.08804110459829338
17.498172,10.934842995989644,0.08769859498523035
17.502211999999997,10.917647445582492,0.08736942235038689
17.5063,10.897538794750435,0.08705777982129129
17.510395999999997,10.877430143918378,0.08674497837887754
17.51438,10.851384567336575,0.08647260883494592
17.518468000000002,10.826236207629785,0.08619654971535366
17.522516,10.798739789673297,0.08594680882925139
17.5266,10.772251313491754,0.08568829601761492
17.530683999999997,10.750470371485141,0.08540424520980278
17.534719999999997,10.733286238753525,0.0850987652075781
17.538804000000003,10.71688859799698,0.08479380534900752
17.542888,10.698253623890675,0.08451121387939478
17.546975999999997,10.673681724034624,0.08426731469880781
17.551060000000003,10.648212607303561,0.0840256559419013
17.555139999999998,10.624537924322524,0.08377714819916074
17.559216000000003,10.608373151041386,0.08349093535230463
17.563295999999998,10.595121478185153,0.08318720602276465
17.567376,10.587474556378858,0.08285676684448767
17.57146,10.586329602497518,0.08249731751532435
17.57554,10.588662791216288,0.08212953484256072
17.579624,10.595703514109989,0.08174066980361339
17.583704,10.60252278720382,0.08135945712025666
17.58778,10.613938869572646,0.08096030798316281
17.591868,10.628268052366375,0.0805449929619093
17.595952,10.646407552460019,0.08011033580799687
17.600044,10.65883157660379,0.07970478572509766
17.604119999999998,10.67405797627253,0.07928720865821896
17.608216000000002,10.690070867916347,0.07887087145207734
17.612295999999997,10.70597303466023,0.07846062033250828
17.616324000000002,10.727701402253922,0.07802197781058559
17.620408,10.751445653397509,0.07757217020567768
17.624488000000003,10.778103004965999,0.0771072984915787
17.628567999999998,10.808570673834405,0.07662233679814236
17.632659999999998,10.840832776452837,0.07613408093339653
17.63674,10.873094879071271,0.075648506944506
17.64082,10.901546664389786,0.0751833086201837
17.644900000000003,10.92887978303342,0.07473174386693847
17.648984000000002,10.959126002101955,0.07427040295064687
17.653063999999997,10.985672628770514,0.07382450539705616
17.657152,11.013559371913823,0.0733625735455744
17.661236,11.036627855982266,0.07292603003627693
17.665332000000003,11.062387990675745,0.07248384303940099
17.669428,11.087472358294082,0.07203863529988903
17.673523999999997,11.114351159662442,0.0715926721200743
17.67762,11.14134068593074,0.07114512811606029
17.681712,11.173259196173834,0.07067248630977088
17.685807999999998,11.205509881116734,0.07019074015110756
17.689896,11.24459470868439,0.06968107794908024
17.693991999999998,11.279979943852068,0.06918323343580252
17.69808,11.30695805244483,0.06871624701366638
17.702172,11.327544918012578,0.06826538709138251
17.706259999999997,11.348242508480261,0.06781272119477368
17.710348,11.371066707397771,0.06734654472734691
17.714436000000003,11.393215139240139,0.06687619369048145
17.71852,11.414687804007364,0.06640162419705899
17.722612,11.437279135449472,0.06591869784104529
17.726704,11.458297482941424,0.06543262475572946
17.730791999999997,11.47292458740836,0.06496332191000383
17.734848000000003,11.486654475000284,0.06449520020990018
17.738944,11.499265695917327,0.06403761570135154
17.743039999999997,11.51231981643411,0.06356527276896264
17.747131999999997,11.525030344575553,0.06307701055837157
17.751228,11.532136121667058,0.06260323790775225
17.755323999999998,11.534977264183372,0.06212935567967123
17.759420000000002,11.535237480974587,0.06165557602893815
17.763507999999998,11.532695322240828,0.06118912797383358
17.767599999999998,11.52645357110709,0.06073049849891714
17.771691999999998,11.509788809848546,0.06030253040639425
17.775788000000002,11.49737726548966,0.05984752101335325
17.779819999999997,11.485076446030707,0.059386760700335654
17.783908,11.478491102521634,0.05890782262042052
17.787992,11.47022205016247,0.05842732049712201
17.792084,11.46015856405328,0.05794882659424461
17.796172000000002,11.448300644194068,0.057471441201990076
17.800256,11.435545507459844,0.05699458561727202
17.804295999999997,11.42020944500052,0.056515257709763934
17.808384,11.403754715866311,0.05604287929012133
17.812416000000002,11.386070595157289,0.05558037414917491
17.816399999999998,11.368607924248137,0.055108907850549525
17.820400000000003,11.347445660939002,0.05464207023220854
17.824504,11.325054006055051,0.05418553905649507
17.828476,11.300314292921401,0.053747520178363845
17.832476000000003,11.278155505512853,0.05330891914912804
17.836412,11.253759384754543,0.052883794256331385
17.840352,11.22633943867139,0.05246853329142354
17.844336000000002,11.197800825913358,0.05205907483624539
17.848372,11.166238387830482,0.051658776281558315
17.852411999999998,11.136581108397566,0.051250775013113335
17.856464,11.099646786740156,0.05087713917284381
17.860491999999997,11.061593798407861,0.05050847701882336
17.864583999999997,11.017382434525953,0.05016631288733207
17.868636,10.963645277394253,0.04984184193807687
17.87262,10.903971194512808,0.04953473405934247
17.876656,10.83903595295676,0.049252547686080964
17.88074,10.764242743451113,0.04900003138657977
17.884792,10.685196317045811,0.048768019011094135
17.888876,10.59741058936579,0.04855820683725835
17.892951999999998,10.504695877710974,0.0483623442452047
17.897032,10.406830732281486,0.04818751071285051
17.901124,10.30482309485228,0.048030258250496886
17.905212000000002,10.195870589898378,0.04789588068964703
17.909291999999997,10.080305392119591,0.047771520782629924
17.91338,9.958016776615981,0.04766185989981965
17.917464,9.83068845223764,0.047571506866734475
17.921552000000002,9.705830328684462,0.047485728271665556
17.925636,9.576043221156487,0.04741477069682666
17.929723999999997,9.444915997153759,0.04735967115119132
17.933752000000002,9.308638339376365,0.04732878207695294
17.937836,9.177068215773897,0.047285891736008986
17.941916000000003,9.041244875271774,0.04726879536061534
17.945992,8.901611217469735,0.04726095947705691
17.950024000000003,8.768823119967985,0.047266204925823826
17.954112,8.640521106841293,0.04726861250839911
17.958195999999997,8.513116310589615,0.047271068140061975
17.962292,8.39422936581278,0.04725267592782959
17.966384,8.276128913011025,0.0472382715697458
17.97048,8.164419703234287,0.04721931745831872
17.974572,8.055402144082583,0.047200092298883174
17.978664,7.947171076905957,0.04718504628812743
17.982752,7.841631660354368,0.04716978370537514
17.98678,7.738894619327748,0.047149657611291584
17.990868000000003,7.637730562251282,0.047139940549368146
17.994964,7.5419498064248875,0.04713005693708598
17.999059999999997,7.451884526548368,0.047102753834883306
18.003156,7.354198612072015,0.04709750677986767
18.007251999999998,7.258307131345684,0.04709216915210074
18.011348,7.162637100419224,0.0470750903575334
