Time,Force,Position
17.458516,1.3167605600897223,0.07829480118250055
17.462611999999996,1.5625605444883075,0.0862218891784203
17.466739999999998,1.8277249065906105,0.09413582668144485
17.470828,2.112696545996371,0.1020279249631655
17.474915999999997,2.419380621355547,0.10988612352191104
17.479004,2.7439668153682217,0.11773783912329387
17.483091999999996,3.0919377365088687,0.125496424582822
17.487188,3.4573450413522098,0.13320359008495916
17.491283999999997,3.835813370423119,0.1409013081553259
17.495375999999997,4.233268231795812,0.1485218704396438
17.499472,4.640592478793636,0.15607031165222135
17.503567999999998,5.062314414638386,0.16341030823316557
17.507656,5.463297603278068,0.1603602128386073
17.511751999999998,5.844672129063099,0.1579468534064839
17.515848000000002,6.200833240943533,0.15605661606636487
17.519944,6.527737754144057,0.15462221091337475
17.524039999999996,6.827878704840896,0.15362426578580143
17.528068,7.108212378234279,0.15273721062266618
17.532107999999997,7.372526256273057,0.15174049279509333
17.536211999999995,7.614096921232405,0.1507874590687533
17.540308,7.836192483588102,0.14989809480280705
17.544347999999996,8.038580075864743,0.149032948922419
17.548447999999997,8.220251756287382,0.14817316519852913
17.552488,8.382448334106368,0.14732949249529834
17.55658,8.52045085747124,0.14652865372857474
17.560675999999997,8.638291093481785,0.1456976119602433
17.564776,8.729478491888582,0.1449743079872298
17.568823999999996,8.799850671216973,0.1442944845778023
17.57288,8.853107223866946,0.14360089590830294
17.576984,8.886457191989056,0.14297287408061599
17.580967999999995,8.903168686059084,0.14241477956150242
17.585059999999995,8.900129991203318,0.14204909474128247
17.589147999999998,8.891387238073209,0.14179549252427492
17.593236,8.878944892543117,0.1415858045409331
17.597328,8.865494605238077,0.14139069327805484
17.601423999999998,8.856763269783501,0.14117149804827003
17.605519999999995,8.850158542778752,0.14091512569039405
17.609611999999995,8.846909815798648,0.1405957931688794
17.613711999999996,8.838178480344071,0.1403769974700864
17.617811999999997,8.828328478214614,0.1401787840131987
17.621844,8.81578682546012,0.140009090307793
17.625936,8.801007839355865,0.13988116822032698
17.630028,8.789485546051852,0.13973285950489572
17.634128,8.784686670472661,0.13949718108359743
17.638159999999996,8.786733355193757,0.13920550266932988
17.642191999999998,8.792491049990373,0.1389098497475716
17.646275999999997,8.80408636331233,0.13857370753046924
17.650356,8.819835586309539,0.13821146887867047
17.6544,8.837833560332045,0.13784726391129057
17.65848,8.857404518304708,0.13747802464162814
17.662567999999997,8.880342893977545,0.13708628463742148
17.666656,8.909008163275793,0.13666469261183264
17.67074,8.944286125398927,0.1361653529892214
17.674823999999997,8.983496547397445,0.13565099094368752
17.678915999999997,9.031236238546343,0.13507527824190857
17.683004,9.080438188745461,0.13450417449867996
17.687096,9.129307964244772,0.13395280618133046
17.69118,9.173924522844427,0.13347291545144654
17.695263999999998,9.222240673844066,0.13295338892104283
17.699352,9.275497226494034,0.13240791745440916
17.703428,9.333239863519061,0.13182438408352973
17.707508,9.391547542719298,0.13124957821664582
17.711587999999995,9.449179454844392,0.13067835157489274
17.715616,9.496056182144876,0.13024452968269867
17.719695999999995,9.539122592145446,0.1298577735699418
17.723772,9.57949735152098,0.12949926692169028
17.727847999999998,9.619196343821368,0.12914197175910483
17.731931999999997,9.655306468621712,0.12881871242502071
17.73602,9.6898436094719,0.12850334048891646
17.740107999999996,9.722697041472,0.12819956221089998
17.744199999999996,9.755096156196828,0.1278861586784075
17.748284,9.780993302996702,0.12763788656425892
17.752376,9.806668999996708,0.12740315950366793
17.756463999999998,9.830550263246689,0.12718415154313786
17.760555999999998,9.852293500371308,0.12696577340081916
17.764636,9.868764161145794,0.12678616939178386
17.768728,9.886574938395029,0.1265803796440477
17.772815999999995,9.907852440568846,0.1263190872096634
17.776907999999995,9.9295728423424,0.12603983946574654
17.780944,9.951171101540487,0.1257362939019511
17.78504,9.97141782658829,0.12543012870852094
17.789079999999995,9.994344784585596,0.1250732249337998
17.793224,10.01659597550776,0.12471560035283007
17.797327999999997,10.04500554197954,0.12428227137432338
17.801424,10.07565244180108,0.12381781402890721
17.805528,10.103829140797457,0.12336393981625139
17.809623999999996,10.13043285584368,0.12291594765858456
17.81372,10.16050329581448,0.12241715004446113
17.817823999999998,10.190905910485087,0.12190649808943164
17.821919999999995,10.223656583405392,0.12136145820462897
17.826007999999998,10.25371560570066,0.1208381268735807
17.830103999999995,10.28836001959539,0.12024737901784499
17.834191999999998,10.31873979891493,0.11968059602819707
17.838283999999998,10.349673202734145,0.1190909238658467
17.842384,10.37500185550342,0.11855031771112144
17.846479999999996,10.40906980954741,0.11792829947923814
17.850576,10.437422287641525,0.11735762821316853
17.85468,10.463083115110603,0.11680932606816495
17.85878,10.489076117279485,0.11625134746057009
17.862875999999996,10.511369527048386,0.11572518256599512
17.866967999999996,10.528168910667283,0.11523968006409768
17.871064,10.540260760111249,0.1147947478661743
17.875156,10.547866525180154,0.11437868942023655
17.879251999999997,10.554685798273987,0.11396569782499166
17.883352,10.559932087417664,0.11355646634001776
17.887447999999996,10.569320868561062,0.11310212918642319
17.891539999999996,10.577136665754306,0.11264992187867959
17.895631999999996,10.579236986997673,0.11224611376801223
17.89972,10.578867107415876,0.11185009212566949
17.90382,10.574797635434095,0.11148116220362982
17.907915999999997,10.571736105227263,0.11110206610828266
17.912007999999997,10.566547966570603,0.11074841271166283
17.916104,10.564715827938587,0.11035127347454887
17.920199999999998,10.563105139106439,0.10994546380990414
17.924291999999998,10.563510333824185,0.10951886679980827
17.928388,10.55550840196702,0.10915457867913257
17.932475999999998,10.553554120759536,0.10873131714616344
17.936572,10.550702622677038,0.10831325152418499
17.940668,10.544040807294625,0.1079251096733185
17.944756,10.536481775037199,0.10754131252647972
17.948843999999998,10.533630276954701,0.10712221157312816
17.952932,10.534589096172123,0.10667419247049252
17.957019999999996,10.539247507789527,0.10620036113742223
17.961111999999996,10.542222210556844,0.10573280227928616
17.965203999999996,10.545086188424222,0.1052704164080567
17.969287999999995,10.546720774716785,0.10482831306778985
17.973379999999995,10.549928344959502,0.10438521565408475
17.977468,10.554033132077233,0.10393578654335595
17.981556,10.561394611995205,0.10348123825519293
17.98564,10.572344959413225,0.10300838850781747
17.989727999999996,10.582398089956232,0.10254078277015281
17.993819999999996,10.591443278724293,0.10208271888113915
17.997903999999995,10.596345975492632,0.1016658325565494
18.001995999999995,10.598114122036195,0.1012802102008719
18.006087999999995,10.602684644104732,0.10087724147840228
18.010119999999997,10.610057541698238,0.10045556905196819
18.014216,10.615414555741848,0.10005343980945977
18.018312,10.619985077810382,0.09965098729816516
18.0224,10.625342091853993,0.0992479657620399
18.026496,10.630477656097735,0.0988528835760174
18.030588,10.63460527856653,0.098467688614258
18.034683999999995,10.635033308635343,0.09810499926217581
18.03878,10.637366497354114,0.0977303585376465
18.042876,10.641383394922975,0.0973521240645073
18.046976,10.643605858741813,0.09698224106975441
18.051072,10.644820380785701,0.0966216676982549
18.05512,10.647042844604538,0.09625328041596526
18.059152,10.652067683948344,0.0958683028185943
18.063188,10.656195306417139,0.09548889431001611
18.067276,10.655615394711004,0.09513843683423504
18.071368,10.659853742079736,0.09475655190328688
18.075416,10.66229765569844,0.09438168928511532
18.0795,10.667211770142314,0.09400294743770904
18.083592,10.67784136053606,0.09358826629793095
18.08762,10.688249501129938,0.09318456780043623
18.091648,10.69955485859883,0.0927782638877188
18.09574,10.709741549392838,0.09238461764364754
18.099824,10.723295657887025,0.09198534488604289
18.10392,10.739762866806114,0.0915677737972449
18.107968,10.759032451250176,0.09113524893385953
18.112072,10.779985744544323,0.09070161809113729
18.116052,10.802622746688563,0.09026527778895622
18.12008,10.82324386528291,0.08984671967732008
18.124124,10.84285704210231,0.08943741564079456
18.128212,10.86594836152182,0.08901942085877763
18.132308,10.886348030316295,0.08861165230101835
18.136396,10.907755640885716,0.08819879889441803
18.140488,10.930171193230086,0.08778099190800863
18.144576,10.951800253599377,0.08736390340482685
18.14866,10.978247573043536,0.08691859307986984
18.152664,10.99696353298792,0.08652161444193526
18.156759999999995,11.021173519082312,0.08610219607689093
18.160808,11.047842288326338,0.08565384798665016
18.1649,11.07271662382034,0.08521520512717595
18.168987999999995,11.093215599839217,0.08478866025824938
18.173079999999995,11.112817358983083,0.0843667354604618
18.177164,11.134656451476712,0.08392365774465335
18.181196,11.154922560020188,0.08348044510564967
18.185288,11.171378351263746,0.08305818038391115
18.189371999999995,11.188277042107044,0.08262176611495825
18.19346,11.203713473900123,0.08218086240034837
18.197548,11.219371355493072,0.08173292958654275
18.201636,11.235139961985954,0.08128189651028345
18.20568,11.249335584528682,0.08082851811636055
18.209776,11.261061006246244,0.08037655970345799
18.213872,11.274802311513701,0.07991058454545312
18.217967999999995,11.28383608260623,0.0794663058244888
18.222064,11.290178203073724,0.07903107175401046
18.22616,11.29573383156614,0.07859477403679896
18.230252,11.297589867658576,0.07817317585927423
18.234352,11.303145496150991,0.07773656122076493
18.238448,11.3032070984934,0.07731931201065406
18.242544,11.297331775086064,0.07693629739416803
18.24664,11.287756859278746,0.07656647318899042
18.250736,11.278071218571494,0.07619898660123767
18.254836,11.266480419214282,0.07583969223792185
18.258935999999995,11.250968577657217,0.07550109777009167
18.263036,11.235456736100154,0.07516224495795926
18.267132,11.220055619443025,0.0748182660739808
18.271232,11.203314386311147,0.07449234994033045
18.275328,11.184446544729438,0.07418196356592223
18.27942,11.162665602722823,0.07388505250717244
18.28352,11.138082285191238,0.07359757882644996
18.287612,11.115071951609805,0.07331278583954733
18.291708,11.090832226453557,0.07304095677653408
18.295804,11.068841252322608,0.07277836881533763
18.2999,11.047526045266798,0.07252045338291567
18.303996,11.025878663511184,0.0722736375807566
18.308092,11.004907048830711,0.07203202134590816
18.312187999999995,10.984611201225384,0.0717954364878576
18.316284,10.964536803419925,0.07155045094093963
18.32038,10.945027447789672,0.07131433725054354
18.32448,10.93202006008437,0.07105606599903322
18.328572,10.922380090079248,0.07079743610989574
18.332668,10.918123421324195,0.07052726934231739
18.336764,10.915771911219103,0.07024904893561364
18.34086,10.9151041099641,0.06997028595016597
18.344956,10.910072366909503,0.06972606795127734
18.349056,10.90762154958001,0.06948015895106517
18.353148,10.901360414950599,0.06924885778966101
18.357244,10.893759163846438,0.06903447843193765
18.361284,10.8905332722174,0.0688148144427287
18.365372,10.888991089438452,0.06859491609411168
18.36942,10.885543748009544,0.06838234861868041
18.373508,10.884001565230594,0.06816196716642105
18.377548,10.879091964751465,0.06794066541784025
18.381636,10.876198247822233,0.06770757792383654
18.385672,10.874312472667947,0.0674686862858593
18.389656,10.868616380213743,0.06724392708133191
18.393704,10.86213379578446,0.06701631471686635
18.397739999999995,10.853413878005421,0.06680770899315656
18.40172,10.849844394001046,0.06656701412133281
18.405812,10.84156737582174,0.0663425786781325
18.409796,10.829480040342519,0.06613210871976462
18.41384,10.811898678713293,0.06593484064784652
18.417895999999995,10.792079983734304,0.06575609520242888
18.421992,10.774055722505338,0.06557397028799754
18.426044,10.761071170151103,0.06536372422810983
18.430072,10.747078676021921,0.06515893335805227
18.43418,10.738801657842618,0.06493279519907796
18.43822,10.735675073437982,0.06467521033214864
18.442312,10.7289596215333,0.06442347378283875
18.446396,10.726951703803543,0.06415738788964725
18.450488,10.725730278048864,0.06389332209453004
18.45458,10.722492968744296,0.0636396633445943
18.458624,10.720152876314737,0.06338413735335206
18.46272,10.718820725660125,0.06312368633065324
18.466768,10.714686199480543,0.06287063868788927
18.470852,10.716045699450966,0.06260548344330402
18.474904,10.72278850067146,0.06233343184063794
18.478948,10.730317793867032,0.06206354032752118
18.483032,10.735720478612775,0.061809461169734126
18.487068,10.74370408908362,0.061555732251544565
18.491152,10.756616683529263,0.061280405486320244
18.49524,10.775355478824714,0.060983151160898856
18.499327999999995,10.795434390594918,0.060668771827123685
18.503412,10.814837535289982,0.060348762592200886
18.507492,10.834462129784912,0.060022512725971505
18.511576,10.85531611585466,0.059684714794084284
18.515656,10.874264943274449,0.05935441347019868
18.519732,10.890189945369398,0.05903990044076267
18.523808,10.90813083101424,0.058715870967476755
18.527895999999995,10.919680473634065,0.05840333007159052
18.531976,10.9344753913786,0.05806971662169624
18.53606,10.95240485934791,0.05771845527178258
18.540148,10.972460935767046,0.057355050619738605
18.544228,10.99262773708612,0.05698960729647036
18.548316,11.01851001435507,0.05660900699661861
18.552392,11.044724466323824,0.05621942794564821
18.556484,11.06566634194244,0.05583212406438387
18.560572,11.090074942485638,0.05541758541147382
18.564664,11.112799834178745,0.05500168849655111
18.568744,11.134283916621506,0.054569230374499005
18.572828,11.1532977982391,0.05413274671851465
18.576916,11.16928785453185,0.05371139083890417
18.581,11.186175127699615,0.05329012824600871
18.58508,11.205078284417274,0.052862326172638224
18.58916,11.22196555758504,0.05244390336783628
18.593243999999995,11.233813121878072,0.05204586904738907
18.597316,11.242071818671057,0.05164877316920398
18.6014,11.249765473288832,0.051240500821467604
18.605492,11.254546027481704,0.050840280784502874
18.609576,11.260223798549587,0.05043855499556941
18.613652,11.257162268342752,0.05006090495651403
18.617728,11.25085546301121,0.04970271871384898
18.621811999999995,11.23659584838003,0.049371283002902194
18.625896,11.216399307999104,0.04905892023732449
18.629984,11.18678769926832,0.048762435359981024
18.634072,11.144737196862842,0.04849254288153943
18.638164,11.098544202457639,0.04824014298154519
18.642256,11.043279732077913,0.04802169185277745
18.646352,10.978489468448396,0.04782103413987491
18.65044,10.906643612394252,0.04764556384576642
18.654528,10.82964732256544,0.04749113214128841
18.658616,10.742338747511761,0.04735099167205893
18.662708,10.647188088058375,0.047233187407991
18.666796,10.536574709605453,0.04715419212939871
18.670888,10.417443479677686,0.047089593936517495
18.674968,10.294834107149805,0.04701897449469583
18.679056,10.170995343047109,0.04695784573675924
18.683148,10.040211711419719,0.04691833038450979
18.687235999999995,9.904609820717466,0.0468895057438724
18.691324,9.76138729541538,0.046875091025062494
18.695416,9.620069928763252,0.04685423633021218
18.699508,9.469780393361004,0.04683136303689139
18.703603999999995,9.319490857958757,0.04680809711230391
18.707695999999995,9.166509671931472,0.04678283273287974
18.711792,9.013307036104322,0.046764801198228845
18.715884,8.862231008726996,0.046731388973664516
18.71998,8.707676838749562,0.046691306608515434
18.724032,8.549644526172012,0.04664586544490314
18.728068,8.396209022869458,0.046593883643023526
18.732108,8.240868360916943,0.046546433451239766
18.736152,8.081717381664514,0.04650791562507714
18.740248,7.924250111262172,0.04647472654643222
18.74434,7.763304698259718,0.04643573633168706
18.748436,7.612671570482132,0.04637656592347887
18.752532,7.463722151554638,0.046322790489214866
18.756568,7.311748907302303,0.0462835246517426
18.760552,7.154170912000027,0.04625465571662218
18.764603999999995,6.996371466897883,0.04623982048416267
18.7687,6.836666863145777,0.04623204084417615
18.772792,6.68055112689372,0.04622410933798696
18.776768,6.52241950709177,0.04622580137864285
18.780852,6.367766029889931,0.04623262094449717
18.784936,6.212436785612951,0.04622198901255139
18.789016,6.053186499136119,0.046233372318208135
18.7931,5.889339403384292,0.046253639981619965
18.797184,5.72897045023258,0.04627567733321572
18.801264,5.570174481031019,0.0463136669023284
18.805268,5.414180887354431,0.04634217717075059
18.809348,5.254598426177793,0.04636524033107979
18.813431999999995,5.097929065426062,0.04637131329867829
18.817512,4.9421569215493415,0.04638210616376535
18.821592,4.788179211422645,0.04639849383495897
18.825676,4.638687585671009,0.04641530990883678
18.82976,4.482804716894354,0.04643722427537519
18.833844,4.326135356142623,0.046451714773480465
18.837928,4.174960021540896,0.04645972997290341
18.842008,4.024571178914247,0.04649081053359262
18.846088,3.8761982198374914,0.04650757536490128
18.850172,3.730627636285706,0.04651692942340354
18.854247999999995,3.581357460333939,0.04654462007417258
18.858332,3.4283876919821896,0.04659425272641064
18.86242,3.2801254578053696,0.0466026796766628
18.866516,3.130523107153798,0.046674286732640714
18.870612,2.9875334493271137,0.04670688333092408
18.874707999999995,2.8519429763003936,0.04670599681615364
18.878804,2.7132179530488982,0.046798011232842315
18.882892,2.577406030222308,0.046855137007790454
18.886984,2.4441750331208185,0.04692611254476691
18.891068,2.3152086705945183,0.047047234809989215
18.895156,2.189831175568267,0.04714851287142326
18.899248,2.0671453311670493,0.047285730353392987
18.903336,1.944348761865897,0.04751771425732129
18.90742,1.8243545680897157,0.04771805965284809
18.911512,1.7089571835885276,0.04539988905211556
18.915604,1.5990538252373458,0.04308371590057433
18.919692,1.4901584086611104,0.04076875218290482
18.923776,1.3878756849097627,0.038425083120483094
18.927868,1.2874981198083733,0.0360819285604476
18.931956,1.1898122053320195,0.033739343272255785
18.936052,1.096612375230725,0.031378851304288774
18.940148,1.0096930632545127,0.028996942123123606
18.94424,0.9187419841785142,0.026656871384419356
18.948336,0.8342928730274679,0.024271535779724317
18.952432,0.7543298462514808,0.021909052475321843
18.956524,0.6749318616507008,0.01957175250437835
18.960619999999995,0.6052811200995835,0.017151579291154802
18.964716,0.5382113042735664,0.014757161542212403
18.968808,0.47573829772254345,0.012359897680535577
18.972908,0.41639162982585776,0.009924684118404966
18.977004,0.35962588765427267,0.007521930798077092
18.9811,0.3083541716326934,0.005073903019852848
18.985136,0.2635844235360667,0.0025205008057873363
18.989224,0.2222928180395524,0.0
18.993312,0.18537657201816232,0.0
18.997404,0.15104125172187283,0.0
19.001488,0.12018407402569577,0.0
19.005576,0.09190782205461932,0.0
19.009664,0.0680069295586671,0.0
19.013756,0.04769490456276216,0.0
19.017783999999995,0.033217291987105275,0.0
19.021868,0.02243927181143054,0.0
19.025952,0.0201791031106017,0.0
19.030048,0.02161852680975503,0.0
19.034108,0.020034125184068278,0.0
19.038144,0.023378707533180124,0.0
19.042192,0.020564914332676924,0.0
19.046275999999995,0.020442771757209204,0.0
19.050308,0.01920196250685991,0.0
19.054344,0.02032884075217908,0.0
19.058371999999995,0.025044586497545544,0.0
19.06242,0.027855173592953485,0.0
19.06646,0.030665760688361427,0.0
19.070504,0.03146046423387598,0.0
19.074548,0.036065485079307576,0.0
19.078592,0.04067050592473916,0.0
19.082688,0.044267584995224055,0.0
19.086676,0.0476432142658392,0.0
19.090776,0.05191606041146618,0.0
19.094804,0.058094065207051675,0.0
19.098908,0.0621372499823713,0.0
