Time,Force,Position
19.476416,4.393210051808089,0.045345525626025174
19.480508,4.131001274504768,0.04521797846928744
19.484552,3.883025824626167,0.04497190048867644
19.488488,3.6405444008975723,0.044680448996666094
19.492488,3.4035570033189826,0.04432172062451941
19.496536,3.171952906990465,0.04391090683814436
19.500636,2.9474158207621066,0.043464507693452704
19.504684,2.726135427333991,0.04297030571803058
19.508668,2.510127610256011,0.04069977640849276
19.512652,2.301862570353333,0.03844279311036097
19.51674,2.102569699200773,0.03619158612738476
19.520832,1.9167350811733912,0.03394735144903198
19.524864,1.7418885154460202,0.03169037321151795
19.52884,1.5770220602437146,0.02942936539976406
19.532936,1.42034128181645,0.027174670928152338
19.537032,1.271624730364357,0.02493930406700616
19.54108,1.1412954160122404,0.022688950680771276
19.545116,1.0246458045851707,0.020447685087788808
19.549156,0.9166361872084147,0.0182004142278982
19.55324,0.8225391402321081,0.01596548223273308
19.55732,0.7382121716565294,0.013744874058483974
19.561404,0.662868789506602,0.011578383771618673
19.565484,0.5872160680079357,0.009515292579568523
19.569568,0.5278468105104828,0.007493410673921593
19.573656,0.4835544607904924,0.005540593526855679
19.577736,0.46388764744882316,0.011895328408187194
19.58182,0.46964428013608456,0.018172448803176117
19.5859,0.5088993107273831,0.024241388034607896
19.58998,0.5768344801478551,0.032085658609396536
19.59406,0.6778137301970919,0.03963423500427656
19.598144,0.8026434423251056,0.04722343747609166
19.602232,0.9420192730819733,0.05506396529861907
19.606324,1.1055891582929553,0.06292576479686475
19.610408,1.2936852726578563,0.07076585940161177
19.614496000000003,1.5061968912767412,0.07858824675435244
19.618524,1.7411081305997167,0.08644797567024168
19.622616,1.9948301231267358,0.09430107995690165
19.626708,2.264228318633023,0.10223756291131084
19.6308,2.563192452167963,0.11004979583655171
19.634896,2.880623746531609,0.11788242719963693
19.638932,3.2251393604232095,0.12560445570061582
19.642964,3.585308341943013,0.13333967471224878
19.647048,3.9738903417899882,0.14096663150088712
19.651136,4.377870006438699,0.1485168248464231
19.655232,4.7910318719618665,0.1559812640735135
19.659324,5.191919205232541,0.15518918175778096
19.66336,5.572544943924486,0.15453150440513974
19.667452,5.931336104087547,0.15413308444201163
19.671544,6.273443119496394,0.1536785503229338
19.675636,6.589118747101363,0.15351387798406774
19.679728,6.887900197827779,0.15329009102550903
19.683816,7.182226365350342,0.15270570289199567
19.687908,7.457176737493653,0.15207357941151112
19.692,7.710968298183224,0.15147442741666375
19.6961,7.948419306493917,0.15084023460140633
19.700192,8.169861937125537,0.15012614427632806
19.704288,8.36879422215313,0.14943156432012378
19.708388,8.554852679726427,0.14859146511321616
19.71248,8.713017490445626,0.14787726837966342
19.716516,8.85572754798543,0.14706876683681136
19.720604,8.971674043021547,0.14637772066789909
19.724688,9.07049349370371,0.145637547729923
19.72878,9.145363175082696,0.14500022847766758
19.732864,9.199761229758614,0.1444180637359474
19.736952,9.234496985057604,0.1439458949738545
19.74104,9.271901555630567,0.14338368462573506
19.74514,9.308851808928258,0.14280743555284864
19.749236,9.343774761000521,0.1422278005404728
19.753328,9.371519978072692,0.14172640867895028
19.757416,9.397581486294772,0.1412372416235812
19.761508,9.420497026616545,0.1407643710790858
19.765596,9.434551123088134,0.1403845789761464
19.769684,9.447597277784777,0.14002046491544584
19.773768,9.46803119960585,0.1395436508393863
19.777856,9.4815088362267,0.13912846674326212
19.78194,9.489038129422271,0.13875946668305308
19.786032,9.504077332317744,0.13830706574840976
19.790168,9.513843958863077,0.13790385757193058
19.794244,9.526412960933381,0.1374699430622147
19.798376,9.52934544485396,0.13715323271878288
19.802424,9.53317514564955,0.13682723016327486
19.806508,9.53487823799531,0.13653471724054864
19.810644,9.537699997015952,0.1362235130640664
19.814684,9.539181639561843,0.13594206147307702
19.818712,9.545149366482791,0.1356176230346113
19.822796,9.541480575254013,0.1354106858553162
19.826936,9.542408593300232,0.13515752219298838
19.831024,9.543569478821851,0.13492786189788733
19.835052,9.549892215793673,0.13465942949905954
19.839132,9.558685153590659,0.1343766701121565
19.843204,9.56994829221281,0.1340803218123886
19.84728,9.581665748110234,0.13379752343380602
19.851364,9.600893113707558,0.13343815259160044
19.855444,9.608025178005521,0.13323900716766582
19.859528,9.618524660003661,0.13301809643007165
19.863616,9.631272893027095,0.13279355760323455
19.8677,9.638305650100659,0.13263438459214533
19.871784,9.645006232474415,0.13249071051488667
19.875868,9.65137464014837,0.13236324757369738
19.87996,9.667047391272245,0.13214164081032115
19.884048,9.68361735927113,0.13191229826680562
19.888136,9.702092485919975,0.13166270685338496
19.89222,9.717765237043848,0.1314419666263298
19.896292000000003,9.734556654842606,0.13120291737087536
19.900372,9.754261173066267,0.13093291211429112
19.904452,9.777886733489781,0.13061612945226989
19.908532,9.797923426413245,0.1303327138895934
19.912612,9.819410960711398,0.13001686815401967
19.916696,9.834617976884466,0.1297540185497381
19.920772,9.851054384632356,0.12946969237354813
19.924852,9.866815025305101,0.12918404413965967
19.928928,9.88212134870257,0.1288861073567835
19.933008,9.887115386875172,0.1286918453061665
19.937092,9.90218884279724,0.12837375873016174
19.941176,9.915246415169419,0.1280804648762211
19.945272,9.930541320891356,0.127753550914159
19.949364,9.945049734638216,0.1274288281539802
19.953452,9.962360523910048,0.1270780026386435
19.95748,9.97989276298175,0.12671853620026297
19.96152,9.992606742978587,0.1264118024807996
19.965568,10.009020315375409,0.1260737427325752
19.969668,10.026109654847371,0.12574027911883298
19.973716,10.047685078694393,0.1253727697657399
19.977752,10.07475452869142,0.12496254874920269
19.981804,10.098910878263542,0.12458625340007455
19.985836,10.121837836260848,0.12423228366209911
19.989884,10.147345719983255,0.12386513065922537
19.99392,10.173418645880869,0.12350805135152265
19.998,10.20700148147838,0.12308421403983956
20.002084,10.239687100200882,0.12266992328429753
20.00618,10.272594168723252,0.12224837494772642
20.010272,10.303596078595666,0.12184450220087342
20.014372,10.337178914193178,0.12142431281439821
20.01846,10.361235956540899,0.12109463850621
20.022548,10.388427549113393,0.12072709096702317
20.026596,10.41539769188602,0.1203720049370069
20.030644,10.445170210183615,0.11999430278652506
20.034632,10.47426696140607,0.11961603997404645
20.038724,10.502355770853574,0.11925014810422002
20.042824,10.535262839375944,0.11884125705069608
20.046864,10.561667939973363,0.11848648377776119
20.050948,10.586500056620626,0.11813620947708091
20.055032,10.609759189317735,0.11779145481937095
20.059116,10.623713978564925,0.11752235949996169
20.063196,10.63587433406209,0.11726567003248722
20.067276,10.648588314058928,0.11698623125556402
20.071356,10.65412455905567,0.11675452003908462
20.075448,10.657301328127184,0.11652730113005223
20.079532,10.655881287923703,0.11633509042507585
20.083616,10.654571972620158,0.11613869761651649
20.087704,10.654270599091557,0.11593256568453371
20.091784,10.658000992662744,0.1156853752789046
20.095864,10.6643008942835,0.11539572836178315
20.099948,10.681023806029058,0.11502180887492074
20.104024000000003,10.700094776024315,0.11461785530512644
20.108108,10.717924936769222,0.1142044579216799
20.112192,10.732166230014082,0.11381367415174407
20.11628,10.743826597533843,0.11343525420277918
20.120368,10.75481119797846,0.11305347268674092
20.124456,10.756712904773027,0.1127301482824614
20.12854,10.761749161792364,0.11237208094408904
20.132624,10.766109651736562,0.11201058993542574
20.136704,10.767999940855596,0.11165645008257226
20.140796,10.773689129599012,0.11124033211580495
20.144884,10.779931942842099,0.11080164594739755
20.148968,10.785277539210176,0.11036857851592291
20.153052,10.795552119553054,0.10988955433111924
20.15714,10.806158874595734,0.10939717017604261
20.161232,10.818105746113167,0.108882073825944
20.165324,10.826463750130552,0.10838777121492921
20.169412,10.829327727997931,0.10792908994381802
20.173508,10.828492113465328,0.10749618194816601
20.177604,10.823059689657732,0.10709347424962788
20.181696,10.805741996675112,0.10676551794771523
20.185784,10.78281955264255,0.10647626656274903
20.189884,10.756984008185084,0.1062096218224167
20.193972,10.731591363327354,0.10592395165917148
20.19806,10.706985210444705,0.10563673944551458
20.202144,10.681814015386848,0.10533988416303858
20.206228,10.6624690211788,0.10499399168379489
20.210312,10.642448259895612,0.10464330197867185
20.2144,10.62253822351236,0.10428721223524634
20.218484,10.602406737329236,0.10393876198532737
20.222572,10.582508118621517,0.10361142999934939
20.226656,10.561490833238915,0.10329664180922594
20.230688,10.538789839006224,0.10298557816701454
20.234772,10.515080902998587,0.10268283603879456
20.238856,10.492047734066093,0.10238337461415384
20.242944,10.464982798033812,0.10211915811614773
20.247004,10.44004447045136,0.10183084031687653
20.2511,10.420035126843704,0.10150021367345956
20.255136,10.401820216986069,0.10115951631157347
20.259168000000003,10.387980666603564,0.10079987103934399
20.263256,10.384453401445928,0.10037157628979983
20.267256,10.38260984513838,0.09993838972932963
20.271296,10.384355156330878,0.0994869767325825
20.27538,10.387894901273398,0.09902669386561308
20.279476000000003,10.39266403779074,0.09854893649434643
20.283508,10.40091131690819,0.09805920421354818
20.287544,10.412968913325559,0.09754685093576629
20.291592,10.428726102142909,0.09701595125158934
20.295568,10.445269782935334,0.0964861270850647
20.299596,10.467639664577574,0.09591689071271015
20.303684,10.49303337154465,0.09532591753660878
20.307712,10.521118729136763,0.0947240547813223
20.311804,10.552682229328989,0.0941114430957146
20.315892,10.587158829946118,0.09348138950345894
20.319976,10.621856880363117,0.09284515128863408
20.32402,10.665294232054835,0.09215188525467173
20.328116,10.712209726346668,0.09145253952081354
20.332144,10.754872003738837,0.0907949514431723
20.336232000000003,10.799439439780969,0.09012975206391455
20.340268,10.842433891872947,0.08946760145184601
20.344356,10.88150730176507,0.08883807553164663
20.348444,10.92069143655713,0.08820671054030511
20.352536,10.962002179799017,0.0875613140537972
20.356616,11.003988690116048,0.08692424384291413
20.360712,11.046761692408154,0.08629158754371115
20.364804,11.08695376897516,0.08566813401239903
20.368892,11.120311702917409,0.08509111583624444
20.372988,11.148962102684731,0.08454110589802487
20.377076,11.180747052676827,0.08396937476164075
20.381164,11.207037976518919,0.08342341916210766
20.385256,11.22693765733599,0.08290363491902492
20.389348,11.245375079102843,0.08237911962398395
20.39344,11.265041892444511,0.0818426256113019
20.397536,11.28302499693609,0.08131049512013508
20.401632,11.301794593402748,0.08078161675788834
20.405728,11.31574593079454,0.08028201306973094
20.409824,11.328013559336247,0.07978662828198385
20.41392,11.346439563427568,0.07924936288050513
20.418016,11.359482266268813,0.07872771024068329
20.422116000000003,11.369722593585095,0.07821738322999515
20.426212,11.376374053401326,0.07771607919214439
20.430304,11.381341804367466,0.07721581936315323
20.434404,11.381491296258748,0.0767404919989062
20.4385,11.382870179724838,0.07625287625801264
20.442592,11.384359788090867,0.07576282793552813
20.446688,11.387533105306984,0.07527286789081104
20.450784,11.39171436429805,0.0747753648141454
20.454884,11.398587273914147,0.07427164617222998
20.458976,11.398736765805426,0.0737990271539801
20.463072,11.399562024771848,0.07333147343864328
20.467168,11.40397615123831,0.0728546575401743
20.471264,11.411868420304893,0.07237523916178139
20.47536,11.416847588946567,0.0719108885592721
20.47946,11.422723974463253,0.07144596364670062
20.483552,11.42523294227976,0.07098112366034276
20.487652,11.428074084796073,0.07050564497703153
20.491744,11.426429142937323,0.07003885343196212
20.49584,11.419290174928575,0.06958704553758424
20.49994,11.414953582444793,0.06912480262204601
20.504032,11.412411423711037,0.06865810022301407
20.508128,11.41379030717713,0.06817230778415362
20.512224,11.414161248868275,0.06769072238805408
20.516324,11.412737756809403,0.0672105750392385
20.52042,11.406717455475533,0.06674238959190282
20.524516,11.396997561741678,0.06628378090596855
20.528612000000003,11.384586017382794,0.06582946904617862
20.532708,11.375198298348748,0.06535904489555841
20.536804,11.363229653589602,0.06488891868169792
20.54084,11.354960601230438,0.06440802867770028
20.544932,11.348818157321102,0.06391328962892512
20.54898,11.341778496536753,0.0634198231038011
20.553028,11.32823686782745,0.06294283546215747
20.55708,11.313908747143072,0.062462243741213605
20.561172,11.295548859358908,0.062000885298754436
20.565152,11.281453606149933,0.06154063647381696
20.569236,11.262097194266355,0.06111080658298011
20.57332,11.2471161418579,0.06067793027279856
20.577368,11.234494565374675,0.06025206264965857
20.581444,11.224564639516487,0.05982340898242426
20.585528,11.217437089183267,0.05938846317742764
20.589616,11.211096030825129,0.058956929669081705
20.593704,11.208343839967034,0.05852131129462268
20.597796,11.210188458383936,0.058076844506649364
20.601884,11.214614002525938,0.057633128258258656
20.605968,11.22273913906792,0.05718243462377136
20.610052,11.232769434259863,0.05672663201924276
20.61414,11.24078384590191,0.05628084786277282
20.618232,11.24835535794422,0.05584923188377497
20.622308,11.253345944261428,0.05541576322117119
20.626388,11.256320647028744,0.05499182345092298
20.63046,11.26019256667107,0.05456756026486694
20.634544,11.264961703188408,0.054140880389931006
20.638624,11.270295881880955,0.05372443237944589
20.642712,11.27585151037337,0.0532990842686116
20.646792,11.275802387815848,0.05288407665542497
20.650872,11.276982656833136,0.0524545957334302
20.654956,11.272668899700422,0.05203066354777651
20.659032,11.26454482526779,0.05161479377091765
20.663116,11.25059454998535,0.05121577486404778
20.6672,11.23171529072811,0.05083317198302863
20.671288,11.208804264371082,0.05046602450240439
20.675384,11.181972195814202,0.05011037308051858
20.679476,11.14751949265749,0.049769814202447124
20.683568,11.109932239276,0.04944360631834804
20.68766,11.06450290149481,0.04913955802114942
20.691748,11.016725505463919,0.04885321989500702
20.695836,10.96570283430832,0.04858429887258178
20.699928,10.915688104927666,0.04830971936884963
20.704012,10.865684793222545,0.048063552741525975
20.708092,10.812325481492783,0.047838803139405896
20.712168,10.755720894638305,0.04763179665458313
20.71626,10.700467841934117,0.047438250028613245
20.720344,10.643088180780097,0.047254858233110195
20.724436,10.584036228451524,0.04709661443029762
20.728524,10.526446535173168,0.046948181466435604
20.732612,10.471892084895185,0.04681767811221017
20.736708,10.419254210942691,0.04671322035982982
20.740808,10.367967871140483,0.04662358334639079
20.744896,10.31915173216344,0.046540736837415664
20.748984,10.268098259836638,0.04647283082563842
20.753076,10.218396321660117,0.046420289103567804
20.757168,10.168251483883859,0.04638311507198724
20.761264,10.125284381107692,0.04634525925833483
20.765352,10.082993045406669,0.04631501461451204
20.76944,10.045974286055783,0.046288722616861434
20.773472,10.007726135130078,0.04627434998770219
20.777504,9.974639835654576,0.0462684256656141
20.781556,9.941110636579335,0.04627831428798225
20.785652,9.90780288730396,0.04628001806244113
20.78974,9.877186788653624,0.046281914811447444
20.793772,9.846459965103353,0.046287826331921925
20.797804,9.81663035842809,0.04629355916000802
20.801788,9.78758724372791,0.04630342587851981
20.805816,9.761125054752828,0.046318099723224385
20.809852,9.73343347420293,0.0463454992475825
20.813888,9.703050243027993,0.046372767801226504
20.817976,9.674793620302887,0.046387663524541274
20.822064,9.650458039777634,0.04639003133279741
20.826152,9.623209358827474,0.04640068413031914
20.83018,9.597865836527276,0.04640737792260192
20.83426,9.568933446727026,0.04641409419560368
20.838344,9.54111972360166,0.04641224300556451
20.842368,9.511179392026465,0.046423110287308104
20.846368,9.479333901801311,0.046438398098450254
20.850368,9.44367809427624,0.046462613894517085
20.8544,9.408133011651106,0.046482723701679794
20.858448,9.365520918925808,0.04649830026300159
20.8625,9.315398916500614,0.0465278140150898
20.866596,9.264158247400543,0.046566433241747716
20.870684,9.210004477875561,0.04661474428896878
20.87474,9.155739983450644,0.046668169025237294
20.878736,9.096878679750734,0.04672605874940689
20.88272,9.036112217400865,0.046789183260537284
20.886804,8.9756779297508,0.04683889556885451
20.8909,8.915465091900607,0.04688025128888032
20.894928,8.858951846450394,0.046916739271426484
20.89896,8.795936633075229,0.046962822184887565
20.903,8.726419451775113,0.047017675480221344
20.907048,8.659815370899901,0.04706337793086305
20.9111,8.593100565124754,0.04711449422052809
20.915176,8.531093293524536,0.047156349612900515
20.9192,8.467967355249439,0.04720803240293253
20.923244,8.402260491249235,0.04725549257415044
20.927284,8.3364429023491,0.047309396836767464
20.931372,8.274435630748883,0.04735451463948483
20.935456,8.20951525872376,0.047410873814420676
20.93954,8.150199637748576,0.04745668772333696
20.943576,8.097385984698349,0.04749415306320852
20.947668,8.043896564572975,0.047521775356411895
20.951764,7.9906285942474735,0.04754006862317898
20.95586,7.937692798621776,0.04754262076048678
20.959948,7.883749061221133,0.047550888080278464
20.964044,7.831034715395304,0.04754297421329244
20.96814,7.775628718944441,0.04753440601736181
20.972236,7.719325505618565,0.04752581656373987
20.976332,7.654836615517651,0.04752242800201374
20.980428,7.5931501009417035,0.047513901580343985
20.984528,7.533258020115781,0.047505246980397944
20.988624,7.469666346889876,0.047501788288043516
20.99272,7.40539890658883,0.04748709114119375
20.996752,7.335748165037712,0.04747138701930217
21.000844,7.265310931511518,0.047450397286074385
21.004928,7.194984422885257,0.04742286378995576
21.009016000000003,7.125998030733749,0.04737174957691177
21.013104,7.054541437757075,0.047307410528037996
21.017192,6.987005886980253,0.047225237002885556
21.02128,6.911849701603598,0.04716612449380332
21.025368,6.838930849576704,0.04708156260426518
21.029452,6.765790547749941,0.04700823937324255
21.033544,6.691863753948102,0.04692717506902808
21.037628,6.613794468146541,0.046876762533086744
21.041716,6.541440658294854,0.04680651308958217
21.045804,6.466960239993339,0.04675375059580097
21.049888,6.390463938141932,0.04671303218177202
21.05398,6.313967636290524,0.04667181961524995
21.058068,6.240052260164217,0.04663732100446648
21.062156,6.1652396671629,0.04660231424360903
21.066248,6.086727481761598,0.04657437256609067
21.070344,6.005302195935393,0.04656171935700204
21.07444,5.921971751459228,0.046555026013551756
21.078532,5.834830989683147,0.04656282967073832
21.082628,5.743204143532005,0.04657085984391147
21.08672,5.647988429880817,0.046576451637392206
21.090812,5.545262806529731,0.04660419743551161
21.094908,5.437829649003714,0.04664535712205224
21.099004,5.324005248452679,0.0466934788853685
21.103096,5.211631689276332,0.04669806767342786
21.107192,5.086032744450209,0.04675452151608805
21.111284,4.958074323698856,0.04678191740059013
21.11532,4.824400426997627,0.046840447199736714
21.119412,4.691280154796073,0.046853964197451546
21.1235,4.54874481424466,0.04690748122476761
21.127592,4.40172338931819,0.0469696165370878
21.13168,4.253239705341499,0.046996253272169525
21.135768,4.096570344589767,0.04703944537924024
21.139804,3.9384387247878165,0.04704148482230879
21.143896,3.776718237485819,0.04704227976550675
21.147944000000003,3.613535491133603,0.04699378342774079
21.15198,3.4524793532312144,0.04690500463951473
21.156008,3.2907474482536836,0.046764846935534225
