Time,Force,Position
17.116827999999998,0.09346311184623675,0.0
17.120911999999997,0.0965976620710117,0.0
17.124935999999998,0.10242386292082212,0.0
17.129032,0.11429771442031271,0.0
17.133115999999998,0.12494217434498686,0.0
17.137155999999997,0.135586634269661,0.0
17.14124,0.14824697774422854,0.0
17.145267999999998,0.15709700391887904,0.0
17.149303999999997,0.1690815803183045,0.0
17.153391999999997,0.17311334741809128,0.0
17.157472,0.17254830524288406,0.0
17.161564,0.17579358036759393,0.0
17.165651999999998,0.18856464874209636,0.0
17.169739999999997,0.2012249922166639,0.0
17.173783999999998,0.2129881188162196,0.0
17.17788,0.22654567916579893,0.0
17.181967999999998,0.23449848846543758,0.0
17.186064,0.23763303869021254,0.0
17.190155999999998,0.243459239540023,0.0
17.194252,0.2527635829899459,0.0
17.198335999999998,0.26217865133980356,0.0
17.202419999999996,0.26834844456495144,0.0
17.206508,0.27250235424020597,0.0
17.210592,0.27364385626615323,0.0
17.214679999999998,0.2787178181674853,0.0
17.218763999999997,0.28470041461936196,0.0
17.222848,0.2939511215470142,0.0
17.22694,0.3120746900003827,0.0
17.231023999999998,0.3314619030551661,0.0
17.235055999999997,0.3694920560363938,0.005884918378555277
17.239099999999997,0.41576497417032704,0.012707998557049481
17.243199999999998,0.4773590852326584,0.019800565176449684
17.247231999999997,0.5450921883489327,0.027509999362318037
17.251323999999997,0.6342169703943509,0.03526158798644265
17.255415999999997,0.7466385900188717,0.042982847555499575
17.2595,0.8811162379721458,0.05062692247532653
17.263592,1.0386578560291198,0.05826835667961483
17.267671999999997,1.2221765446146988,0.06584500653220142
17.271763999999997,1.42236796027896,0.07348267583944108
17.275855999999997,1.6363190025969983,0.08119251590610418
17.279956,1.866721322193849,0.08897506859110464
17.284052,2.1198440195190624,0.09672553918637974
17.288131999999997,2.3908688354977743,0.10451789405279358
17.292223999999997,2.678444235979701,0.11234726155086609
17.296315999999997,2.9806650623148836,0.12018585972128575
17.300407999999997,3.3011087643278367,0.12797916654101285
17.304495999999997,3.636518649218317,0.13573830554604563
17.308584,3.983748749086019,0.14347124777361878
17.312676,4.348048804930011,0.15112162748333094
17.316764,4.7048503687496375,0.15295490149414429
17.320852,5.067566022967944,0.15376186322391888
17.324944,5.414750452133516,0.15432205620944459
17.329031999999998,5.750534730570541,0.1542678738742987
17.333119999999997,6.064362287903216,0.1541640126002575
17.337211999999997,6.356122399231605,0.15407165907525702
17.341299999999997,6.624707815556359,0.15408034376035598
17.345388,6.8756125630274845,0.1540641298740317
17.349472,7.107042207894956,0.15407929635156528
17.353555999999998,7.323704284333704,0.15398955775622403
17.35764,7.523472183893901,0.1538351627120158
17.361724,7.707796747950231,0.15358028822135522
17.365803999999997,7.873432701377986,0.153336035357704
17.369884,8.02519830325203,0.15300150574908347
17.373963999999997,8.16073407764713,0.15259557462862777
17.378044,8.276118982363434,0.1521892853533843
17.382123999999997,8.370688668001335,0.1518327477339942
17.3862,8.443324467885953,0.1515420038374903
17.390283999999998,8.494480699292552,0.15132635907263173
17.394364,8.52618466344657,0.15119327682563416
17.398456,8.552570380548318,0.15096478303462746
17.402535999999998,8.5665936758487,0.15080769819239018
17.406619999999997,8.580827003273424,0.15060067692693246
17.410708,8.595946129897623,0.1503461987003979
17.414796,8.610954531621887,0.15009764899698272
17.418823999999997,8.624844266671273,0.14987232912399065
17.422904,8.643884435495323,0.14955800623419518
17.426983999999997,8.66258101194404,0.14922729295186019
17.431064,8.676791504017697,0.14895018017683503
17.435147999999998,8.68774530329111,0.1486991845548065
17.439228,8.69936345196413,0.1484129017320244
17.443308,8.709187166887128,0.14814849237218514
17.447387999999997,8.717548622759908,0.14788788113679457
17.451468,8.721534719157564,0.14767384643374631
17.455547999999997,8.726528757330167,0.14744507579034669
17.459628,8.734435895927676,0.1471743286698719
17.463715999999998,8.740437875875223,0.14692844550860093
17.467803999999997,8.748566464272601,0.1466431658487126
17.471891999999997,8.766331570819705,0.14622181816311705
17.475976,8.78431812716668,0.14578893432576953
17.480064,8.799723757788552,0.1453816133615134
17.484151999999998,8.811540520910379,0.1450139162758904
17.488235999999997,8.818195432582002,0.1446945926001339
17.49232,8.818126926528805,0.14446935184551377
17.496395999999997,8.821868737775526,0.14419257950009212
17.500487999999997,8.824713332147235,0.14392506357329538
17.504572,8.819715842119239,0.14377419758202165
17.508664,8.809567918316574,0.1437094945031744
17.512759999999997,8.803119586913892,0.14359837178246757
17.516855999999997,8.796228355911472,0.14351100628468555
17.520947999999997,8.785305357809264,0.1434878658007435
17.525043999999998,8.776066068557146,0.14345026958310605
17.529135999999998,8.769186255230256,0.14340012749681932
17.533227999999998,8.764887367628468,0.1433259374723669
17.537323999999998,8.754884421752337,0.14336669395719817
17.541411999999998,8.746011560226622,0.14342227596567103
17.545507999999998,8.741735507975896,0.14342263564849234
17.549604,8.739929656550343,0.1434050926820237
17.553696,8.728155112275253,0.14353820276286872
17.557792,8.715937668400425,0.14369477721188462
17.561888,8.707984859100787,0.14381336743372644
17.565976,8.703510192401259,0.14389917245824257
17.570064,8.708462011727123,0.1439014148479646
17.57416,8.723283216678118,0.1437975086482813
17.578239999999997,8.736432130454558,0.14374509183413864
17.582327999999997,8.756648054331155,0.14362352318653743
17.586416,8.784041713207847,0.14342531083920504
17.590504,8.81681867333461,0.14316901398177967
17.594592,8.847358300111612,0.14295555227965426
17.598679999999998,8.882273286363736,0.14270257763313732
17.602767999999998,8.924255282716022,0.14238023299957767
17.606859999999998,8.96500788749349,0.14208581064236
17.610951999999997,9.005539042471089,0.14180642276989222
17.615047999999998,9.04573802274888,0.1415464496677052
17.619139999999998,9.094787029201324,0.14116443203310933
17.62322,9.141930877003812,0.14080818970585463
17.627312,9.190426258956583,0.1404602966365418
17.6313,9.238589466209547,0.14013200671757353
17.635395999999997,9.2933653662874,0.13972079021210798
17.639491999999997,9.352062308565104,0.13926001121354822
17.643583999999997,9.409751309067863,0.13882035640425266
17.647683999999998,9.468791843720904,0.1383871905558846
17.65178,9.522338352223942,0.13801869602415914
17.655876,9.572185268326997,0.1376965111910914
17.659972,9.622253634229919,0.13736531573569677
17.664064,9.66559858240802,0.13711773011408138
17.668163999999997,9.708378488410911,0.13686666039849113
17.672255999999997,9.751490569113612,0.1366031314217982
17.676351999999998,9.79784792494102,0.13629002134193743
17.680448,9.840948587968185,0.13599787711807915
17.684487999999998,9.883705658620014,0.13569381749651
17.688575999999998,9.9281350204464,0.1353478158898592
17.692663999999997,9.968299747697595,0.13503173760285236
17.696751999999996,10.007788707873647,0.13471472079549085
17.700843999999996,10.03909199127466,0.13447616724548628
17.704932,10.069154465425322,0.13422772418034665
17.709011999999998,10.093490045950576,0.13400941079630949
17.713108,10.116363367425613,0.1337922150701549
17.717191999999997,10.13788515475036,0.13357215232428413
17.721276,10.155928799475003,0.1333798588949527
17.725364,10.166905434099483,0.1332439311871262
17.729443999999997,10.179100042623244,0.13305425241445593
17.733531999999997,10.188259408146632,0.13286976221704316
17.737612,10.197972398169695,0.13266139125339205
17.741699999999998,10.204428695392515,0.13246854661598575
17.745783999999997,10.213786675364709,0.13221061357796607
17.749868,10.220674454511737,0.13196654439681138
17.753964,10.224194815958588,0.13174329911484073
17.758048,10.22412630990539,0.1315504463299615
17.762131999999998,10.219682444377069,0.13138952646090574
17.766215999999996,10.208736610923797,0.13129063760977833
17.770296,10.197680052570588,0.13119640773171848
17.774379999999997,10.1907659862171,0.13104809310422091
17.778464,10.183508327488276,0.13088251816097107
17.782539999999997,10.179385218984226,0.1306750230619591
17.786564,10.177388718930006,0.13043828562548687
17.790647999999997,10.18009975305071,0.130155393304248
17.794724,10.184150903646168,0.1298462294800278
17.798811999999998,10.187526287166488,0.12953516928070996
17.802899999999998,10.191012395586739,0.1292194774602028
17.806987999999997,10.199316763081853,0.12885183805823427
17.811072,10.202470696802303,0.12855016592280127
17.815164,10.210221439797742,0.12820815116027853
17.819243999999998,10.21595629924329,0.12789111697177438
17.823327999999997,10.22370704223873,0.127549988260121
17.827371999999997,10.231014885634433,0.12722956973619803
17.831452,10.241014379655171,0.12688981233556765
17.835531999999997,10.25471346607589,0.12651911745456343
17.839612,10.270317711146568,0.12613045820904695
17.843687999999997,10.292313199242262,0.12568933223546527
17.847772,10.319016221512886,0.1252045147020499
17.851855999999998,10.340003767833638,0.12477450483696746
17.855936,10.358643255904688,0.12438383012384535
17.860011999999998,10.378634278126023,0.1240005532211853
17.864096,10.399190342522562,0.12362605407524493
17.868184,10.420089999294442,0.12327076251503775
17.872276,10.439760264491502,0.12293824456019709
17.876364,10.458876905188891,0.12263079813766026
17.880443999999997,10.480131572011642,0.1223292207383776
17.884531999999997,10.501164789034522,0.12203755967793568
17.88862,10.523992439807426,0.12173459776778747
17.892699999999998,10.549622466105303,0.12140774853709246
17.896783999999997,10.57492031770337,0.12109737061390333
17.900872,10.600107444401504,0.12079209050863882
17.904956,10.623843729724952,0.12051647908611443
17.909048,10.645674856398443,0.12025853073742064
17.913144,10.662798448897002,0.12004206709259291
17.917232,10.674993057420764,0.1198760284486465
17.921328,10.687076941044591,0.11971539564462225
17.92542,10.695461232268437,0.11958471286955655
17.929519999999997,10.703059031517206,0.11945633722212384
17.933615999999997,10.717380248490796,0.11926708648497716
17.937711999999998,10.729120539739284,0.11909089054585899
17.941807999999998,10.734358863062823,0.11896620584277218
17.945904,10.73981863618623,0.11883271639397497
17.949996,10.743926875159353,0.1186933838258923
17.954092,10.744446246632428,0.11857808660678913
17.958191999999997,10.744289851030363,0.11845976818292632
17.962283999999997,10.742671196378078,0.118340129312705
17.966383999999998,10.741052541725791,0.11822050135962323
17.970475999999998,10.737528728423545,0.11811751917369766
17.974572,10.733107698246291,0.11802049658922217
17.978668,10.7234140917189,0.11795427662339882
17.982756,10.713831210091442,0.1178833981166004
17.986843999999998,10.705366995138865,0.11779747999694096
17.99094,10.698918663736182,0.11769055044475327
17.995032,10.694375490983457,0.11756709767514625
17.999124,10.69364263553065,0.11741093800046173
18.003216,10.693696272052922,0.11725388946838348
18.007308,10.698346717850185,0.11706378547865207
18.011339999999997,10.701657047172697,0.1168978681643037
18.015424,10.701722101370502,0.11677221640288439
18.019508,10.708289123493259,0.1165977936338973
18.023592,10.723484721990793,0.11634949411233834
18.02768,10.739466812463405,0.11610131095287647
18.031732,10.754108786461268,0.11587677751022823
18.03582,10.77626067015903,0.11559487619397077
18.039912,10.797404612081843,0.1153230692728157
18.044004,10.814627511804806,0.11508682685501385
18.0481,10.83296907820265,0.11483672519856226
18.052192,10.853215803250453,0.11457217209125511
18.056288,10.876486353623097,0.11427954834393865
18.060384,10.907156088795702,0.11393500639904952
18.064416,10.938157998668112,0.1135782959385492
18.068504,10.969713533040201,0.113200608669748
18.07254,11.001379792312221,0.11282059757132012
18.076588,11.031473067634089,0.11244256463826768
18.080628,11.058309650155714,0.11207378249298637
18.084716,11.082786756752109,0.11170888834108028
18.0888,11.100086128348407,0.11138700619375308
18.092884,11.115247473819347,0.11105845677375185
18.096916,11.130508126514686,0.11069595640667716
18.101,11.14071765265976,0.11035315185182783
18.10508,11.145765327354631,0.1100338771809887
18.10916,11.147667034149197,0.10971804134039187
18.11316,11.151351757018253,0.10936239718832534
18.117188,11.14886668666216,0.109038926975451
18.121212,11.148951124355634,0.10867546293565063
18.12524,11.152613011873624,0.10826188426090842
18.129324,11.154026148366317,0.10784606678109361
18.133408,11.152182592058766,0.10743736716653844
18.137496,11.143947792726202,0.10706709301152714
18.141524,11.131337633918513,0.10671744203358788
18.145616,11.117043766260732,0.10637246962248707
18.149704,11.102860623502885,0.10602295297123676
18.153796,11.086207279919876,0.10567858495068784
18.157888,11.071680544786695,0.1053113173799325
18.161924,11.056256592778501,0.10494735003575165
18.16602,11.040378323495034,0.10456993443261087
18.170112,11.026515937761461,0.1041729655176322
18.174208,11.018369027977766,0.1037352778047455
18.178304,11.011684377244286,0.10330145296336744
18.182388,11.003991784735863,0.10287503789700073
18.186476,10.99719640910245,0.10244329923649992
18.19056,10.993203408994008,0.10199371069643183
18.194644,10.988767509285825,0.10156156022767229
18.198728,10.9862367682276,0.10111593350846138
18.202816,10.981468693819615,0.10069649477653617
18.206896,10.978384328261718,0.10027370242529587
18.210984,10.976872946653975,0.09985055981216638
18.215068,10.977942490771332,0.09941902617242276
18.219156,10.982600902388732,0.09896954309046585
18.223244,10.988045805981214,0.09852027845024015
18.227332,10.995850185498927,0.09807139591098714
18.23142,11.005006099166923,0.09763266442222962
18.235504,11.016521488760148,0.09719459967357331
18.239596,11.029499137403592,0.09676278992601266
18.243684,11.047638637497242,0.09631600411772363
18.247772,11.065113788191278,0.0958938266420703
18.25186,11.086177806385363,0.09545685825449343
18.255956,11.102202115704712,0.09506214488656414
18.260048,11.119910133874152,0.09466624901331697
18.264144,11.146811770593583,0.09422691100072199
18.268232,11.176970100113254,0.09378706354012899
18.272324,11.205677588258238,0.09337329341394378
18.27642,11.23427435150329,0.09296463958839049
18.280512,11.262538940048534,0.09256955990812403
18.284612,11.294613845893696,0.09215409909956125
18.288704,11.324340693489159,0.09176835448243455
18.2928,11.3548540330597,0.0913848267489742
18.296896,11.386264589505254,0.09100046515797605
18.300992,11.419580304600766,0.09060733742452655
18.305088,11.45379323657129,0.09021245411251705
18.309184,11.489124835216693,0.08980870742311209
18.31328,11.522883449911943,0.08940576859349618
18.317376,11.559887339731905,0.08897700452448316
18.321476,11.595207520701775,0.08855311554566862
18.325568,11.63018410929631,0.08811666508370594
18.329664,11.669081740090697,0.08765703032881167
18.33376,11.70528772026005,0.08720889682784376
18.337856,11.742280192404477,0.08676106977601993
18.341952,11.774000088198772,0.0863292393806592
18.346048,11.796304915643205,0.08594613287152483
18.350148,11.815463775187332,0.0855612158051807
18.354244,11.834844084531328,0.08516917486850019
18.358336,11.856351002325152,0.08476137794137145
18.362436,11.87516626949394,0.0843618399427327
18.366532,11.888266060712853,0.08399193737246352
18.37062,11.899682143081678,0.0836236640130664
18.374716,11.90739863305052,0.08327049785123607
18.378816,11.909399647069487,0.08294567284402729
18.382916,11.908598285563482,0.08263364937403507
18.387008,11.902413622807408,0.08233758196311555
18.391104,11.890624209001395,0.0820654199397736
18.3952,11.877937578320369,0.08179568124136782
18.399232,11.857408863239637,0.08157040399378516
18.40332,11.834077772633936,0.08135622817765101
18.407408,11.804699031378554,0.08118026256293595
18.4115,11.771620697723193,0.08101794173439736
18.415584,11.738320914267959,0.08086244394137965
18.419572,11.7081556810375,0.0806831843119775
18.42366,11.678776939782118,0.08050409028906083
18.427748,11.651081907376824,0.08032299620705648
18.431832,11.622833250471857,0.08016028988137809
18.43586,11.595592535341837,0.07999059398161573
18.439936,11.563644286036888,0.07984022654282859
18.44398,11.538419454456761,0.07965651425819723
18.447968,11.517115665076485,0.07945083461556317
18.452064,11.496930542371093,0.0792343457803705
18.456152,11.48257162051551,0.07898779192409877
18.46018,11.473141682634726,0.07871340407518725
18.46426,11.463711744753937,0.07843859326554653
18.468344,11.46157026677318,0.07814080079632256
18.472424,11.463349830992275,0.07782150798252661
18.476456,11.46591588718645,0.0775038055830688
18.480556,11.473300202455485,0.07716266962411511
18.48464,11.485281326999518,0.07680658037058395
18.488688,11.501859260818543,0.07643478062249744
18.49272,11.52213678703755,0.07605099394616247
18.49682,11.542525038156489,0.07566343590464168
18.500916,11.557197813325555,0.07530084874646438
18.505008,11.572657080469696,0.07493955007439512
18.509044,11.59136162273855,0.07455375644546235
18.513132,11.611295556582219,0.07415472569151409
18.51722,11.630221548650939,0.07376289464303377
18.521264,11.648926090919792,0.07337726970901914
18.525348,11.66079649056389,0.07302647788784986
18.52938,11.66762718133325,0.07270470283003484
18.533468,11.676252305852636,0.07237939936210466
18.537564,11.681632155247312,0.07208036329943052
18.541652,11.686790554842121,0.07178982188327422
18.545744,11.692846171311942,0.07149746985833222
18.54984,11.693186311831884,0.07122822137906365
18.553932,11.694202219426968,0.0709650895368315
18.55802,11.69611534389707,0.07070053923406522
18.562056,11.695004643042326,0.07045273436453717
18.566144,11.689862175087796,0.07022726484096364
18.570236,11.68393321515819,0.07000004509574846
18.574328,11.673296721053655,0.06978896306475113
18.578416,11.66826497799906,0.06956056234861936
18.582508,11.668837985994406,0.06931421151184378
18.586588,11.67411852816468,0.06905285162668699
18.59068,11.6751458534353,0.06882059288399016
18.594772,11.675841004006115,0.06859957750884586
18.598864,11.67552821280198,0.06838385227291212
18.60296,11.681041622447658,0.06814402279358009
18.60706,11.690476074293189,0.06788674431274978
18.61114,11.708428377613565,0.06760127756065577
18.615232,11.725151289359125,0.06732917428328637
18.619324,11.742095650904554,0.0670502051088107
18.623412,11.759040012449983,0.06677233017770334
18.627496,11.777778807745435,0.06649261769219934
18.631588,11.80324102076571,0.06618919204864188
18.635676,11.82859250888605,0.06589065158391205
18.639764,11.851928113456497,0.0656027797567789
18.643844,11.877279601576836,0.06530498937072601
18.647924,11.90486842304694,0.06499007328759464
18.652008,11.933575911191921,0.06466798192523615
18.656092,11.964975049961943,0.06434176490654728
18.660184,11.98987222080701,0.06403394512343354
18.664268,12.012753508102186,0.06373719540345854
18.668356,12.028346335497332,0.06345483834742088
18.67244,12.046176496242238,0.06315565523796184
18.676524,12.065346773461899,0.06284183854600522
18.680608,12.087651600906334,0.0625113231594001
18.684684,12.106932603025928,0.06219659157748808
18.688776,12.126102880245586,0.06188668113290516
18.692852,12.138992639340165,0.06158594708205356
18.696936,12.153222514909492,0.061270821030311125
18.70102,12.167563115378753,0.06095281004846812
18.7051,12.182014440747949,0.0606324221276416
18.709184,12.1928768986171,0.06031654806268191
18.713264,12.199031822311323,0.06001373549533714
18.717256,12.202716545180376,0.059706890768620874
18.721336,12.208638601399194,0.05938462117490818
18.725368,12.214671382517949,0.059059294772873284
18.729452,12.22260932228666,0.05872979069084747
18.733532,12.228420653605545,0.05841278552561445
18.737608,12.23725581024927,0.05808414702964658
18.741696,12.246988183768005,0.057754414906324325
18.745768,12.259744382611581,0.057413347585244336
18.749856,12.277097390730152,0.057064938407670955
