Time,Force,Position
17.524272,0.00033381047072021924,0.0
17.528364,0.00033381047072021924,0.0
17.532452,0.0,0.0
17.536544,0.0,0.0
17.54064,0.0,0.0
17.544728,0.0,0.0
17.548816000000002,0.0,0.0
17.552908000000002,0.0,0.0
17.557008,0.0,0.0
17.5611,0.0,0.0
17.5652,0.0,0.0
17.569292,0.0,0.0
17.573392000000002,0.00044453537065509003,0.0
17.577484000000002,0.0007783458413753091,0.0
17.58158,0.003914531837065868,0.0
17.585676,0.004248342307786087,0.0
17.589772,0.004582152778506306,0.0
17.593872,0.0049159632492265255,0.0
17.597968,0.006146990594958567,0.0
17.602064000000002,0.006146990594958567,0.0
17.60616,0.006148626365874173,0.0
17.610256,0.006604579412062115,0.0
17.614348,0.007514849733522394,0.0
17.618444,0.008879437330255011,0.0
17.62254,0.010698342202259972,0.0
17.626636,0.01734692382466151,0.0
17.630732000000002,0.02457196529780311,0.0
17.634828,0.03563015942192745,0.0
17.638924,0.05367889177287519,0.0
17.64302,0.0849107909268599,0.0
17.647116,0.13596138505983468,0.009249104594876434
17.651212,0.20874725049729095,0.018215805752335584
17.655308,0.30529405269373927,0.026907774255679265
17.659404000000002,0.43119676079450314,0.03510700070699253
17.6635,0.578380422924476,0.0431617087057138
17.6676,0.7506553563835751,0.051169989772953464
17.671692,0.9458949527219721,0.05914403959328075
17.675788,1.1669015874646373,0.06701096418414826
17.679884,1.4109836099865354,0.07483281168280902
17.683980000000002,1.683182364933315,0.08254440351349014
17.688072000000002,1.9795735385632935,0.09021339652048366
17.692168,2.2970127987470783,0.097890918002
17.696268,2.6391997378846526,0.10551241961938748
17.700368,3.0052371391010033,0.11309831386085462
17.704396,3.395235727296065,0.12064631104009292
17.708484000000002,3.8042551008195087,0.128153057955309
17.712572,4.23788859304574,0.13558885569566356
17.71666,4.689057776199069,0.14297622450195396
17.720752,5.154028804852912,0.1502786536350133
17.72484,5.620527146754778,0.15748843845704696
17.728928,6.071249978452974,0.15542635352956669
17.733012000000002,6.5025855970963855,0.15360380205730667
17.7371,6.908585659259736,0.15204226074716484
17.741184,7.280289413868439,0.15100954860183596
17.745272,7.626226130072875,0.150133547196097
17.749356,7.951668384223178,0.1492865891897458
17.753444000000002,8.26098011811894,0.14838846068598047
17.757528,8.543062554560215,0.14759894129821022
17.761608,8.80128311124718,0.14684938387592772
17.765696000000002,9.03373662952988,0.14619148791681524
17.769784,9.246138585358182,0.14551775427399546
17.773872,9.438378253832159,0.144807204498265
17.777956,9.606756042551828,0.1441245351613551
17.782048,9.753177110167144,0.14343654681463164
17.786132000000002,9.875625573128216,0.14276657660848668
17.790212,9.971753373185344,0.14215167151255026
17.794288,10.04280131958888,0.14160272426626855
17.798372,10.093377639289347,0.1410942748791354
17.802448000000002,10.123493749962277,0.14065583543008608
17.806524,10.135531962883974,0.14033178011935185
17.810608000000002,10.144977832405036,0.13999755272166206
17.814688,10.151399876601257,0.1397041092764042
17.818772,10.15950562964757,0.13939943673643532
17.822852,10.17266250924415,0.13905867708368388
17.826936,10.188621764365697,0.13868794393449485
17.831024,10.204126702211973,0.13830698381710935
17.835108,10.210327296608325,0.13802478744850763
17.839196,10.218322324754702,0.13772618264132716
17.843284,10.227768194275766,0.137395214674955
17.847372,10.23642757182175,0.13706800533289795
17.851464,10.238363531642912,0.136817310179145
17.855548,10.23929154968913,0.13657999971731283
17.859636000000002,10.238425133985322,0.1363586422709195
17.863724,10.235653559631556,0.13615836362120387
17.867812,10.23288198527779,0.13595815067587436
17.871892,10.233023511348932,0.13572434394967658
17.875976,10.23248927034493,0.13548824261743947
17.880056,10.22880906144062,0.13526292464314837
17.884136,10.224342360561232,0.13504023559808032
17.888224,10.225480410731786,0.13476096092073556
17.892304,10.225610519127391,0.13449488361824066
17.896388,10.226970019097815,0.1342062655466994
17.900464,10.229902503018392,0.13391320942583768
17.904552,10.235293770088603,0.13357641443367943
17.908628,10.242025153633566,0.13321407625111395
17.912708000000002,10.247748595403582,0.13286487262978466
17.916792,10.259187513123472,0.13245734241614546
17.92088,10.272642314393256,0.13202714422012982
17.924964,10.284646274288352,0.13162967189043548
17.929056,10.297879625758267,0.13121181234512294
17.933152,10.315034019428031,0.1307502817588657
17.93724,10.332188413097796,0.13028952539969765
17.941324,10.349907848942768,0.12983624981866698
17.945408,10.36751655988781,0.12938871675831312
17.949496,10.385911762807924,0.12894033623576281
17.953572,10.406998616353073,0.12847353993600832
17.95766,10.430887845423193,0.127982650491978
17.961752,10.460160375743387,0.12745150020311757
17.96584,10.489997948238786,0.12692806414620755
17.969924,10.521629954484208,0.12639636889469993
17.974012000000002,10.552032569154814,0.1258860265034626
17.978108,10.581095067350669,0.12540192859472013
17.9822,10.60556075627153,0.1249566802523809
17.9863,10.626891894967615,0.12455222889878685
17.990392,10.645088483438927,0.12418815266027178
17.994388,10.663395796810173,0.12382020835581901
17.998472,10.675090417356532,0.12351292581784944
18.002556000000002,10.684658429453064,0.12323401091784378
18.00664,10.694558616249399,0.12294142155998414
18.010724,10.7069290038709,0.12264115848750337
18.014808,10.721093825242425,0.1223302084472522
18.018892,10.737495979963713,0.12198993397629287
18.02298,10.754230309384804,0.12163639698908149
18.027064,10.770067421930884,0.12128934681373868
18.031152,10.788817634901868,0.12091745273900924
18.035248,10.801963096822913,0.1205920833353842
18.039344,10.809503807694018,0.12031231769262549
18.043436,10.81143976751518,0.12007848367740089
18.047524,10.812810685161137,0.11983700274917314
18.051612,10.807790359782075,0.11964263313013848
18.055704,10.80119705045286,0.11945069215424176
18.059792,10.79605458249833,0.11922977133153785
18.063888,10.793935939868641,0.11897664055290294
18.06798,10.794841122563792,0.11869223110104932
18.072076,10.792157437758895,0.11843058858889653
18.076172,10.791157461804088,0.1181620773155027
18.080272,10.79677017867417,0.11783817200854993
18.084364,10.799801969819148,0.11752696541051047
18.08846,10.803620252939206,0.11721498491622119
18.092556,10.801047293034244,0.11694931287851792
18.096652,10.796901349179128,0.11668718737324234
18.100744,10.789510130199304,0.11646509507868483
18.10484,10.7813324192444,0.11624400051344236
18.108936,10.775059866939458,0.116006963894117
18.113024,10.763182563584573,0.1158129826568756
18.11712,10.7571314610795,0.1155673048303271
18.121216,10.757128009224106,0.11526102133181478
18.125308,10.765753133743493,0.11488391830121747
18.129384,10.777291358687785,0.11448263386643077
18.13348,10.792639900931995,0.11405058883946409
18.137576,10.815719802675972,0.11355530840080495
18.141712,10.83969692129496,0.11305692289287128
18.145844,10.864460531889028,0.1125594794603212
18.149888,10.886643216757992,0.11207553821203114
18.153984,10.918240969976814,0.1115230689043222
18.158128,10.947589972170345,0.11097105250673807
18.162224,10.972231440188944,0.110455307399072
18.16632,11.002588384157418,0.10989734589549272
18.170408,11.029799360225583,0.10934283627088197
18.174548,11.057342510993555,0.10877325167836306
18.178636,11.08197256133662,0.10822857883090801
18.182724,11.109737161904459,0.10765329286005153
18.186816,11.141312079772216,0.10705276348587779
18.190904,11.173108447439843,0.10644669564788081
18.194996,11.205126264907339,0.10583093633643091
18.199092,11.23635759039976,0.10522128017165756
18.203192,11.264454365667405,0.10464573739985682
18.207232,11.28716783968498,0.10410377178972573
18.211328,11.307189663077517,0.10357773480100774
18.215356,11.325638502519903,0.10305385732428914
18.21944,11.33937980778736,0.1025646561073203
18.223528,11.35233462107974,0.10207739024070933
18.22762,11.3638271753219,0.1015873775698603
18.231712,11.373414570914104,0.10110943641279885
18.235804,11.375037739531134,0.10066720915796705
18.239892,11.377447400123243,0.10022518346801841
18.243984,11.382315843864983,0.09974985336772152
18.248072,11.38493553658143,0.09927260527532264
18.252152,11.391254821697856,0.09877502684036014
18.25624,11.402281640989209,0.09824967083793329
18.260332,11.414537851855384,0.09770762676582403
18.264424,11.424434586796323,0.09716708957434976
18.268504,11.429845237362205,0.09664770187419984
18.272596,11.430991253352898,0.09613914942608762
18.276688,11.435271819568365,0.09560323892444691
18.280772,11.436074243183723,0.09507931870987021
18.284864,11.439446174848646,0.09452049284362893
18.288952,11.440237180788467,0.09396828049291497
18.293036,11.442368303203043,0.09339678407927658
18.297124,11.442704991867593,0.09283153254732106
18.301212,11.441579421481926,0.09226124019137824
18.3053,11.439445909321309,0.09169870300770824
18.30938,11.439328280710587,0.09112198636041391
18.313464,11.445258302749544,0.09050174870533316
18.317544,11.455674409163562,0.08986426051222862
18.321624,11.46462825652736,0.08922186524030573
18.325704,11.47145549544133,0.088598363869718
18.329788,11.47503745923059,0.08800429831771531
18.333868,11.479405914994928,0.08741348139056315
18.337948,11.481979937009239,0.08683099694244865
18.342032,11.484553959023554,0.08624849854029765
18.346112,11.485001372588037,0.08568306427413752
18.350196,11.48455156927751,0.0851192235687395
18.354288,11.489485067217052,0.08453745718478883
18.358376,11.489489581181799,0.08398583830839328
18.362464,11.489494095146544,0.08343334361277317
18.3665,11.487039825961656,0.08291102334739112
18.37058,11.485261323851912,0.08239232381409455
18.37466,11.483039922142428,0.08189004276917516
18.37874,11.488439155032777,0.08135194451274219
18.382824,11.492608996348311,0.08082715981000152
18.386904,11.495992345688768,0.08030069687121205
18.390988,11.494668160854294,0.0797948504528501
18.395076,11.487407050270077,0.07932455747059812
18.399156,11.47958089751065,0.07884581141188236
18.40324,11.470414628276473,0.078383565800936
18.407324,11.466288067917029,0.07789051261750315
18.411404,11.463280174232468,0.07738583084356249
18.415484,11.45499970419777,0.07689112941686689
18.419568,11.442687467063282,0.07641995458065144
18.423656,11.429588737953718,0.07594619945690809
18.427748,11.420300326144073,0.07545507524448594
18.431836,11.415719448509357,0.07494515478297169
18.435928,11.407438978474657,0.07444816930689054
18.440012,11.40610337596465,0.07391339235121414
18.44404,11.40364910677976,0.07338696003755407
18.448092,11.401527012294675,0.07284872329333206
18.452188,11.402428743134433,0.07229325554534963
18.456276,11.400860273149023,0.07173545525814361
18.460312,11.392568385438791,0.07120828651912904
18.464404,11.387189598153462,0.07066707403336489
18.468504,11.38382669441803,0.07011435429325624
18.472596,11.385957816832601,0.06954701592406332
18.476684,11.388986156122185,0.06897643335431031
18.480772,11.391682320711965,0.06841836014375219
18.48486,11.39841025240153,0.06783849033739711
18.488948,11.399090533441418,0.06729219005299222
18.493036,11.40358113178122,0.06673302010616515
18.497132,11.409755438971114,0.06617295244437257
18.501216,11.419064296385782,0.06559189603951368
18.505308,11.432969963075445,0.06500178723457953
18.509396,11.443962529340203,0.0644243868195917
18.513436,11.451820545380185,0.06386781627412227
18.517532,11.464275370695162,0.06330259184850973
18.52162,11.468777386710498,0.06277414563796051
18.525712,11.477765487100895,0.062239913750536384
18.529808,11.485524195916474,0.06171782845184727
18.533904,11.48824319585732,0.06121991788588267
18.537996,11.49421888859841,0.06072862790503029
18.542096,11.499862406639693,0.06024769091846478
18.546188,11.507189633531066,0.05977009459738865
18.550284,11.515081902597647,0.059304006023039584
18.554384,11.522752721864359,0.05884772191772339
18.558476,11.538941392605917,0.058371553428998
18.562572,11.554797888647666,0.05790737073864305
18.566668,11.571219426864628,0.05745573646341349
18.570768,11.590443340606557,0.056998022165246284
18.57486,11.610232296523696,0.05655371056734589
18.57896,11.63338867014101,0.05611492477461836
18.583052,11.658904519683555,0.055686629692665524
18.587152,11.6794913852513,0.05527782917713268
18.591248,11.701872684569075,0.05486836798569809
18.595344,11.726159142536806,0.05445534868398042
18.59944,11.742714241004764,0.05406512009412309
18.603532,11.76476336562273,0.053667705560485064
18.607628,11.78199423116583,0.053284124925042975
18.611724,11.801019530458955,0.052899868416370545
18.61582,11.824641639027076,0.052509700705845236
18.619916,11.843556213420264,0.05212879611915306
18.624012,11.860565629163498,0.05175116547833688
18.628112,11.873543277806943,0.0513902468430492
18.632204,11.884283593100626,0.05104489781061167
18.6363,11.886506056919462,0.05071611081498003
18.6404,11.875060235488784,0.05042769866502206
18.644492,11.857223171033091,0.05014331809276239
18.648588,11.829749588427669,0.04988176805713093
18.652684,11.795331138297554,0.04964192546474672
18.656784,11.752173386892723,0.049424887453893646
18.660876,11.703189434638084,0.04922264844898259
18.664976,11.646695572683544,0.04903137953632952
18.669068,11.585051276954337,0.04886106586503771
18.673168,11.518256547450457,0.0487119055078625
18.67726,11.444516950421892,0.04858419256675534
18.68136,11.36965868671844,0.04846211646617626
18.685452,11.28987143904019,0.048353908723379746
18.689548,11.210194916261877,0.048239716547469357
18.693648,11.125589409508763,0.04813903347902419
18.69774,11.035046977005907,0.04805596217831108
18.701836,10.943496602728102,0.04797468596732069
18.705932,10.849708895100532,0.04790755542123695
18.710032,10.752000145273113,0.04785081822748417
18.714124,10.647002935545665,0.04779696677507077
18.71822,10.546491810193276,0.04774101487180746
18.722316,10.446767176815962,0.047688756481643765
18.726412,10.351196453113905,0.047646695683096846
18.730512,10.259325321811827,0.04759971554996485
18.734604,10.17126450780967,0.04754344888967722
18.7387,10.080512043182475,0.04748658250678509
18.742796,9.987067927930244,0.047428539268917595
18.746892,9.895307521528103,0.04737297462598505
18.750928,9.80376856492583,0.04730828949112571
18.75502,9.712340333223494,0.04723837613303197
18.759116,9.622030768196037,0.04715836491552161
18.763204,9.531610478268648,0.04708139421615875
18.767296,9.436593379066263,0.04700742456959878
18.771384,9.3355286292142,0.04695835609415098
18.775472,9.231329329137361,0.04692771435465206
18.779564,9.125335595310498,0.04689671573024122
18.783656,9.020017628558778,0.046873606947409205
18.787744,8.915929053381873,0.046835689145194516
18.79184,8.80993531955501,0.046802484352292444
18.79588,8.706301061653377,0.04678378913749173
18.799912,8.594713994452107,0.04680101000202263
18.804,8.483348377050707,0.04680857317346541
18.808088,8.36951255882414,0.046804923359935746
18.812116,8.249064047772688,0.04681733508446883
18.816144,8.123908002546305,0.04683878332240672
18.82018,8.004135258569992,0.04686046402748127
18.824172,7.887951382093726,0.046880804463639285
18.828196,7.768965130092491,0.04690594616515059
18.832232,7.653457020691369,0.046935990326254326
18.836324,7.535933027740353,0.046977417561663896
18.840352,7.4162824263395075,0.04703527808731469
18.844436,7.297639766713611,0.04708733464372253
18.84852,7.182585974587759,0.047140309912184424
18.852612,7.071453224661763,0.04717761218678743
18.856704,6.96457369163542,0.04717994787798925
18.860796,6.858702100384024,0.047175351673318565
18.864888,6.748012250057765,0.047191808652943555
18.868984,6.634298574406666,0.04722626451732455
18.87308,6.520584898755567,0.04726367404010832
18.877176,6.408211339579221,0.04727556867093801
18.881264,6.302106880852423,0.047236827561869345
18.885356,6.194097263475668,0.04720287786059663
18.889452,6.080261445249102,0.04719587394651451
18.893484,5.977967303822219,0.04713594987057951
18.89752,5.877356871245428,0.047083122263962975
18.90156,5.772371079193512,0.047020369244343344
18.9056,5.663796419641549,0.04695337080100707
18.909632,5.557016193839608,0.046885051141875994
18.913664,5.444741941887663,0.046823859094422646
18.917664,5.3315704730607045,0.046764095700768636
18.921696,5.216604570483724,0.04670591143453406
18.925724,5.100520001231861,0.046663406202174844
18.92976,4.984546156879935,0.046609402640334405
18.933844,4.867564370753059,0.046560834516987476
18.937932,4.747558759301345,0.04653129213516753
18.942024,4.62755314784963,0.04649598748947116
18.946052,4.514603128822543,0.04639219309220293
18.950132,4.406471368870318,0.046255618271727715
18.954216,4.302260651117947,0.046084316823861896
18.958296,4.194018166265787,0.045945765090289026
18.962376,4.083759797863735,0.04581254706012529
18.966404,3.975185138311772,0.04568800316022555
18.97044,3.873223171584696,0.04553017424982764
18.974468,3.7605060200330107,0.04544757844139298
18.97856,3.648010318281195,0.04533679589672056
18.982548,3.535182441829575,0.04526008995826454
18.98664,3.4183227982781683,0.04523659504722642
18.990724,3.2978742872267146,0.04520801737790656
18.99476,3.1822440352501244,0.04512916280127689
18.998844,3.070534825473386,0.04499634419346799
19.002932,2.963533149871576,0.044827173189227576
19.007028,2.8557449822946896,0.04463412292913912
19.011124,2.7431385556429393,0.04447850833452633
19.015212,2.6325480125410823,0.044261789854750586
19.019304,2.5237519031892495,0.044030504596575454
19.023396,2.4148450689374816,0.04379019800812825
19.027488,2.2973096583109327,0.04358204581384502
19.031584,2.176861147259479,0.04336684427205588
19.035676,2.053388810883184,0.04317574141846195
19.039768,1.9367506171316475,0.04281338911392841
19.04386,1.8198909735802407,0.04061218851969236
19.047956,1.7031420549287692,0.03840285473507925
19.052048,1.5852744696024157,0.03621104894860974
19.056144,1.4750275188758963,0.03398517058486927
19.06024,1.365456335224519,0.031780079206049194
19.064332,1.2607034106480057,0.029550719617588487
19.068428,1.1652548295214151,0.02727833471836159
19.072528,1.0759760416199722,0.025012183392959183
19.076624,0.9862543541187896,0.022789106349378543
19.080716,0.8962004919178026,0.02061203995876744
19.084816,0.8040200212669875,0.018462959250032492
19.088912,0.7172228518662432,0.016328322757619224
19.093004,0.6406272427904337,0.01416751123107413
19.097104,0.5641521405191763,0.01206888055929456
19.1012,0.4921631226229779,0.009986154194505173
19.105292,0.42555740597685043,0.007925340966873477
19.109388,0.36915488542657326,0.0058799256556312275
19.113484,0.3181356661263672,0.0038669131968706335
19.11758,0.27328624005130886,0.0018567045185634927
19.121676,0.22989743725555395,0.0
19.125776,0.19200266060980486,0.0
19.129872,0.15949118521412675,0.0
19.133964,0.1315765190934426,0.0
19.13806,0.10534556182284725,0.0
19.14216,0.08371141382724585,0.0
19.146252,0.06465819155674508,0.0
19.150348,0.046502186161256114,0.0
19.154444,0.030251339415725675,0.0
19.15854,0.01781080997011227,0.0
19.16264,0.009069872924481028,0.0
19.166732,0.005933686928790468,0.0
19.170828,0.0036947178081117326,0.0
19.174928,0.00044780691248630074,0.0
19.179024,0.00044780691248630074,0.0
19.18312,0.00044780691248630074,0.0
19.187216,0.00044780691248630074,0.0
19.191312,0.00022472134170095287,0.0
19.195404,1.6357709156049924e-06,0.0
19.1995,0.0,0.0
19.203596,0.0,0.0
19.207632,0.0,0.0
19.21172,0.0,0.0
19.215804,0.0,0.0
19.21984,0.0,0.0
19.223924,0.0,0.0
19.228012,0.0,0.0
19.232044,0.0,0.0
19.236072,0.00022308557078534784,0.0
19.240104,0.0031378217666061647,0.0
19.244136,0.008854933487397321,0.0
19.248224,0.011658944783283266,0.0
19.252308,0.01356573920415739,0.0
19.256336,0.015472533625031511,0.0
19.260364,0.01637138627095894,0.0
19.264452,0.01637138627095894,0.0
19.268476,0.0171595140169515,0.0
19.27256,0.017947641762944055,0.0
19.276596,0.019632986383948434,0.0
19.280636,0.024231431429858025,0.0
