Time,Force,Position
21.457512,0.07034510848877142,0.0
21.4616,0.060684119217062654,0.0
21.465692,0.05371478057038935,0.0
21.46978,0.04595894994863911,0.0
21.473872,0.04100549485185919,0.0
21.477956,0.03461425182684156,0.0
21.482044,0.03293054297675278,0.0
21.486136,0.03505715142658104,0.0
21.490228,0.03516787632651591,0.0
21.494324,0.03639726790133235,0.0
21.49842,0.03672944260113696,0.0
21.502508,0.03818028397582315,0.0
21.506604,0.042654950675349405,0.0
21.5107,0.04500300892504741,0.0
21.514796,0.04835900894969211,0.0
21.518892,0.0477939667744849,0.0
21.522984,0.05215790857407629,0.0
21.527072,0.05741906724867951,0.0
21.531168,0.06447465967330637,0.0
21.53526,0.07210834771958889,0.0
21.539352,0.07669373931905002,0.0
21.543448,0.08824846956518446,0.0
21.547544,0.09969247491138403,0.0
21.55164,0.11203369713259541,0.0
21.555736,0.12056460205388976,0.0
21.559824,0.12650152780363505,0.0
21.563916,0.13333567042839217,0.0
21.568016,0.1352408290783507,0.0
21.572108,0.14095630502822623,0.0
21.576204,0.14286146367818478,0.0
21.5803,0.14835548982819058,0.0
21.5844,0.15373879107826152,0.0
21.588492,0.15878991762852782,0.0
21.592592,0.16473826105380598,0.0
21.596684,0.1688921707290605,0.0
21.600784,0.1739432972793268,0.0
21.604876,0.17305749807984783,0.0
21.608976,0.17206097398043396,0.0
21.613068,0.16904856633112678,0.0
21.617164,0.16760914263197343,0.0
21.621264,0.16695621090789706,0.0
21.62536,0.15957986145899844,0.0
21.629456,0.15332217868498135,0.0
21.633552,0.14527006216094068,0.0
21.637644,0.14483858023673404,0.0
21.64168,0.1477630983371721,0.0
21.645768,0.14519359028760434,0.0
21.64986,0.1486717328877168,0.0
21.653952,0.14945822486279375,0.0
21.658032,0.1512526586128174,0.0
21.66212,0.14833955818791214,0.0
21.666212,0.14733161641296547,0.0
21.670304,0.1435212991130484,0.0
21.6744,0.1418375902629596,0.0
21.678496,0.14205904006282938,0.0
21.682588,0.14138327298768727,0.0
21.686676,0.14070750591254524,0.0
21.690764,0.14081823081248013,0.0
21.694848,0.14228048986269914,0.0
21.698932,0.14677799191329113,0.0
21.703016,0.15544082131467046,0.0
21.707104,0.17108277126734034,0.0
21.711192,0.19114575139726586,0.0
21.715284,0.22832435820561314,0.009110071186872293
21.719372,0.27750241094431244,0.019078858512492747
21.72346,0.3584529338902223,0.028514883517410473
21.727552,0.48475632274398783,0.037361184161352784
21.731648,0.6509185513556033,0.045873155111608506
21.735736,0.8611928366247252,0.054108324548087706
21.73982,1.1199431203509447,0.06204187176969593
21.743908,1.4224390330082675,0.06980242847733784
21.748,1.760716347621522,0.07745465533136597
21.752088,2.1401583654407794,0.08501602952574501
21.756164,2.5557367952668386,0.09255901866212103
21.76024,3.010708329899942,0.10007927995872433
21.764324,3.5113534874651733,0.10754021183704561
21.768404,4.058901659537349,0.11494669511845855
21.772488,4.647171635215788,0.12230521138944941
21.776572,5.2721088120496375,0.1296201766773497
21.780656,5.930677947038525,0.13689806789730322
21.784736,6.624772781156875,0.14411566021443953
21.78882,7.346528394653921,0.15130365854413147
21.792904,8.097483518453217,0.15843465921124356
21.796992,8.85864020257745,0.15641342184255094
21.801072,9.62812408954786,0.1534374387479715
21.805164,10.372891098735689,0.15092361124419665
21.809252,11.071041597414247,0.14896938394054773
21.81334,11.72055970203364,0.1473288748225048
21.817428,12.318543729844498,0.1459679058078337
21.82152,12.859068172772606,0.14494350763919003
21.825604,13.360222346244734,0.14409147850347592
21.82974,13.82807673626163,0.14334592817533945
21.833832,14.258920332747774,0.1426918787479489
21.83792,14.653848967026992,0.14203373304164796
21.842012,15.007357195273736,0.14138638687096186
21.8461,15.312820906987588,0.1407887764788335
21.850184,15.573153202593454,0.14021165830133905
21.854276,15.794435985767615,0.139657057315886
21.858364,15.982075393111204,0.13912787997656173
21.86246,16.13921739252453,0.13861132758980077
21.866548,16.260933000032797,0.13814519539399653
21.87064,16.352826966685935,0.1376836274446635
21.874728,16.410756800484233,0.13726080990439204
21.87882,16.442476696278526,0.1368544614521798
21.8829,16.450048208320837,0.13652452024959313
21.88698,16.450674852838453,0.1362484506764447
21.89106,16.45805916810749,0.13598571145218924
21.89514,16.478481672253036,0.13570431235018057
21.899224,16.509804339149717,0.13540227490233234
21.903304,16.5589606186467,0.13500939766241873
21.907396,16.60933487204297,0.13458507480853493
21.911476,16.65419226393817,0.13415369802472438
21.915556,16.69959186265751,0.13368979106651915
21.919636,16.744426419201645,0.13322379743262855
21.92372,16.791841901470875,0.13274815005181617
21.9278,16.843079118715558,0.1322676489367849
21.931888,16.89388485403603,0.1318195051704659
21.935972,16.93987233028165,0.13140358844720626
21.940064,16.979567870726644,0.13100098908198476
21.944152,17.010390549645923,0.13062221838338936
21.94824,17.036150684339404,0.13024263489921553
21.95232,17.054168041857583,0.12989458461601522
21.956404,17.07509849980067,0.12952873924000188
21.960488,17.095253883444208,0.12918402262922882
21.964572,17.116871526137967,0.1288401852756454
21.968656,17.134900301331676,0.12851391024437114
21.972748,17.14910734154994,0.12819231950036364
21.976836,17.150409753142696,0.12792167572750757
21.980928,17.147214662684867,0.1276537835503196
21.985024,17.13191285325214,0.12745395804129667
21.989116,17.116389594019545,0.1272600777997477
21.993152,17.102771493436904,0.1270544936279902
21.99724,17.086240292429363,0.12686729577151537
22.001328,17.066795990996916,0.12669824112258996
22.005412,17.04477076383937,0.1265384314611382
22.009492,17.02554791220679,0.1263631092261633
22.01358,17.009681060598858,0.1261578706316578
22.017668,16.999075367665522,0.12591163453669393
22.021756,16.99497164265715,0.1256312261516333
22.02584,16.99837782734867,0.12530999898224413
22.029932,17.00537287954024,0.12497275748297168
22.03402,17.01797268278175,0.12460526062835435
22.038108,17.025754226948393,0.12426717059910564
22.042196,17.036891771139683,0.1239005390282438
22.046284,17.051274590455684,0.12350954816448716
22.050372,17.06879195999646,0.12309524779691931
22.054456,17.092024805487114,0.12265058088227562
22.058544,17.128372311727603,0.12213889312624218
22.06264,17.168419410368077,0.12161063033633093
22.066732,17.214624884558166,0.12103935940401661
22.070828,17.255557782398117,0.12048875977051374
22.074916,17.29581491316293,0.11993752685002332
22.079012,17.33752288530242,0.11936970439215157
22.083108,17.38146819079168,0.11878375301760062
22.0872,17.428548046505718,0.11817689605500614
22.091292,17.469790283694405,0.11758603083645629
22.09538,17.507554378282983,0.11700877982822387
22.099476,17.540943113396438,0.11644836409903744
22.103568,17.567829880584938,0.11592039262391687
22.107664,17.58843612964836,0.11541909289060316
22.11176,17.60993959558679,0.11491619962128918
22.115856,17.63166451132509,0.11440940936511843
22.119948,17.655516035513216,0.11388758832237397
22.124048,17.678248893026463,0.1133768146555282
22.128144,17.693250391039946,0.11290820124181722
22.13224,17.711054264578394,0.11242840675505764
22.136332,17.723818429242108,0.11198072731360191
22.140432,17.726048858881082,0.11158729722987001
22.144524,17.727049896945243,0.11120632216564971
22.14862,17.72581360165964,0.11084309303919704
22.15272,17.728952665849157,0.11046613194230047
22.156812,17.73534842283892,0.11008528253846325
22.160848,17.739961163754195,0.10972950114844673
22.164928,17.744131005069725,0.10938491714735527
22.16902,17.747525772085716,0.10905993470349307
22.173112,17.75597166565197,0.10872441361686064
22.177192,17.76756352711853,0.10838771365943618
22.181228,17.783198573360416,0.10804678374865184
22.18532,17.802643936902214,0.10768849081884437
22.189404,17.824448776369245,0.10732922133403912
22.193496,17.842554023436296,0.10698553943211131
22.197584,17.86245370425337,0.1066375683576747
22.201672,17.882464109970375,0.10628780936490341
22.20576,17.89798843131232,0.10595286783875113
22.209848,17.917765969553926,0.10559019292627807
22.213932,17.932049481645524,0.1052484860982521
22.21802,17.946100126261722,0.10489387198779995
22.222104,17.96149088735267,0.10452494370341743
22.226128,17.973846405443243,0.10415459304225362
22.230208,17.98776348980844,0.1037660486676391
22.234284,18.000550489823222,0.10336809500003899
22.238376,18.007610596212594,0.10297704108019998
22.242452,18.01286485117641,0.10257267713167499
22.246484,18.018894180439766,0.10215042792948298
22.250512,18.02491209202759,0.1017106705594136
22.254592,18.02857052769019,0.10127201250687244
22.258668,18.029304445252347,0.10082891135270138
22.262752,18.026892394914196,0.10038645809035489
22.26678,18.02111292687587,0.09994933148022721
22.27086,18.014989866462205,0.09950190772269464
22.274944,18.01009619762336,0.09904375409718771
22.279028,17.999929952434375,0.09859882188476078
22.283116,17.986285564645282,0.09816091034397191
22.287204,17.97498923510588,0.0977038706625592
22.291288,17.963692905566482,0.09724709136406814
22.29538,17.958222776876894,0.09676533625651743
22.299456,17.954436357037395,0.09628124627328892
22.303548,17.952555095847853,0.09578921874190052
22.307632,17.954262702158356,0.09528766746488504
22.31172,17.95653535064407,0.09479239372166799
22.315808,17.960380983079936,0.09429828659862546
22.319848,17.967704758115914,0.09379717491773817
22.32394,17.982316993051928,0.09327607010896825
22.328032,17.996597053288134,0.09276371178884744
22.33212,18.007964013099436,0.092263494881606
22.336212,18.0192202480108,0.09176618113829714
22.340248,18.030365758022228,0.09127133834522116
22.34428,18.03870889250869,0.09078466834277128
22.348368,18.051648836270143,0.09028526513448537
22.352456,18.063470113356715,0.08979326555046581
22.356548,18.074394173568272,0.08930354650671991
22.360636,18.08890710127988,0.08880583446670419
22.364728,18.1068981715916,0.0883022447331708
22.36882,18.127137992928613,0.08780345112758627
22.372916,18.144021814240983,0.08732606592614903
22.377008,18.15306355115365,0.08688039373378532
22.381104,18.157962796066595,0.08645502374027104
22.385196,18.159727490754765,0.08604516603350065
22.389292,18.156341751668265,0.08566014204612384
22.39338,18.148137753506905,0.08529219023802007
22.397476,18.136909930020703,0.08493761606320589
22.401568,18.12624714870971,0.0845889435883158
22.405664,18.107631558099076,0.08427302006374249
22.409756,18.08700008393855,0.08396546202591706
22.413852,18.068617360803316,0.08366182525010182
22.41794,18.04900524609327,0.08336703816669677
22.422036,18.031641882408515,0.08307653871809773
22.426124,18.022021295899066,0.08277713669247731
22.43022,18.009155434264905,0.08249573792538913
22.43432,17.999656990330923,0.08221229874142301
22.438412,17.990723588572145,0.08193426082620016
22.442512,17.977647694813648,0.08167532422946329
22.446604,17.966255509905242,0.08141567779781915
22.4507,17.95195022457193,0.08116588680780243
22.454796,17.941787431238343,0.08089682364224761
22.458892,17.937340113854628,0.08061001662917372
22.462992,17.939726939095667,0.08029950555373783
22.467088,17.951861007386373,0.07995649343086303
22.471184,17.967240350801788,0.07959605347237202
22.47528,17.985754244441978,0.07922074628661276
22.479376,18.00740268830694,0.0788315895017001
22.483468,18.026691656246673,0.07844036220537007
22.487564,18.051020333061143,0.07802936480567402
22.491664,18.075902634375286,0.07760629371248731
22.49576,18.102346501964046,0.0771683466551323
22.499856,18.130573385627294,0.0767098933851718
22.503952,18.15721586766486,0.07623251028018975
22.508048,18.179360847651836,0.07574587578530552
22.51214,18.203399568613236,0.07523699171113356
22.516236,18.225521713249144,0.07471679139265172
22.520336,18.250102641034683,0.07418067030713947
22.524432,18.276798759594524,0.07361662842329107
22.528524,18.300459635153988,0.07304710615255669
22.53262,18.32623570148775,0.07245047958960489
22.536716,18.350770958571157,0.0718460485607348
22.540808,18.375184073079097,0.07122809761224166
22.544904,18.395886177511528,0.0706014213016025
22.549004,18.409521271843797,0.06998429799966752
22.5531,18.425615149325697,0.0693522626431227
22.557196,18.445175751732176,0.06870250598428548
22.561288,18.459463777788518,0.06805670837070614
22.565388,18.478115745644452,0.06739207205633882
22.569484,18.49855072957488,0.06671058383183161
22.573576,18.522120263730084,0.06601853004660585
22.577676,18.545346205509947,0.06531817614243697
22.581772,18.5705880308397,0.06461360341852034
22.585868,18.597402840119614,0.0639134774762673
22.589968,18.626344257849354,0.06320649361096164
22.59406,18.65438845870408,0.06250223750697376
22.598156,18.68355132623369,0.06179461991776324
22.602256,18.70912532626325,0.06109109566682804
22.606348,18.73526436846802,0.06039479616699852
22.610444,18.76341929422268,0.0596940445560857
22.61454,18.79281502922769,0.05900557489045267
22.618632,18.82019488068281,0.05832354162325537
22.622724,18.844440181913154,0.057653194870622905
22.626816,18.867345366668744,0.056992785332307075
22.630908,18.887337450999432,0.05633780698779444
22.63494,18.901392609580373,0.05569722048971378
22.639032,18.90828145083675,0.05507806014152399
22.643124,18.915956784068207,0.054459089149049726
22.647212,18.913552699550195,0.053865675230408305
22.6513,18.899274763532695,0.05329748555000471
22.655392,18.875703901740806,0.05275542019959403
22.659484,18.839927013749623,0.0522433088866913
22.663584,18.793959983109033,0.05175663929567365
22.667676,18.740826635143883,0.05128771993239533
22.671772,18.67717096982953,0.05084996890313924
22.675868,18.60220649519089,0.05044066770928607
22.679956,18.515933211227967,0.05005984320430699
22.684044,18.423390826815492,0.04969476195078797
22.688132,18.322674183303512,0.04934834754773827
22.69222,18.209751513592234,0.04902991484462696
22.696256,18.086073659056343,0.04872802150047171
22.70034,17.95467586269622,0.04845354518127932
22.704428,17.815890299211663,0.04819932119838443
22.708512,17.669274069002938,0.04797514561796855
22.7126,17.518748214269895,0.047773528348352905
22.716628,17.36431273501253,0.0475949932170035
22.720656,17.207197022805666,0.047432713545504004
22.724736,17.044377252324455,0.04729386807313533
22.728824,16.88089313244364,0.04716675378843925
22.732912,16.719214863988377,0.04705633273146944
22.73694,16.556196479058364,0.04695347532735461
22.740968,16.398229220678616,0.04685592357417767
22.745048,16.240605554674207,0.04676892420097338
22.749132,16.079404438845284,0.04670052725315073
22.75322,15.920673523841524,0.04663564094552682
22.757296,15.76743663498777,0.046566317053997025
22.76138,15.61734571403433,0.046506325486821154
22.76546,15.469171369406377,0.046463619144996963
22.769544,15.323135050903788,0.04643316405091251
22.773624,15.183157800726411,0.046407446317032156
22.777712,15.047223735324351,0.04639149628490153
22.7818,14.915886479197288,0.046372565488619684
22.785892,14.786908698995456,0.04636154552999508
22.789988,14.659725352543646,0.04635090152243632
22.79408,14.53220983139203,0.04634880440697499
22.798176,14.409401844415347,0.046340683055968834
22.802264,14.285475190763782,0.04633812237691858
22.806348,14.166256071287144,0.04632944540246566
22.810432,14.045918285135624,0.04632639860603283
22.814512,13.926366990959183,0.046326513391240234
22.8186,13.81331766470769,0.04632001620882327
22.822684,13.702062772206224,0.04631306266449998
22.826772,13.59338880542986,0.046309401081174366
22.830864,13.486730722203387,0.04630013093180639
22.834952,13.379851189177048,0.04629684726879785
22.839044,13.27051287300107,0.046311942402664244
22.843136,13.16319044037499,0.04632097152832196
22.847228,13.055413690473637,0.04631736778518729
22.851324,12.94483456504731,0.046317480727208996
22.855416,12.830555847221005,0.0463208311138089
22.859504,12.712466812094782,0.04633106504288768
22.863596,12.590567459668643,0.0463477388626702
22.867692,12.469786773917383,0.046357915488715186
22.87178,12.352927130365977,0.04635795438748507
22.875872,12.235280994839492,0.04635544703127422
22.879964,12.106203907413258,0.04637367694677469
22.884052,11.975443111136935,0.046388891065619366
22.88814,11.837061680260776,0.04641810217068671
22.892236,11.6997989160595,0.04644047544152151
22.896324,11.557263575508088,0.0464596585455585
22.900408,11.40228934128198,0.0465050364350349
22.904496,11.237334996530805,0.0465539329064685
22.90858,11.062621991054435,0.046599990047671846
22.912668,10.886336001627912,0.046637447168220936
22.916756,10.70410166877611,0.046662444833047954
22.920844,10.518721368024,0.04667264448710828
22.924928,10.32325023184689,0.04669068230816925
22.929012,10.117466810444911,0.04672557921691558
22.9331,9.908537421142626,0.04674320869561168
22.937184,9.695343397265148,0.04675167418431844
22.941268,9.474295871312433,0.046752359023990754
22.945352,9.246181335259559,0.046748643990456556
22.94944,9.009991847331582,0.046741394536345904
22.95352,8.760798423553698,0.04675306519054145
22.957616,8.507561815000491,0.046739893891813766
22.961708,8.254878830946963,0.0467029331084369
22.965796,7.995804603868416,0.04667079980607836
22.969888,7.73504666793978,0.04663665232904553
22.973984,7.467897488986125,0.04660422348542124
22.978072,7.1981673843073715,0.04656045138054443
22.98216,6.932911946328144,0.046460388741989135
22.986256,6.66922949229907,0.04637438734331811
22.990348,6.409246630669978,0.0462734085618882
22.994448,6.145342726841035,0.04618586458298568
22.99854,5.881893140287364,0.04612515788912129
23.002636,5.616316945283865,0.04608914239272867
23.006732,5.352535184030389,0.04605785097235976
23.010828,5.096263332476812,0.04599897880699792
23.014924,4.839770031123366,0.045944919731337505
23.01902,4.582047338195102,0.045924440831965396
23.02312,4.333407538916893,0.04588277083434743
23.027208,4.095755791938694,0.04579921339770213
23.031308,3.859566304010714,0.04575398420351553
23.035404,3.6325704346327234,0.04569043287097537
23.0395,3.4077125913800934,0.04569281868693745
23.0436,3.189921758227623,0.045700522192732976
23.047692,2.983229702275099,0.04563467202492326
23.051792,2.7831503391474626,0.04547791153004969
23.055888,2.5882328274700277,0.0453744057145392
23.059984,2.4001608760928823,0.045357968527936735
23.064076,2.2114245753161277,0.04310210388089216
23.068172,2.030198184239272,0.04083211875598613
23.072268,1.855928078362641,0.038577043985887974
23.076364,1.6906301412361284,0.036317637970354505
23.080464,1.536430981309563,0.03404099482254343
23.084556,1.3915361648329196,0.031744893586688125
23.088652,1.2584158926313653,0.029439842818614944
23.092748,1.1294495301050655,0.027152705367987393
23.096848,1.0112497700789078,0.024871691840987687
23.10094,0.90874559652769,0.022563259203595535
23.10504,0.8115139993266085,0.020277152323012602
23.109136,0.7129422856507756,0.01803410356550405
23.113228,0.6261451162500312,0.015760130329022858
23.117324,0.5431566283782884,0.013493065692227075
23.12142,0.4702606117024609,0.011181699090561473
23.125516,0.40375583805165116,0.008874337731030213
23.129616,0.34140333830518027,0.0066359953063640405
23.133712,0.2851099068839225,0.004483011230352257
23.137808,0.23722523780849125,0.0022792160587403777
23.1419,0.2016687375078229,0.0
23.146,0.17698956460723136,0.0
23.150092,0.15567780940681733,0.0
23.154188,0.13616048795642696,0.0
23.158284,0.12045348380595364,0.0
23.16238,0.10452502985561057,0.0
23.16648,0.09397987715533841,0.0
23.170576,0.08343472445506628,0.0
23.174664,0.08241536500458671,0.0
23.178764,0.08307971440419595,0.0
23.18286,0.07993374650388815,0.0
23.186956,0.07656632880371061,0.0
