Time,Force,Position
29.528672,0.2884355652246319,0.0
29.532716,0.27643957114967355,0.0
29.536812,0.2683646192745671,0.0
29.540904,0.2638785348995081,0.0
29.545,0.25446346654965024,0.0
29.549080000000004,0.2468428319498162,0.0
29.553128,0.23753848849989337,0.0
29.557216000000004,0.22521031972513042,0.0
29.561300000000003,0.21007977542539716,0.0
29.565388,0.20178337375042102,0.0
29.56948,0.19270048010036792,0.0
29.573568,0.1851905704004687,0.0
29.577656,0.17555405225074125,0.0
29.581740000000003,0.1623286666009665,0.0
29.58582,0.14619018052628652,0.0
29.5899,0.13666438727649394,0.0
29.59398,0.12792508600177824,0.0
29.598060000000004,0.12433621850173096,0.0
29.60214,0.12534416027667766,0.0
29.606224,0.12501198557687307,0.0
29.610304,0.13151395350182557,0.0
29.614384,0.13611076277681955,0.0
29.618464000000003,0.134992096101938,0.0
29.622552,0.1294980699519322,0.0
29.62664,0.12882230287679008,0.0
29.630724,0.1233282767267843,0.0
29.634812000000004,0.11862074255185542,0.0
29.638896000000003,0.11592909192681998,0.0
29.642984,0.11245094932670756,0.0
29.647012000000004,0.10829703965145306,0.0
29.651092,0.10392168017632883,0.0
29.655172,0.0998784954010092,0.0
29.659304,0.09695397730057113,0.0
29.663380000000004,0.09772905160011525,0.0
29.66746,0.09929061787473628,0.0
29.67154,0.09447235879987256,0.0
29.675628000000003,0.09157067605050022,0.0
29.679712,0.08869182865219356,0.0
29.683792000000004,0.08874891702985781,0.0
29.687876000000003,0.09455573438399617,0.0
29.691952,0.11129696751587553,0.0
29.696036,0.1384532449524201,0.0
29.70012,0.19982935807027535,0.010444357435928286
29.704204,0.30555039532103956,0.019840322480348477
29.708296,0.45764365793013906,0.0285750472781933
29.712388,0.6602516378972955,0.03695915895390781
29.71648,0.910117642422266,0.0450716228632133
29.720568,1.2067759365542456,0.052942499475860536
29.724656000000003,1.5465155102177193,0.06067336097682407
29.728744,1.923953062162616,0.0683374336235397
29.732832,2.339321459864338,0.07600386944428908
29.736904000000003,2.7931971631736263,0.08367679462349176
29.740988,3.2825563467656402,0.09140577409936976
29.745068000000003,3.8187192376401953,0.0990503395479385
29.749164,4.3999907092716715,0.10662126664114503
29.753256,5.02545070943399,0.11412746395431977
29.757352,5.6830918263766605,0.12161245655852668
29.761384,6.372791917524215,0.1290774388205822
29.765472000000003,7.09342089852624,0.1365135553190557
29.769524000000004,7.846528917981824,0.14390048382653742
29.773608000000003,8.617726252864177,0.15125487877745047
29.777692,9.412648455394447,0.15848822349093106
29.781724000000004,10.186034001069038,0.1552393856289403
29.785768,10.916624771209808,0.15300820834866374
29.789876,11.588358751615413,0.1514352898433308
29.793912,12.20258747643614,0.15021097383495682
29.797956,12.757195754897689,0.14928078643464884
29.802056,13.260182067001836,0.1486084522222164
29.806152,13.72290089277499,0.14808464341583824
29.810232,14.146482316567567,0.1476631199904971
29.814268,14.538180545253,0.1471960207676488
29.818316000000003,14.888779124930235,0.14670328234882402
29.822404,15.202187680123586,0.14611280571760427
29.826492,15.455433582133622,0.14565537212554452
29.830596,15.656038158335774,0.14528501100002356
29.83464,15.810205454981784,0.14501714341856847
29.838616,15.928602767347396,0.14479373494847042
29.842708,16.01683484648255,0.14457220756442032
29.846792,16.06940766623724,0.1443884523592149
29.850880000000004,16.085534734636386,0.14424293397587173
29.854968,16.065227469355523,0.14415172950874336
29.859056,16.007180006946502,0.14418889980791808
29.863144,15.936105773336509,0.14427332708574186
29.867236,15.866959533727542,0.1443827486713355
29.87132,15.812435884620765,0.14448006415713768
29.875404000000003,15.7717483340411,0.14456779244065643
29.87948,15.747466390038115,0.14461265523208763
29.883556,15.730705773410564,0.1446245622966578
29.887636,15.712815072432601,0.14462795906685738
29.89172,15.702300720903533,0.1445399607202943
29.8958,15.68943831112477,0.14447891683357228
29.899884,15.680630503796856,0.14442411074944822
29.903968,15.67577799169539,0.14439927083350057
29.908052,15.691351435594862,0.14427827478068195
29.912128000000003,15.721070317370188,0.14409923876602512
29.916212,15.759639225320162,0.14384947706988813
29.920292000000003,15.80413364134435,0.14353260764548909
29.924376,15.846711481043046,0.14321153055027577
29.928464,15.894439754516412,0.14284644616436326
29.932556,15.948448546114863,0.1424479210389677
29.93664,16.01569414103862,0.14197912485211736
29.940724000000003,16.0924769468877,0.14146457277986677
29.944816000000003,16.17946131306171,0.14088754484836727
29.9489,16.2719282877102,0.14026268464443398
29.952980000000004,16.360340659907838,0.13963393636338037
29.957068,16.447832979879397,0.13897582781700127
29.961152,16.532389364074984,0.13830466746928813
29.96524,16.614242679970005,0.1376313295323851
29.96928,16.698100461739383,0.13692475229528867
29.97338,16.775677725383684,0.13625813496640454
29.977468,16.852678529177236,0.13557184600617758
29.981556,16.929435047819858,0.1348569876542543
29.985644,17.00336635558644,0.13412368111516274
29.989736,17.0727887436269,0.13338415004158138
29.993824000000004,17.13344899504158,0.1326701473169572
29.997912,17.19140617815569,0.13195506842526944
30.002,17.245430901394418,0.1312527316601507
30.006084,17.299554931857546,0.1305321545915492
30.010168,17.350865169120173,0.12981298770363933
30.014252,17.394875528807237,0.1291161675305562
30.018336,17.433491169568697,0.12843143383201713
30.022420000000004,17.46548269982973,0.12776859385366132
30.026504000000003,17.4898421778154,0.12713561008314914
30.030588,17.506237428825905,0.1265395462153791
30.034672,17.52666444693619,0.1259177298716775
30.038752,17.542716105571355,0.12531458861726472
30.042844,17.554503129631325,0.12472621423967437
30.046936,17.568859661740866,0.12411132531110054
30.051028,17.57873010947535,0.12351640828925876
30.055116,17.59027284838439,0.12289856591192745
30.059208,17.597440227818304,0.12229767154236025
30.0633,17.6007972899523,0.12171840064932402
30.067332,17.60617023563619,0.12112696600801165
30.071368,17.605606255570336,0.12057283439119955
30.075464000000004,17.605153000404414,0.12001498625002374
30.07956,17.605031919938295,0.11944967814655794
30.083640000000003,17.603337855522028,0.11888642916905989
30.087732000000003,17.596936256930828,0.11834696570271479
30.091768,17.591542600114572,0.11780197233256093
30.095800000000004,17.589848535698305,0.11724001188656141
30.099884000000003,17.58815447128204,0.11667889936405278
30.103968,17.589816406890414,0.11609072200901804
30.108056,17.591589067398722,0.11549948592351253
30.112136,17.592796685731823,0.1149022198066861
30.116164,17.588621002814858,0.11432647079793473
30.120244,17.585231811872966,0.11374932253369241
30.124328,17.584644996456042,0.11315860201874803
30.128408,17.582828789464305,0.11258072103170515
30.132496000000003,17.58694950822231,0.1119695777084992
30.136584,17.59062732738058,0.11137041848232612
30.140672,17.595767405589072,0.11077197830210601
30.14476,17.605393568172616,0.11015810023454173
30.148848,17.613568889381472,0.1095625376300351
30.152932,17.62522235319045,0.10895680432148765
30.157016,17.640353959599537,0.10834185815510591
30.161104,17.65201884108404,0.10775559516090452
30.165192,17.667161865168655,0.10716110571844364
30.169276000000004,17.684099323003302,0.10655986200020265
30.173356,17.698123680413037,0.10597426243472488
30.177436,17.708116270722986,0.10541202613297228
30.181516,17.718108861032935,0.10485109654925456
30.1856,17.725642668193252,0.10431275282375053
30.189680000000003,17.735192358903465,0.10376390318399872
30.193772000000003,17.750125350863748,0.10319862568400685
30.197856,17.766066284598974,0.10262775017300194
30.201936000000003,17.786714752509127,0.10203935487885102
30.206012,17.80904692926937,0.10144978152961093
30.210096,17.8275687887297,0.10087663310351117
30.214176,17.84295609796525,0.10032404145708733
30.21826,17.856205381075448,0.09976679320267297
30.222348000000004,17.871913447335274,0.09918923408939584
30.226444,17.886159254544882,0.09861109704172703
30.230536,17.89434599342927,0.09804469141704689
30.234632,17.901070473263445,0.09747602241051312
30.23872,17.901625159872477,0.09692194539407908
30.242808000000004,17.90755173005604,0.09633513871074273
30.246888,17.907087057214582,0.09576829315922658
30.250964000000003,17.909424759898098,0.09519206873946552
30.255056000000003,17.90873863725677,0.09462959966054885
30.259144,17.907376747540308,0.09406302608915826
30.263228,17.901872365824126,0.09351857583366974
30.267316,17.89917035963291,0.09296473365370905
30.271408,17.894120295191993,0.09242867005124775
30.2755,17.885038463651295,0.0919127061674609
30.279596,17.875513732510854,0.09140650900903986
30.283688,17.861281467195486,0.09091730168610096
30.287784,17.843914651655343,0.09044497068017451
30.29188,17.82935021164017,0.08996251252962595
30.295912,17.81557226360007,0.08948042455116716
30.300004,17.805726775435353,0.08900052898920786
30.304088,17.79431972099602,0.08853820259795657
30.308172,17.779667391431975,0.0880944696975292
30.31226,17.77208207196809,0.08763576905457197
30.316352,17.766745503529503,0.08718135020822237
30.320444,17.768365220291138,0.08671556105085323
30.324536,17.767193979203334,0.08627772316067507
30.328624,17.77230325624062,0.08582618622229378
30.332712,17.773602215977984,0.08538768694357732
30.336800000000004,17.783861926789935,0.08491249204796715
30.340884000000003,17.801520822401848,0.08441846674129394
30.344968,17.825005918863575,0.08390395543813704
30.349052,17.842886264275357,0.08340552362515216
30.353140000000003,17.86020156751194,0.08290118126116662
30.357228,17.87874626232333,0.08238789143574263
30.36132,17.89863107360947,0.08186326684302168
30.365408,17.918405159995682,0.08134128695993964
30.369496,17.937614204206685,0.08081322650146743
30.373588,17.956933973317625,0.08028346743433992
30.37768,17.97277559982845,0.07975795448917763
30.381772,17.982225983314258,0.07924658671074622
30.38586,17.991676366800068,0.07873549657646729
30.389956,18.00303190893584,0.07821851527445363
30.394048,18.011695800446564,0.07770692518625756
30.398144,18.017557316432324,0.07720293899533578
30.402236,18.021402948868193,0.07670816929583667
30.406332,18.020651772029066,0.07622262549268831
30.410424,18.016876769865096,0.07574973625021306
30.414520000000003,18.016469185401302,0.0752759243207522
30.418612000000003,18.009238875988288,0.07484373358294613
30.422708,17.995739466125727,0.07444031603300033
30.426808,17.98078921488848,0.07405119207182917
30.4309,17.970890090201493,0.07366058246807312
30.435,17.963583308915144,0.07328638951536862
30.439096,17.95427206175443,0.07293760777163405
30.443188,17.946766666019283,0.0726047414259454
30.447288,17.9397155875594,0.0722800187429959
30.45138,17.934802535224883,0.0719633731623126
30.45548,17.93001162546583,0.0716625647560091
30.459576,17.92904245068223,0.0713699332835985
30.463668,17.9314406935988,0.07107668660632457
30.467764000000003,17.934625428490456,0.07078488495921428
30.47186,17.938375205557314,0.07049941429767942
30.47596,17.94739755897431,0.07021016426971187
30.480056,17.95742785416625,0.06991742102989087
30.484152,17.965552990708236,0.06962949614476172
30.488244,17.981298761850052,0.06932327691334468
30.49234,17.99592586631699,0.06902304233849405
30.496436000000003,18.010552970783927,0.06872373059897065
30.500528000000003,18.028868249975314,0.06840006708442319
30.504624,18.046618486991484,0.06806994189326025
30.508712000000003,18.060669131607682,0.06774652697511392
30.512808,18.074941226023746,0.06741919441376419
30.516904000000004,18.086510252139245,0.06707684671665479
30.520996000000004,18.100870236104182,0.06671113074915735
30.525076,18.11298146904382,0.06633948799923327
30.529168,18.12822725220823,0.06595632676752962
30.53326,18.146718310497352,0.06555989437609316
30.537348,18.16464432661127,0.06515766478334807
30.54144,18.18233747524978,0.06474308667098579
30.545532,18.2029437243132,0.06432220839545193
30.549576,18.226684523601396,0.06389113162355979
30.553668,18.24885233893944,0.06345744141539611
30.557764,18.262834477502437,0.06303391690651387
30.561860000000003,18.276030124090358,0.06260900483949548
30.565956,18.291684553827913,0.06216898635106738
30.570056,18.3019556823154,0.061734234912197025
30.574148,18.313899101977437,0.061282554335795554
30.578244,18.32269655373917,0.06082467363138184
30.582332,18.325667804651086,0.060379911908184224
30.586424,18.333789489337676,0.059918513024262585
30.590516,18.342686248323812,0.0594401931602759
30.594608,18.350452922959533,0.0589500243847563
30.598696000000004,18.363824348645192,0.058452818156676384
30.602784,18.376630732155647,0.05795015095174425
30.606876,18.388761348590954,0.05744356681112209
30.610968,18.39550866377619,0.056940322297242454
30.61506,18.398667111461386,0.05644026619900517
30.619148000000003,18.402157733846387,0.0559335007947123
30.623240000000003,18.40284598070641,0.05543025662594241
30.627328,18.398372376116235,0.05492493338317237
30.63142,18.385159470251345,0.05443635176617987
30.635508,18.371049347511445,0.05394717448432665
30.639592,18.360528092271593,0.05345542373650156
30.643688,18.348888170356858,0.05296766244080141
30.647776,18.33176563996765,0.052501035166642424
30.651868,18.312405776228676,0.052042425512665545
30.655956000000003,18.28935773776525,0.05160417378413504
30.660048000000003,18.263518741452387,0.0511853422258342
30.664132,18.238244787314734,0.050771251035903665
30.668216,18.203456457602822,0.05038796509618009
30.6723,18.164979953166462,0.05002402916362311
30.676384,18.120688665555818,0.049687093369806465
30.680464,18.06822311884567,0.04937130728691642
30.684544,18.009832064061314,0.049084556717915014
30.68862,17.947863559452436,0.04881497009500209
30.692704,17.88321482189406,0.048562163754125774
30.696788,17.80916243366136,0.048336325361079666
30.700868,17.727722278304224,0.048132602735150326
30.704948,17.641696731347626,0.047948359629104015
30.709036,17.551540110066842,0.04779319321321443
30.713116,17.459146155436297,0.04764570260914611
30.717208,17.362277534106223,0.04751565251913473
30.721296,17.260258479001482,0.04739847946201674
30.725384,17.154551249172293,0.047301623721649755
30.729472,17.048511844643297,0.0472108281881872
30.73356,16.941021598739614,0.047130693111312856
30.737652,16.827705151986123,0.047059256488339356
30.741744,16.71416725543276,0.046991729110454176
30.745828000000003,16.595478925104732,0.04693798771339315
30.749916,16.475782653001755,0.04688613974658268
30.754004,16.352841105774072,0.046845941616027786
30.758092,16.225978516346533,0.046812827925461376
30.762172,16.09295755136938,0.04679720081433833
30.766252,15.956126269092312,0.046786614029609576
30.770336,15.813358061065497,0.04678879500967779
30.774416,15.665771593963818,0.04679868274321393
30.7785,15.519303793537022,0.0468033162004336
30.782580000000003,15.370033617585253,0.04681042832711429
30.786656,15.217961066108515,0.046820050960342204
30.790688000000003,15.064536980481492,0.04681867243156084
30.794776,14.907978344629695,0.046828439256675604
30.798864,14.747609391477981,0.04684393979930162
30.802956,14.580406295701511,0.046874255351051164
30.807048,14.407930623574904,0.04690233730939463
30.811144,14.231079591973172,0.04692663613066559
30.815232,14.05052896797146,0.04695372746845175
30.819216,13.872891444394654,0.04697434793159905
30.823304,13.689759894667839,0.04699770190786591
30.827396,13.507857736515842,0.047011673473511734
30.831492,13.327074245038725,0.047018728697099464
30.835584,13.149314578886449,0.04701607210272097
30.83968,12.973792246083939,0.04699985767539934
30.843776,12.798602087981228,0.046974931336177625
30.847868,12.623411929878522,0.046950452288987594
30.851956,12.447435279800738,0.04692350874206251
30.856044,12.274261005247922,0.0468933021789509
30.860132,12.102881164445131,0.04686179056726515
30.864224,11.932398540517351,0.04682973047132482
30.868312000000003,11.763599625439658,0.046801223364258536
30.872396,11.592563377012205,0.04678641774452201
30.876488,11.425558895684539,0.04675697451304448
30.880572,11.259562356131816,0.046723839050728994
30.884660000000004,11.099724192128713,0.04666360042408254
30.888748,10.94358562052559,0.046598105377433634
30.892836000000003,10.786217657347652,0.046542322880097395
30.896924,10.628738969269778,0.046489968154094945
30.901012,10.465323355442159,0.04645696872355168
30.905096,10.30000258296458,0.04642781541044303
30.909184000000003,10.132555202037173,0.04640985286359184
30.913272,9.961297503809849,0.046398384167450984
30.91736,9.78432432963265,0.04639854060651179
30.921448,9.601303504805774,0.04642486182230679
30.925532000000004,9.419179896853906,0.046451599778764834
30.929628,9.241088056001825,0.046458625063553985
30.933724,9.066806532449663,0.04645642860877298
30.937816,8.890730575147472,0.04645384972373073
30.941912,8.7080419250204,0.046466227388773006
30.946008,8.529052867293307,0.046472819173749236
30.950104000000003,8.345688450091092,0.04647492461515434
30.9542,8.166466524888596,0.04644983768100055
30.958288000000003,7.985117991236273,0.04643860505428729
30.962384,7.8066825580088555,0.04641379374658811
30.966476,7.6230966910067695,0.046418176328130854
30.970572,7.436708448479713,0.04642609402700726
30.974664,7.253122581477625,0.046429567575953595
30.97876,7.0717740478253015,0.04640582679118014
30.982848,6.89647316482266,0.046344844054358555
30.986944,6.726998482669827,0.046254312104094114
30.99104,6.557745250316865,0.04614719479621742
30.995136,6.388381293063967,0.046043677916232796
30.999228,6.218906610911134,0.045947307799517056
31.00332,6.055258129608111,0.045822937856390494
31.007412,5.8916096483050895,0.04569325499391212
31.011508,5.719221865727352,0.045601262013328266
31.015608,5.543023765849697,0.0455194543625169
31.0197,5.365031232222018,0.04543170181132059
31.023796,5.191856957669205,0.045315790275268816
31.027892,5.0120699902915025,0.04522173733824205
31.031992,4.836769107288859,0.04512297046597621
31.036084,4.656539240311417,0.04504857238349903
31.040184000000004,4.472720505833928,0.04497362450877056
31.044276000000004,4.284980729156588,0.04492017247876311
31.048376,4.100043328004217,0.044865274897270394
31.052472,3.9160031437268588,0.04480327635582398
31.056564,3.724342324849666,0.04481717775590494
31.060664000000003,3.5274203472978702,0.04495699969283837
31.06476,3.32714236972143,0.045222781758084384
31.068856000000004,3.1236191170202794,0.04561224689676629
31.072952,2.921558123369348,0.04613470028784074
31.077044,2.722188780343452,0.04676729229623249
31.081144,2.526740479517408,0.044532498441158454
31.08524,2.3348810461914113,0.0423105941322555
31.089336000000003,2.146610480365462,0.04009418199135905
31.093432,1.968652199764382,0.03785664305223319
31.097524,1.8008954794882368,0.03561497870116972
31.101624,1.6403164942121862,0.03338002035073956
31.105716,1.4861287519611532,0.031162485593076224
31.109816,1.3403481362850314,0.028929444775167783
31.113908,1.1972591712339447,0.026702068226860064
31.118008000000003,1.064150316707923,0.024469931655858597
31.122100000000003,0.9449426149068181,0.02223304564136892
31.1262,0.8339205898807547,0.019988810026707948
31.130296,0.7323136332045488,0.01773428365538113
31.134388,0.6395681203785264,0.015488384168218669
31.138484,0.5646448024772728,0.013167762028890691
31.14258,0.5048520288757525,0.010744929996520932
31.146676,0.453577106749078,0.008220745345989123
31.150772000000003,0.41138507827245663,0.005598604972870412
31.154872,0.37490852574571076,0.0028558553241334814
31.158964,0.34773631666888777,0.0
31.163064,0.32852833456723624,0.0
31.167156,0.31190127819068536,0.0
31.171252000000003,0.2997603061891936,0.0
31.175348,0.2930026354377728,0.0
31.179444000000004,0.28602351488648226,0.0
31.18354,0.282633261835239,0.0
31.187636,0.2786893842843214,0.0
31.191736,0.2781129244335814,0.0
31.195828,0.28673008313282927,0.0
31.199924000000003,0.29142619963222527,0.0
31.20402,0.2919798241318996,0.0
31.208116000000004,0.29421715748166277,0.0
31.212212,0.2920905490318345,0.0
31.216308,0.29108260725688784,0.0
