Time,Force,Position
21.141739999999995,0.14942192757563452,0.0
21.145836,0.1453901604758477,0.0
21.149932,0.14035045160111423,0.0
21.154028,0.1353904207048124,0.0
21.158124,0.12945349495506708,0.0
21.162156,0.12564317765515004,0.0
21.166248,0.12079387165878304,0.0
21.17034,0.1189994379087594,0.0
21.174424,0.11507839570890747,0.0
21.178516,0.10947364465896678,0.0
21.182608,0.09983712650923936,0.0
21.186696,0.08829544970955337,0.0
21.190788,0.08415295770983172,0.0
21.194884,0.0779945821602167,0.0
21.19892,0.06810556728911615,0.0
21.203008,0.0583272773179505,0.0
21.2071,0.04955692912173157,0.0
21.211144,0.03988936405050081,0.0
21.21524,0.02932458210425822,0.0
21.219335999999995,0.020664958807974147,0.0
21.223432,0.016934319486488675,0.0
21.227528,0.016037102611476853,0.0
21.23162,0.017942261261435374,0.0
21.235652,0.019767741932962324,0.0
21.239736,0.02066495880797415,0.0
21.243828,0.020664958807974147,0.0
21.247916,0.021703947504424153,0.0
21.251944,0.018759800158015635,0.0
21.256032,0.016037102611476853,0.0
21.260068,0.013203680165003206,0.0
21.264152,0.012749362889730869,0.0
21.268244,0.012718315968227563,0.0
21.272328,0.00898767664674209,0.0
21.276404,0.007162195975215137,0.0
21.280484,0.007162195975215137,0.0
21.284568,0.007162195975215137,0.0
21.288656,0.007162195975215137,0.0
21.29274,0.007162195975215137,0.0
21.29682,0.0071621959752151375,0.0
21.300904,0.0071621959752151375,0.0
21.304988,0.0071621959752151375,0.0
21.30908,0.007131149053711832,0.0
21.313164,0.004297726607238183,0.0
21.317244,0.0024722459357112304,0.0
21.321328,0.0015439821391961006,0.0
21.325416,0.001512935217692794,0.0
21.329504,0.0004739465212427926,0.0
21.333596,0.0004739465212427926,0.0
21.337676,0.0004739465212427926,0.0
21.34176,0.0004739465212427926,0.0
21.345852,0.0,0.0
21.349944,0.0,0.0
21.354032,0.0,0.0
21.358124,0.0,0.0
21.362212,0.0,0.0
21.366304,0.0,0.0
21.370384,0.002046930471396696,0.0
21.374472,0.0039831360428585205,0.0
21.378556,0.005022124739308522,0.0
21.38264,0.007069055210705218,0.0
21.386728,0.0070690552107052175,0.0
21.390812,0.007210827032143397,0.0
21.394891999999995,0.007574048653451318,0.0
21.398976,0.010961095599599324,0.0
21.40306,0.01244298389578881,0.0
21.407144,0.015830030841936817,0.0
21.411228,0.016525427163049347,0.0
21.415312,0.018228765259108576,0.0
21.419395999999995,0.02284520378007302,0.0
21.42348,0.02824813427611441,0.0
21.427564,0.03275384789714399,0.0
21.431652,0.037370286418108425,0.0
21.435744,0.041089508064061045,0.0
21.439832,0.045705946585025484,0.0
21.443924,0.052227543755948444,0.0
21.44802,0.059867807601752976,0.0
21.452116,0.0644531992012141,0.0
21.456212,0.06825209882559828,0.0
21.460308,0.07395615709994098,0.0
21.464404,0.08324908287433097,0.0
21.468499999999995,0.09458893912011766,0.0
21.472596,0.10780290709435958,0.0
21.476692,0.11866881681890348,0.0
21.480788,0.12270058391869024,0.0
21.484884,0.13065339321832892,0.0
21.48898,0.13479588521805058,0.0
21.493076,0.14521889534285504,0.0
21.497172,0.15307239741809164,0.0
21.501268,0.15745917456874878,0.0
21.505364,0.163983977844767,0.0
21.50946,0.175903500046389,0.0
21.513556,0.19266411667394043,0.0
21.517651999999995,0.21684675345252188,0.0
21.521748,0.2459926272325005,0.0
21.525844,0.27652428818936187,0.0
21.52994,0.31147697932347884,0.008587551815940566
21.534032,0.35881492761002304,0.017192131792578537
21.538124,0.4252729684493494,0.025299343221326022
21.542216,0.5051470435671155,0.03358595980086703
21.546312,0.5944053858635344,0.04210906107545461
21.550396,0.7039253227386828,0.05048105774963102
21.554488,0.8308051714431884,0.058899768693732174
21.55858,0.9827877091523529,0.06731989885174101
21.562672,1.1688565222918277,0.07558644959263616
21.566707999999995,1.3766834420868495,0.08393347236459076
21.570772,1.6166914786622226,0.09216939151607588
21.574808,1.8850703147180305,0.10029085651103894
21.578836,2.185951024578462,0.10829371216653483
21.58294,2.5152904234681968,0.11621893056190272
21.587036,2.8668079932621526,0.12412644111704595
21.591088,3.241954575335016,0.13196003806515186
21.595144,3.6350032760613775,0.13979357760318786
21.599252,4.045499778165966,0.1476037190785962
21.603292,4.475337822623206,0.15536519245590252
21.60738,4.926964774907199,0.1630549545712874
21.611424,5.392294265467306,0.1621368727190521
21.615472,5.865920157702389,0.16113193383732552
21.619564,6.331913997662108,0.16065080772495202
21.623652,6.7973085424200175,0.15993632490816284
21.627704,7.261870924500721,0.15893295649161335
21.631732,7.71842340890412,0.15803862395884694
21.63576,8.163808610054375,0.1570783333975717
21.639848,8.595189899399921,0.1560395977070555
21.643944,8.998532563964833,0.1551218378857368
21.648024,9.380338571674068,0.1540912460138924
21.652112,9.729730595127553,0.15317233909149883
21.656184,10.045357100174996,0.15235535405706174
21.66026,10.327794546667143,0.15166190729670095
21.664348,10.584010637479746,0.15103551667927245
21.668436,10.816807748137782,0.15041631254419305
21.672524,11.020470402691371,0.14988282621788196
21.676608,11.206208103240394,0.14929509454278142
21.680696,11.370431982284806,0.1486903641441812
21.68478,11.510228939399703,0.14810425749134729
21.688868,11.623594508710719,0.14758704828185473
21.692956,11.71883650956837,0.14707438797447048
21.697048,11.794404793373557,0.14663155653588014
21.70114,11.862406079101182,0.14612816411525875
21.705216,11.920282276377213,0.14564642977413084
21.709299999999995,11.967025443426698,0.14519478306022912
21.713376,12.000276104324403,0.14477797743041995
21.71746,12.029006427820454,0.1443220875505012
21.721544,12.047302323516169,0.14394426734132088
21.725624,12.061001409936887,0.14360693407360955
21.729704,12.07279533770765,0.14328934747873934
21.733788,12.091877725378442,0.1429123503851572
21.737872,12.113098139174594,0.14253542291736473
21.741952,12.140709795995763,0.14210649114119686
21.746036,12.165286209816557,0.14168476060453955
21.75012,12.191756364611779,0.141221195530129
21.754207999999995,12.21911231860648,0.14072362502116656
21.758296,12.240298479376033,0.14027272366324786
21.762388,12.256666381070717,0.1398691993267387
21.766483999999995,12.271018399215516,0.1394880399332016
21.77058,12.286378359135256,0.13909554249399358
21.774672,12.304307827104568,0.13866276098615127
21.778768,12.322680194673616,0.1382136553571385
21.782856,12.340598244967392,0.13775771893975666
21.786943999999995,12.35447311048585,0.13731999815417792
21.791032,12.363186124554108,0.13691315226593836
21.795124,12.375488006122414,0.13648082410799087
21.799212,12.384766062365877,0.136082521664624
21.803288,12.396060002159233,0.13566296307184164
21.807376,12.414409534377217,0.13517129317074303
21.811468,12.435217849744834,0.13464458425001377
21.815552,12.447619038537537,0.13418824805278157
21.819636,12.461360343804994,0.133710609812729
21.823728,12.469829072722316,0.13326782534810347
21.827824,12.482329568739424,0.13278509414498701
21.831916,12.488217371931642,0.13235790183415855
21.836008,12.495899608873888,0.13191938462590744
21.840104,12.505376279566153,0.13146871230495474
21.8442,12.51697955870825,0.13099300293571453
21.848236,12.531606663175184,0.13048780570264376
21.852324,12.547684609016805,0.12995748002885846
21.856372,12.557039137133607,0.12948565899993777
21.860456,12.565042131100125,0.12900970460548183
21.864544,12.564637998491726,0.12859782932318506
21.868636,12.564344590783266,0.12818173536969157
21.872728,12.5660670666247,0.1277443408912844
21.876816,12.564422124765956,0.12732288002195682
21.8809,12.557848198932412,0.12694569911829154
21.884988,12.552392939773753,0.12655503972946266
21.88908,12.542008696640291,0.12621014141544404
21.893168,12.528157728582254,0.1259104301604358
21.897255999999995,12.519235744499014,0.12556567345639766
21.901347999999995,12.506281993315985,0.12525917467280331
21.905344,12.494004009208098,0.12495437524841407
21.909396,12.477694258000424,0.12468785960629589
21.913484,12.46587059116781,0.1243926434813303
21.91758,12.450690924310551,0.12413787720521051
21.92168,12.433384649003465,0.12390583671483922
21.92576,12.416421966071713,0.12368782982757483
21.929844,12.39700049999033,0.12350443178758695
21.933928,12.3764717849096,0.12336031405256466
21.938008,12.365025963478924,0.12315716820543952
21.9421,12.354599501498727,0.12297050355385784
21.946184,12.353931700243724,0.12272759302368727
21.950276,12.355623374913954,0.12248068513477707
21.954363999999995,12.360350292584553,0.12223219637012428
21.958452,12.365199352830622,0.12200567303691053
21.962536,12.378344814751664,0.12172294153266561
21.966619999999995,12.390936652173036,0.12146103613473132
21.970708,12.403761357069806,0.12121759757675017
21.9748,12.418491220616538,0.12095993606090909
21.978888,12.432778184563531,0.12071915291842454
21.982972,12.451661957785518,0.1204484994102137
21.987051999999995,12.473126656732605,0.12016699168430248
21.991132,12.499863932029825,0.11985957679349836
21.995216,12.525261090852299,0.11957388530678617
21.9993,12.556595175424517,0.11923943438332645
22.003376,12.59386618574648,0.11885702854442261
22.007456,12.636398354743044,0.11842598196719563
22.011532,12.68004919041449,0.11798274772515156
22.015616,12.727953242985592,0.11749958420368861
22.0197,12.76733944408185,0.11707899959058571
22.023784,12.809073703427805,0.11663157125075665
22.027872,12.846543328198571,0.11620340633708008
22.03196,12.881653477044106,0.11578002190498708
22.036044,12.915522816639292,0.115349094420741
22.040132,12.951961664284049,0.11488324084131067
22.044215999999995,12.984811644428754,0.11443912350288615
22.048312,13.01619936552324,0.11399401556450502
22.052404,13.044330393817487,0.1135550395476759
22.056491999999995,13.072793596811538,0.11310670550667848
22.06058,13.099573090955497,0.11266470611439122
22.064604,13.123771659374357,0.11223415323161452
22.068688,13.145500026968053,0.11181103167704672
22.072768,13.16195581821161,0.11141270188272454
22.076852,13.1808703926048,0.11098450612194616
22.080932,13.195077432823062,0.11058780476835595
22.085008,13.203568997091446,0.11022986733205878
22.089092,13.206234360510026,0.10991421274363278
22.093176,13.210018390603484,0.1095875431967432
22.097256,13.210102828296959,0.1092827772649923
22.10134,13.21220314954033,0.10896159095509174
22.105428,13.212509037033673,0.10864962929280002
22.109512,13.21561730005199,0.10832209695851111
22.11354,13.220519996820329,0.10798674920065622
22.117632,13.225533418488602,0.10764833995669178
22.12172,13.228420231707046,0.10732927734958571
22.125812,13.231639219625295,0.10699983776267691
22.129908,13.232953048893586,0.10668142838802412
22.134004,13.242895454536658,0.10630977288142153
22.138096,13.25003548465476,0.10595394168765811
22.142192,13.257396964572731,0.105590921530554
22.146287999999995,13.266552878240729,0.10522056220180571
22.150379999999995,13.279408384308706,0.10483228161578001
22.154476,13.292263890376685,0.10444333730594456
22.158512,13.303214237794704,0.1040670784560222
22.1626,13.316401918562487,0.1036697567068887
22.166692,13.328692382455257,0.10327525936841526
22.170728,13.340307079272886,0.10287719569724299
22.174816,13.352818992965526,0.10247705532685752
22.178856,13.363647197808078,0.10208095048146283
22.182948,13.377720677775338,0.10165722803675972
22.187044,13.390786215967655,0.10124116791844032
22.191132,13.402168045309882,0.10083035391853387
22.195228,13.412541932877158,0.10042763452329317
22.19932,13.422805095544504,0.10002919564574536
22.203375999999995,13.43418692488673,0.09962054381036205
22.207408,13.445458029329021,0.09921620033965639
22.21144,13.462555334621122,0.09877790160821895
22.215528,13.474945105738295,0.09836633802520513
22.21958,13.488453543530348,0.09794433999623361
22.223604,13.504653631947436,0.09751342618693189
22.2276,13.518272794639424,0.09708956949726143
22.23168,13.528303089831363,0.09668032339160615
22.235764,13.53866555972311,0.09626022762963679
22.239844,13.54802008783991,0.09584718371055413
22.243928,13.553232123956986,0.0954642772686621
22.247964,13.562365202273917,0.0950581794247358
22.252052,13.573071264541003,0.09465253331818746
22.256136,13.578061850858207,0.09427622901489169
22.260207999999995,13.58092582872559,0.09391543342688195
22.264284,13.57841792301843,0.09359806883679875
22.268368,13.577483001261426,0.09328145159754862
22.272455999999995,13.573413529279645,0.09298756554644351
22.276532,13.566320231973021,0.09271289375315206
22.280616,13.559005484866534,0.09244513459587976
22.284696,13.551247838160302,0.09219111995046167
22.28878,13.541142133204376,0.09196008994174315
22.292852,13.526783211348793,0.09176189434811005
22.296936,13.513100056568355,0.0915674205421691
22.30102,13.501554927913276,0.09138097632681519
22.305108,13.491582783208349,0.09119589861073664
22.309192,13.48296217265371,0.0910182487828783
22.313276,13.473787937599392,0.09085727870519082
22.317368,13.468546162420463,0.09069880035083938
22.321452,13.465885312966632,0.09053522319491723
22.325524,13.467599822987925,0.09036071774779461
22.329608,13.470555142259567,0.0901980101458756
22.333692,13.476202112156246,0.09002746578418931
22.337784,13.486113716628113,0.08984945326002534
22.341876,13.502305839225063,0.08965213425904436
22.345972,13.523205495996944,0.08943434041155397
22.350068,13.543207935893811,0.08921989446165253
22.35416,13.565680576615843,0.08900361559584034
22.358256,13.591963534637795,0.08876971644322418
22.362352,13.617914317959942,0.0885462811426361
22.366447999999995,13.644086551081958,0.08831664576114559
22.370544,13.671377450878856,0.08807731044943315
22.37464,13.703265159950744,0.08782220687235624
22.378732,13.733812752547884,0.08758376056956137
22.382828,13.76166869451999,0.08735392074164502
22.386924,13.782014726792195,0.08715576047012362
22.391016,13.804265917714357,0.08694966843103859
22.395112,13.828643717086347,0.08672872082174198
22.399208,13.854250908033157,0.08649715485751601
22.403303999999995,13.87784221543007,0.0862781758390097
22.4074,13.89896332200182,0.08606089955357336
22.411496,13.915819793998379,0.08585029934578273
22.415592,13.928865948695021,0.08565694629260037
22.419692,13.942355002991402,0.08545111615207222
22.423788,13.956065507087656,0.08524011616165895
22.427883999999995,13.968989519208831,0.0850291235951999
22.43198,13.980229822479917,0.08481973643319214
22.436076,13.991802300450809,0.08460086449412137
22.440172,14.005169212171724,0.08437823541912556
22.444264,14.020773457242402,0.08413866654320623
22.44836,14.036488427213014,0.08389638028629538
22.452456,14.055337947408402,0.08363508905679069
22.456552,14.068128399278574,0.08338413771429257
22.46064,14.079788766798336,0.08311850714468183
22.464676,14.092789250792844,0.08283802632399792
22.468768,14.109821501887145,0.08253519447643085
22.472856,14.125391493931222,0.08222827309282038
22.476944,14.140285718900158,0.08191801229530642
22.481044,14.150693859494037,0.08161990977813466
22.485132,14.158742524162683,0.08131852283542736
22.489232,14.169815014156171,0.0810018473160512
22.49332,14.184697821449577,0.0806708259930465
22.497352,14.201142195017601,0.08031909365661956
22.50144,14.218815960160445,0.07995741466488406
22.505476,14.230209207178202,0.07961054740959143
22.509512,14.240029470245807,0.07926199079513381
22.513559999999995,14.253660050613334,0.07889960439347134
22.517648,14.268409297655738,0.07852980241140387
22.52168,14.280799068772907,0.07815795715296789
22.525772,14.290718639064917,0.0777866057706381
22.52986,14.30164615113187,0.07741104764375037
22.533908,14.309549837873982,0.07705123110788256
22.537952,14.319247958366118,0.07668718652437345
22.541984,14.33185917928316,0.07631188151259902
22.546019999999995,14.34245451665031,0.07594646882574511
22.55006,14.355962954442361,0.07557085246184013
22.55414,14.369582117134351,0.07519291455465886
22.558184,14.386114380251247,0.07480522329457484
22.56226,14.399954992743103,0.0744220443575616
22.566304,14.418503139409893,0.07402468519972656
22.570384,14.437272735876551,0.07362341999785071
22.574468,14.454358623493118,0.07322383147892352
22.578548,14.47032584443481,0.07283257443107882
22.582632,14.486071615576629,0.0724492712834312
22.586716,14.508319354643396,0.07204959354988293
22.590748,14.53258297726006,0.07164192473629082
22.594836,14.556060107901647,0.07123462766730163
22.598924,14.57886147146809,0.07082419322485842
22.603012,14.601441385234663,0.07042065584720385
22.607104,14.626491499826404,0.0700200149949329
22.611196,14.650644397543132,0.06962200320213499
22.615284,14.676923903709687,0.0692132297633013
22.61938,14.705330018326071,0.06879398049240598
22.62348,14.729704365842672,0.06839235678742465
22.627572,14.758110480459056,0.06797467128103349
22.631668,14.780125352050424,0.06756974885864984
22.635764,14.799005673417017,0.06718035201701943
22.639856,14.812281243733668,0.06680517881647266
22.643951999999995,14.833066723750221,0.0664122326065981
22.648048,14.851049828241802,0.0660269444320092
22.652144,14.86377177405878,0.06566841249151631
22.656244,14.874477836325863,0.06531818238091662
22.66034,14.885970390568023,0.06497004975039335
22.664428,14.89286613553519,0.06463067109174084
22.668524,14.895054346327425,0.06430318636014218
22.67262,14.892313573144865,0.06399238330779475
22.676715999999995,14.885762482662386,0.06369139293967704
22.680812,14.87898994238004,0.06339634211878568
22.684904,14.870644418147538,0.06309723240550003
22.689004,14.85590765089002,0.06280740280337045
22.6931,14.842178825407448,0.06251379810451796
22.697195999999995,14.825647624399906,0.06222564316907597
22.701287999999995,14.80710053984247,0.061944917414002494
22.705384,14.793371714359898,0.06165079070729262
22.70948,14.778634947102379,0.06136082918216413
22.713576,14.767487047344911,0.0610667612444859
22.717672,14.763505464911999,0.06074425836431602
22.721768,14.759191707779284,0.060429357572298885
22.725864,14.747257316046737,0.060132359008014176
22.729959999999995,14.738125299839156,0.05983039206580086
22.734056,14.730222675206397,0.05951822454257901
22.738152,14.724225209223594,0.05920144730811802
22.742248,14.719457134815606,0.05887573896189159
22.746344,14.717491435932585,0.05854467955875992
22.75044,14.716533678824515,0.05820971856476188
22.754472,14.721402122566255,0.05785926737220259
22.758564,14.731088825382859,0.057497328085670735
22.7626,14.74268068684942,0.05713235979527433
22.766691999999995,14.752932431841229,0.05677874899916777
22.770727999999995,14.769796869657927,0.05641237121679983
22.774824,14.784756148824664,0.05605073435361815
22.778916,14.799493978191533,0.055694448755784394
22.78296,14.813113140883521,0.055344271951319565
22.786992,14.82370847825067,0.055004934052586926
22.791024,14.833185148942936,0.05467250653459965
22.795107999999995,14.842551094735265,0.05434338083533129
22.799199999999995,14.84654515695306,0.05404018904991764
22.803288,14.854460261370706,0.05372675234458553
22.807336,14.867082899963279,0.05340544124957383
22.811432,14.87600594615587,0.053089113399164986
22.815524,14.886834150998421,0.052769295205587104
22.819608,14.893630588741184,0.05246173394691802
22.823692,14.895387317609215,0.05216976874190298
22.82778,14.892547237202251,0.05188160563845063
22.831872,14.888588490120409,0.051599023736270754
22.835956,14.881495192813789,0.05132887244731224
22.84004,14.86857569465736,0.05107128058865236
22.844124,14.848822053876175,0.05082894977926426
22.848208,14.830297804669804,0.05057703520229326
22.852291999999995,14.80605807951356,0.050334347633499435
22.85638,14.77789731215746,0.05009978634680101
22.860464,14.747044894176328,0.04986449358237299
22.864548,14.715295259320184,0.04962832628892608
22.868628,14.678162323213966,0.04939159722033387
22.872716,14.634527419182799,0.04916013182460243
22.8768,14.585287764101688,0.04893377052295658
22.88088,14.528648924220615,0.04871243873550866
22.884964,14.462595015989685,0.04850188962534853
22.889052,14.385220880758935,0.048304903719189815
22.893135999999995,14.298099502478527,0.048126920573026616
22.89722,14.199768622098235,0.04795894824910777
22.901308,14.096165165367808,0.047785900839253034
22.9054,13.985051798937478,0.047619972250491645
22.909484,13.869906665407367,0.047463526033854786
