Time,Force,Position
23.308968,0.1836352254208625,0.0
23.313056,0.18665905074570258,0.0
23.31714,0.18968287607054266,0.0
23.32122,0.19259597649544788,0.0
23.325308,0.20413765329513386,0.0
23.329392,0.2128769545698495,0.0
23.33348,0.22262419761951183,0.0
23.337568,0.23315793264425108,0.0
23.341656,0.2430159005938483,0.0
23.345744,0.2482770592684515,0.0
23.349828,0.2505143926182146,0.0
23.35392,0.25241955126817317,0.0
23.358004,0.24479891666833908,0.0
23.362088,0.23739973186837476,0.0
23.366176,0.231119213743292,0.0
23.370264,0.2269653040680375,0.0
23.374356,0.22057406104301985,0.0
23.3784,0.21597725176802587,0.0
23.382496,0.21037250071808522,0.0
23.386592,0.20398125769306755,0.0
23.390688,0.19759001466804993,0.0
23.394784,0.1891828880931389,0.0
23.39888,0.18055431171835815,0.0
23.402976,0.17282295221858923,0.0
23.407072,0.15825745009406317,0.0
23.411108,0.14294767632450228,0.0
23.415192,0.12793927460023669,0.0
23.419248,0.11483603152592964,0.0
23.423332,0.10475661377646268,0.0
23.427412,0.09837678842697789,0.0
23.431504,0.09491006350239835,0.0
23.43554,0.09547510567760556,0.0
23.439576,0.1008584069276765,0.0
23.443604,0.11083851745274141,0.0
23.447636,0.11969996130292478,0.0
23.451688,0.1257590296281378,0.0
23.45568,0.13383398150324421,0.0
23.459776,0.13809861607843354,0.0
23.463856,0.1443791342035163,0.0
23.46794,0.1487544936786406,0.0
23.47198,0.15413779492871152,0.0
23.476064,0.16153697972867584,0.0
23.480144,0.17386514850343876,0.0
23.484228,0.18159650800320773,0.0
23.488312,0.19235169282781675,0.0
23.49234,0.20474836617247244,0.0
23.49638,0.21493850882187426,0.0
23.500416,0.2224370008462406,0.0
23.5045,0.22388784222092678,0.0
23.508532,0.22634662537055963,0.0
23.512616,0.22757601694537608,0.0
23.516708,0.22219271569530513,0.0
23.520792,0.2147935308953408,0.0
23.524876,0.2053784625454831,0.0
23.528968,0.19618484399549513,0.0
23.53306,0.18990432587041237,0.0
23.537152,0.17981349044541256,0.0
23.541244,0.17565958077015806,0.0
23.545332,0.1694897875450102,0.0
23.549424,0.16892474536980298,0.0
23.553512,0.16835970319459576,0.0
23.557608,0.1676839361194537,0.0
23.5617,0.16241135976931761,0.0
23.565796,0.16375147624406894,0.0
23.569888,0.162964984268992,0.0
23.573984,0.16318643406886177,0.0
23.57808,0.16318643406886174,0.0
23.582176,0.1640836509438736,0.0
23.586212,0.16990985179368398,0.0
23.5903,0.17494956066841746,0.0
23.594388,0.18323454466786077,0.0
23.59848,0.1933139624173277,0.0
23.602572,0.20159894641677098,0.0
23.606608,0.2121212637659774,0.0
23.610692,0.2243272899652726,0.0
23.614784,0.23451743261467442,0.0
23.618872,0.2448183001640111,0.0
23.622904,0.2520953423885077,0.0
23.626992,0.260380326387951,0.0
23.63108,0.26586293486242396,0.0
23.63516,0.26944038468693843,0.0
23.639244,0.27021545898648247,0.0
23.643324,0.2716663003611687,0.0
23.647404,0.2690853746360681,0.0
23.651484,0.2666151738109024,0.0
23.655568,0.2620183645359084,0.0
23.659644,0.2575322801608493,0.0
23.663728,0.25203825401084345,0.0
23.667808,0.2473307198359146,0.0
23.671892,0.23769420168618716,0.0
23.675972,0.2240259164366729,0.0
23.68006,0.21147629786204025,0.0
23.684148,0.20553937211229492,0.0
23.688232,0.19725438811285168,0.0
23.692316,0.18796146233846164,0.0
23.696412,0.1757554361391665,0.0
23.700492,0.1680354943149304,0.0
23.70458,0.1602048275907594,0.0
23.708668,0.15136621909164175,0.0
23.712748,0.1425276105925241,0.0
23.716832,0.13346755229353668,0.0
23.720916000000003,0.12541543576949601,0.0
23.724992,0.11567961039536653,0.0
23.729072,0.10717317659605348,0.0
23.733144,0.10269850989652721,0.0
23.737228,0.09855601789680554,0.0
23.741308,0.09531074277209574,0.0
23.745384,0.09318413432226748,0.0
23.74946,0.0892630921224156,0.0
23.753544,0.09004958409749254,0.0
23.757632,0.08803370054759915,0.0
23.76172,0.08781225074772941,0.0
23.765816,0.0828832667729308,0.0
23.769904,0.0782864574979368,0.0
23.773996,0.07290315624786586,0.0
23.778084,0.07043295542270013,0.0
23.782172,0.06638977064738051,0.0
23.786264,0.06256803567193062,0.0
23.790348,0.05997569227129716,0.0
23.794432,0.05839129064561041,0.0
23.79852,0.05983071434476374,0.0
23.802608,0.06317529669387559,0.0
23.8067,0.0721246300929281,0.0
23.810788,0.08085251369211088,0.0
23.814876,0.08431923861669045,0.0
23.818968,0.09127552381691531,0.0
23.823064,0.0974681523931289,0.0
23.82716,0.10975410232115407,0.0
23.831199999999995,0.13173365877657098,0.0
23.835296,0.17015307483526754,0.008454635677778424
23.839392,0.2341066618228297,0.016607283065503204
23.843488,0.31970763056600415,0.02504870970542252
23.847584,0.43751255144059586,0.033441374051314525
23.85168,0.5922289586215338,0.04154730319324413
23.855712,0.7822838681586638,0.049540438486199975
23.859804,1.0067800631769743,0.05745518973367174
23.863892,1.261231459301406,0.06536846794499243
23.867984,1.5464131308315032,0.07324228359997884
23.872072,1.864008786617354,0.08105353571588221
23.876104,2.2117810933091966,0.08886530229635796
23.880192,2.587714167357136,0.09670425907503417
23.884288,2.9943889344862744,0.10454896273732342
23.88838,3.428892294271706,0.112404573723744
23.892468,3.8983905640379914,0.12021098497632524
23.896556,4.400180675484565,0.12800597865376978
23.900592,4.929200084385626,0.135765439256691
23.904676,5.489690589965297,0.14346061724766765
23.908764,6.072313595747059,0.1510812944824693
23.912848,6.665050272304887,0.15869260441795977
23.916932,7.255194605462083,0.15784679578022448
23.921016,7.836664691542365,0.15728580306442314
23.925108,8.403222231267389,0.15637635419477533
23.929144,8.941485443385318,0.15545766057096602
23.933228,9.437442450271295,0.15483884580822907
23.937316,9.897263045150469,0.1543178180243638
23.9414,10.318931344472947,0.15388231839822786
23.945492,10.707952792064269,0.15345441813326585
23.949576,11.066587556625265,0.15307507643671223
23.953664,11.391246770655886,0.1527817082676445
23.957752,11.684045624930427,0.15248687027882574
23.961836,11.94834011947353,0.15213329144650817
23.96592,12.180762836585025,0.15175268626362318
23.97,12.37862212563987,0.15136526383311025
23.97408,12.537443319938541,0.1510506623905943
23.978164,12.66912310633159,0.15071775193126954
23.98224,12.774459394469632,0.1503919600494505
23.98632,12.855368760678159,0.15008147871824157
23.990404,12.906822913757964,0.1498604640028482
23.994492,12.940707122884076,0.1496189361762968
23.998572,12.957597847907234,0.14938461044518128
24.002652,12.958514448277919,0.14917111353310974
24.006744,12.949439520448008,0.1490150956506751
24.010824,12.932866100593728,0.14895220068702653
24.014912,12.918774299240145,0.1489015619721564
24.019,12.904251015962355,0.14889257996739805
24.023088,12.89422523473516,0.1488733699654615
24.027176,12.885993887257989,0.14883982232353005
24.031264,12.877751122105282,0.1487807731377593
24.035356,12.873196531677026,0.14866365867000503
24.03944,12.868752666148703,0.14854233276649118
24.043528,12.861063525495672,0.14846264246269736
24.047616,12.853607252318044,0.1484001395966077
24.051704,12.848289005265777,0.1483365542064979
24.05578,12.850259218113539,0.14821182006360567
24.05986,12.848640563461254,0.14811569143148498
24.063896,12.84107356538369,0.14805686666181817
24.067976,12.821056255955895,0.14809282231141965
24.07206,12.801592571027776,0.14810858945169444
24.07614,12.777199902124858,0.14817592446212782
24.08022,12.757182592697061,0.1482116207997023
24.084304,12.743113626694546,0.14820979717137295
24.088388,12.730728369542119,0.14819782099824774
24.092476,12.726860963864537,0.14810617875326076
24.096568,12.726914600386806,0.14797401509372876
24.10066,12.729537744958646,0.14779892835022138
24.104748,12.732825238930094,0.1475997346301594
24.108832,12.737009949776553,0.14739380379606357
24.112916,12.74086248592321,0.1472002372434918
24.116992,12.7424776887201,0.14703728612809844
24.12108,12.742863499942175,0.14689318971748544
24.125164,12.745154469814208,0.14673090546084505
24.129248,12.747445439686242,0.1465686638884696
24.133336,12.74872846778333,0.14641713832347472
24.137424,12.742169411480713,0.14634598606648525
24.141516,12.738191280903196,0.1462579235006584
24.145612,12.73847778490087,0.14614304788311008
24.149708,12.746949965673583,0.14596049355845514
24.153796,12.754303479771417,0.14579283066718227
24.157888,12.768269686694138,0.14556400886978715
24.161984,12.782014443816989,0.14534456010685207
24.166072,12.792735375614997,0.14515897485889653
24.17016,12.802902682913333,0.1449937797863426
24.174256,12.81004616488683,0.1448623789510422
24.178348,12.818873355710414,0.1447220131018622
24.182444,12.83006002245923,0.14457404151796852
24.186528,12.841590281583384,0.14444009331040178
24.190608,12.853120540707538,0.1443066382402031
24.194684,12.86274564118173,0.14419032948915997
24.198776,12.876181058955844,0.1440401232675641
24.202864,12.893316069129938,0.1438593883804543
24.206952,12.911126846379174,0.14368032757053673
24.211036,12.92893762362841,0.14350140641233985
24.215124,12.95436903547748,0.1432551183632086
24.219208,12.991120674326364,0.14291094054664025
24.2233,13.025180662550214,0.14258712760210848
24.227384,13.057446217024042,0.1422774154921787
24.231472,13.091506205247892,0.1419574973880314
24.235556000000003,13.130949494721813,0.1415999642397153
24.23964,13.164566583345925,0.14129772890703343
24.243724,13.19717573019509,0.14100700417203343
24.24782,13.232587252569225,0.14069450880998552
24.251912,13.271133325168135,0.14034864330045835
24.256008,13.308671455992098,0.1400135337549422
24.2601,13.344636602865908,0.13968541213110067
24.264196,13.377123607139604,0.13937959326502988
24.268284,13.408148352363083,0.139075751517018
24.272372,13.437267938936603,0.13878850775511672
24.276468,13.473221668134881,0.13844045582807726
24.280556,13.50256270450827,0.13814772762767086
24.284652,13.531227973806518,0.13785490657495086
24.288744,13.563138518229474,0.13752709243684663
24.292832,13.596167729327313,0.1371864897036747
24.296932,13.62381363917508,0.13688486863787078
24.301024,13.643384597147739,0.13663858828425146
24.305124,13.666765872420317,0.1363621188089568
24.309152,13.692163031242787,0.13606740000561862
24.313236,13.714979264340158,0.13578833061156367
24.31732,13.73745190506219,0.13549907743213097
24.321404,13.767090863108788,0.1351419534127631
24.325492,13.797394170554991,0.134764179030106
24.329588,13.824551510100887,0.13439567822449958
24.333684,13.847444215071594,0.13404883036683513
24.33778,13.870779819642042,0.1336877426065136
24.341876,13.892320990462464,0.13333833664539202
24.345972,13.916775261707793,0.1329658300662198
24.350064,13.945150575152972,0.13256265717228116
24.35416,13.97755765569794,0.1321245278651513
24.358248,14.004470710092903,0.13172517426780914
24.362336,14.036534198262531,0.1312774529967464
24.366428,14.071732236656935,0.1308025833231213
24.37052,14.10222274087641,0.13036368755357014
24.374604,14.13282396999582,0.1299227991953428
24.378696,14.164322415990243,0.12947795087603695
24.382784,14.197836745534557,0.1290156415547222
24.386868,14.226975715603748,0.12857709982699142
24.390956,14.255328193697864,0.12814209641526364
24.395048,14.282107687841822,0.12771117226575807
24.399132,14.303958198010987,0.12732108943487752
24.403224,14.318298798480248,0.12698369441076604
24.407316,14.331631457174563,0.1266557724991246
24.411404,14.343845449193996,0.12633959352407398
24.415488,14.359759033613413,0.12600036012516597
24.419576,14.377799226482658,0.1256419777009857
24.423664,14.398076752701668,0.1252604929480007
24.427752,14.417678511845532,0.12487868746853609
24.431832,14.428762419514552,0.12455504491863428
24.435904,14.437265401458474,0.12424375446237793
24.439988,14.447784266952286,0.12391638632501527
24.444072,14.452587656496222,0.12362814941462853
24.448152,14.45178629499022,0.12337613041029931
24.452236,14.451427833083955,0.12311023979515555
24.45632,14.449385662327602,0.12285054088079815
24.460396,14.446556999596174,0.12259240400143914
24.46448,14.444514828839822,0.12233328511846919
24.468564,14.443591324758348,0.12206235987730285
24.472648,14.441094836726725,0.1217940638346026
24.47674,14.441511449120004,0.12150549875624077
24.480828,14.443268177988037,0.12119835347577398
24.484916,14.448835224155983,0.12086594266749015
24.489,14.453615778348857,0.12053489209652042
24.493088,14.463436041416461,0.12016483043308988
24.49718,14.472691262308858,0.1197905508112843
24.501264,14.47533379037637,0.11945749707466087
24.505352,14.475849709994051,0.11914380949888509
24.50944,14.47457119586171,0.11883925219842932
24.513524,14.480126824354127,0.11848658829391429
24.517608,14.48478523597153,0.1181385544025538
24.521688,14.487427764039042,0.1178063479945257
24.525772,14.492086175656446,0.11745760999057561
24.529844,14.499546962798819,0.11709261708996076
24.533932,14.508580733891346,0.11672624447631709
24.538012,14.522543488958672,0.11632651288841078
24.542092,14.534711810275976,0.11593536421793096
24.546172,14.544409930768113,0.11555055899827105
24.550252,14.55668897698535,0.11515728183399637
24.554336,14.567173589452565,0.11477200434543218
24.558416,14.573958609519797,0.11440745953610036
24.562504,14.581751571361975,0.1140357512576324
24.566588,14.586963607479056,0.11367343171298327
24.57068,14.591167701821188,0.11331827381473496
24.574772,14.590774986888325,0.1129875669013702
24.57886,14.587469171530557,0.11267575113542731
24.582948,14.58976810722273,0.11233249700587915
24.587032,14.595090868239744,0.11196784352602486
24.59112,14.601310846131769,0.11159944230481357
24.5952,14.605957840073637,0.11123348556542141
24.599284,14.611612775790457,0.11086058322105827
24.603364,14.616702669332067,0.11048142333000839
24.607448,14.629634647273381,0.1100534457435752
24.61154,14.638867032814712,0.10964415793261943
24.615632,14.64652643440589,0.10923655909006091
24.619724,14.648470360047192,0.10886254231623065
24.62382,14.65164367726331,0.10847473281481376
24.627908,14.657730094904334,0.10806953032862372
24.632004,14.662575703295012,0.1076566537914656
24.636096,14.67033441211059,0.10722611899030218
24.640192,14.677982396026238,0.1067982453318305
24.644284,14.685519655041947,0.1063742479462005
24.64838,14.694519173107876,0.10595273238868362
24.652472,14.706321066698777,0.10551751338423383
24.65656,14.721601102889787,0.10507205408490608
24.660648,14.738454123030953,0.10462601446298003
24.664744,14.757323026722014,0.10416878179935506
24.66884,14.772492338013091,0.10372960835890287
24.672928,14.787550924404233,0.10329435908466159
24.677012,14.800937219620819,0.10288533546293623
24.6811,14.8139913401376,0.10248654361408703
24.685184,14.832539486804391,0.10206582893516164
24.689276,14.843921316146616,0.10169604111496161
24.693363999999995,14.86359954716382,0.10129187874762577
24.697448,14.883842820356229,0.10089441154971762
24.701532,14.906667019273739,0.10049090094328039
24.70562,14.933645127866505,0.10008269567754377
24.709704,14.958385903109505,0.09969438379233592
24.713736,14.980446445403006,0.09933778570005844
24.717832,15.002850580071842,0.09899471562195394
24.72192,15.02682769869083,0.09865172869689247
24.726008,15.049575425735004,0.09832161759286903
24.730104,15.078149353628987,0.09796309512268338
24.734192,15.108517715272997,0.0976006372354257
24.73828,15.13687019336711,0.09725174515190362
24.742308,15.168135771886128,0.09688945689067391
24.7464,15.198171958830331,0.09654176383244122
24.750492,15.2306783465997,0.09619206937064013
24.754584,15.264192676144017,0.0958377175265406
24.75862,15.299722889238225,0.09547211491816836
24.76266,15.335253102332434,0.0951072890799216
24.766692,15.366419373627052,0.09477688111601816
24.770724,15.395791211171646,0.09445161010549186
24.774748,15.416534472341459,0.09416795805218559
24.778784,15.438285675286219,0.09387928439552908
24.782876,15.456115836031127,0.09361069842694561
24.78696,15.469238462601107,0.09336275725238616
24.791056,15.48505273979612,0.09310720555333654
24.795084,15.502772175641091,0.09284313416549582
24.799112,15.521610278160948,0.09257137829175266
24.803148,15.542464264230695,0.0922891606565662
24.807236,15.569144451150253,0.09198066868366435
24.811324,15.584172236370188,0.09172788227964591
24.815412,15.594160312715392,0.09150338882771729
24.8195,15.604824156135736,0.09128259050518243
24.823592,15.609551073806337,0.09109222323718096
24.82768,15.608341065727192,0.09093189263954304
24.831768,15.607917549623124,0.09077230677112041
24.835856,15.607051133919317,0.0906247556638904
24.839944,15.603493067590472,0.09048471070918836
24.844028,15.601618710111719,0.09034279687610083
24.84812,15.600076527332769,0.09019212004878838
24.852212,15.603020428928879,0.09002905477390741
24.8563,15.607980214074882,0.08985488413117143
24.860388,15.609018957021034,0.08969931388181579
24.864472,15.614875959042047,0.08952266953567202
24.868568,15.617930585538094,0.08935590527607477
24.87266,15.61717489473422,0.08920491411988697
24.876756,15.616640653730215,0.08904812275007437
24.880844,15.611177428751414,0.0889151627835768
24.88494,15.604706261997663,0.0887877241520065
24.889036,15.589495793969203,0.08869927441516608
24.893124,15.582913902315523,0.0885745944250363
24.897212,15.579466560886615,0.08843102025113121
24.901248,15.572651801757528,0.08829092013914216
24.905336,15.57098747640311,0.08812141482976836
24.909364,15.575370801698375,0.08792013051106064
24.913448,15.5770624763686,0.08772610613289765
24.917532,15.577181167088675,0.08753099048952018
24.921624,15.582007391983678,0.08731879165392836
24.925708,15.58537135782846,0.08710290947556683
24.929748,15.584925006373327,0.0869015802291743
24.93384,15.582794946068105,0.08670219265398021
24.937872,15.582570044412844,0.08649550680202275
24.94196,15.58604473515756,0.08627678900888264
24.94604,15.5884007592274,0.08606664252017222
24.950132,15.598266692997134,0.08583030255805696
24.954168,15.612053668966722,0.08557676042356047
24.958256,15.627524353786399,0.08532246560342283
24.962336,15.647702572781004,0.08505157145878992
24.96642,15.663173257600683,0.08479707302910602
24.970504,15.683462201495223,0.08452281198180796
24.974588,15.700948769864793,0.08425892081638525
24.978672,15.721126988859398,0.0839900644316519
24.98276,15.74679923400401,0.08370625808751059
24.98684,15.770123420898924,0.08344187051297171
24.990916,15.792107491319088,0.08319194966704879
24.994996,15.815099503514197,0.08293736649507875
24.99908,15.838878007684386,0.08268383202497215
25.00316,15.859632686529732,0.08244590643680808
25.00724,15.879944465775338,0.08221973947991654
25.011324,15.908774096495788,0.08196498095888885
25.015404,15.941303319616221,0.08170089762729482
25.019484,15.973500368036852,0.08144615587158799
25.023564,16.00872124178232,0.0811788316704702
25.027648,16.04326634845265,0.08090865064954597
25.031736,16.073436095647853,0.08064651059452803
25.03582,16.10259790106811,0.08039017642422923
25.0399,16.13097321451329,0.08013404356926421
25.043988,16.159902152458145,0.0798655418959348
25.048064,16.197459666777778,0.07956792864467802
25.052156,16.234341414022275,0.07926763935621091
25.056248,16.269318002616806,0.07897380213018922
25.06032,16.297903348186328,0.07869586835179107
25.064404,16.322789101355863,0.07842856050250409
25.068484,16.3480070292252,0.0781534720537102
25.072568,16.371873422944258,0.07787135969897485
25.076652,16.395850541563245,0.0775870521896978
25.080732,16.421954268632067,0.07729213274380085
25.084804,16.445144895275977,0.0770073633211012
25.088888,16.46877842151963,0.07671217437176421
25.092968,16.48781513848829,0.0764294285607273
25.097052,16.501468554206877,0.07615719830517541
25.101132,16.51567559442514,0.07587218393693032
25.10522,16.524388608493396,0.0756000885891077
25.109304,16.53198295588677,0.07533502894387477
25.113396,16.542047504105312,0.07507115756689645
25.117484,16.54863390972374,0.07481073219210468
25.121568,16.551409998042253,0.07456168554146156
25.125652,16.550940811236053,0.07433089463259716
25.129732,16.543858931604962,0.07411899766805764
25.13382,16.537342094149086,0.0739137566186379
25.137908,16.53485702379299,0.07369211976451727
25.141996,16.536071545836883,0.07346193231407232
25.146088,16.538294009655722,0.07322769189770337
25.150176,16.539619256599547,0.07299492767720331
