Time,Force,Position
23.243044,0.16672432047240224,0.0
23.24714,0.17176402934713572,0.0
23.251228,0.17803312979668562,0.0
23.25532,0.18519944712124733,0.0
23.259416,0.19348443112069064,0.0
23.263504,0.2025559070952109,0.0
23.267592,0.20803851556968386,0.0
23.271676,0.21172669029413316,0.0
23.275764,0.21642280679352915,0.0
23.279852,0.21148240514319772,0.0
23.283936,0.2073284954679432,0.0
23.288024,0.2031745857926887,0.0
23.292112,0.20048293516765323,0.0
23.2962,0.19824560181789008,0.0
23.300284,0.1962297182679967,0.0
23.304372,0.19869991909316242,0.0
23.308464,0.19477887689331055,0.0
23.312556,0.18873122624363037,0.0
23.316644,0.1876125595687488,0.0
23.320732,0.18469945914384361,0.0
23.324816,0.18380224226883182,0.0
23.3289,0.17718954944394447,0.0
23.332984,0.16643436461933542,0.0
23.337076,0.1566871215696731,0.0
23.341172,0.14963152914504624,0.0
23.34526,0.139773561195449,0.0
23.349352,0.13159930209594056,0.0
23.353444,0.12633814342133737,0.0
23.357536,0.11805315942189405,0.0
23.361624,0.11649159314727302,0.0
23.365712,0.11683518552261049,0.0
23.369808,0.12210776187274654,0.0
23.373904,0.12177558717294193,0.0
23.378,0.1193053863477762,0.0
23.382096,0.11582724374766376,0.0
23.386192,0.11761025982215458,0.0
23.390288,0.12309286829662752,0.0
23.39438,0.12879692657097025,0.0
23.398476,0.13270655109528928,0.0
23.402572,0.13560823384466164,0.0
23.406668,0.13347020771930054,0.0
23.410756,0.13626116556873802,0.0
23.414852,0.14017079009305708,0.0
23.418948,0.14307247284242947,0.0
23.423044,0.14306105516689654,0.0
23.427136,0.14506552104125708,0.0
23.43122,0.14976163754065314,0.0
23.435308,0.15244187049015573,0.0
23.439396,0.15501137853972347,0.0
23.443484,0.15377056928937416,0.0
23.447576,0.15062460138906636,0.0
23.451656,0.14288182421376455,0.0
23.45574,0.13917081413824955,0.0
23.459828,0.1384950470631075,0.0
23.46392,0.14151887238794758,0.0
23.468012,0.13827359726323774,0.0
23.4721,0.13581481411360485,0.0
23.476196,0.13223736428909047,0.0
23.480292,0.12854918956464115,0.0
23.484324,0.12385307306524515,0.0
23.488408,0.11937840636571889,0.0
23.492496,0.11277713121636436,0.0
23.496588,0.10606513116707497,0.0
23.500676,0.09876773774780785,0.0
23.504764,0.0915810692284756,0.0
23.508848,0.08428367580920848,0.0
23.512932,0.07530257353985258,0.0
23.51702,0.06732941304544336,0.0
23.521108,0.06047491922591572,0.0
23.525184,0.055525584056346604,0.0
23.529264,0.05057624888677748,0.0
23.533296,0.04731062256729714,0.0
23.537328,0.04292632957293524,0.0
23.541416,0.03797699440336612,0.0
23.545504,0.03022528370882666,0.0
23.549588,0.024600181464115457,0.0
23.553676,0.018188587244327308,0.0
23.557764,0.014645390446411414,0.0
23.561856,0.015500388474685484,0.0
23.56594,0.02580470787941583,0.0
23.570028,0.04983440091132467,0.0
23.574104,0.08716940332173823,0.0
23.578184,0.1580484743383204,0.009669584584116552
23.582264,0.26968111783146903,0.018380031785027423
23.586344,0.41890101470610586,0.0267273172475469
23.590428,0.6075140163877873,0.03488933990043026
23.594508,0.8369709642511998,0.042849430338516355
23.598588,1.09681459514494,0.05073847440506447
23.602668,1.3830017242936887,0.05862006613331815
23.606748,1.70395089594789,0.066382608276086
23.610832,2.0582112687328564,0.0741000982740445
23.614912,2.4463478848237963,0.0817883916906533
23.618996,2.8682614369963075,0.08949721102822422
23.623084,3.3312403851504193,0.09713450391532044
23.627176,3.83683487788522,0.10463907221040787
23.631268,4.375053387000111,0.11209839214319556
23.635364,4.942639219694852,0.11953585063410067
23.639452,5.53548316929722,0.1269589407179687
23.643548,6.150261004652872,0.1343720136598548
23.647632,6.782708091186622,0.14179097842733024
23.651716,7.431117884697315,0.14917087490855166
23.655792,8.089706403181877,0.15647652027684789
23.659836,8.720233461534743,0.15405762510100748
23.66394,9.304178262404935,0.15259875774314882
23.668028,9.847034831942464,0.15147740792374265
23.672116,10.344970017496344,0.15051178754631672
23.676212,10.793066252767307,0.14976391631054084
23.6803,11.210787222683475,0.1491112448818838
23.684332,11.610029614095405,0.14843994810166947
23.688424,11.975972222052102,0.14788632731138715
23.692508,12.308714353777967,0.14737398837352042
23.696596,12.606560882747381,0.14687710932146172
23.700684,12.873742190508933,0.14627828510589586
23.704776,13.090530923487895,0.14577699227909224
23.708808,13.260550202210913,0.1454287118935099
23.712896,13.398399781829113,0.1451345971105247
23.716984,13.51283038129274,0.14482940948421996
23.72108,13.60295620140232,0.14453993785888286
23.725172,13.672243967082428,0.14421946961153514
23.729264,13.71888782690751,0.14385479972679868
23.733352,13.733472712527707,0.1435248423306865
23.737444,13.72265698747004,0.14326506535228364
23.74154,13.708485262387729,0.1430466447680004
23.745632,13.70129265785671,0.14283243898213419
23.749668,13.70153349115225,0.1426320986131319
23.753756,13.711345788399717,0.14244595725911322
23.757844,13.731615348798584,0.1422430660623477
23.761932,13.75400009997175,0.14199307941583725
23.766016,13.773559640268878,0.14172149631818504
23.770052,13.790759704640774,0.14145712925760456
23.77414,13.808635536087813,0.1411943222795441
23.778232,13.828771536235683,0.1409517235241986
23.78232,13.844123530335285,0.1408218486889654
23.786412,13.871162179161107,0.1406592376453911
23.790504,13.903251954537195,0.14047048216423613
23.794592,13.938919179737802,0.1402351384369913
23.798676,13.967175802462908,0.14003348003714303
23.802768,13.991267097837227,0.13982761781558395
23.80686,14.00605404976162,0.1396933082007039
23.810952,14.019955202486537,0.1395892439339384
23.815044,14.037578782962502,0.13950404130192268
23.81914,14.05711893976396,0.1394265386671943
23.823228,14.07374599614051,0.13937439012997324
23.827312,14.091037401916669,0.13930035052204523
23.831396,14.102823363867293,0.1392425569382537
23.835428,14.10899315709244,0.13920458495273869
23.839508,14.11459790814238,0.13916165509638923
23.843588,14.11998120939245,0.13912629825209868
23.847668,14.119206135092908,0.13915174785992018
23.851756,14.120225494543385,0.13916548864767342
23.855836,14.121577028693668,0.13916833331021905
23.85992,14.123703637143496,0.13914584173622557
23.864004,14.131312854067799,0.13906181215915436
23.868088,14.140372912366786,0.13895460237038118
23.87218,14.149322245765838,0.13885116128651084
23.876268,14.155812796015258,0.13878122915950084
23.880356,14.168251689689956,0.13868257543859755
23.884444,14.18462304324004,0.1385736728352959
23.888528,14.209512248264968,0.1383998144178092
23.892616,14.2347336279897,0.13821621103412704
23.896704,14.267121325038994,0.13796682605777708
23.900792,14.299619746988224,0.1377138117793556
23.904876,14.337722919987396,0.13742113380518864
23.908956,14.376391135161773,0.13713479442977133
23.913036,14.419656159611144,0.13681825711933962
23.917016,14.466620776460498,0.13647682310230994
23.921096,14.514028292909591,0.1361227109764992
23.925148,14.561878708958425,0.1357570657996277
23.929232,14.611290691281878,0.1353649068237001
23.93332,14.660137631430125,0.13496858842756768
23.937408,14.712008396903212,0.1345488439525357
23.941488,14.761298236651196,0.13414294694092663
23.945576,14.806323441823992,0.13375893864984445
23.949668,14.852123721296334,0.13335555422844317
23.953748,14.897912583093142,0.13293123547419447
23.95784,14.941895593464393,0.13249616912918896
23.961928,14.979033043535356,0.13209361053492674
23.96602,15.01414319238089,0.1316876928349344
23.97012,15.043304997801147,0.13130930745956548
23.974152,15.072123210846067,0.13092093989644904
23.97824,15.092079980040804,0.13058166167814536
23.982324,15.11572492395999,0.13019869387447733
23.986416,15.137231841753813,0.12981612206582543
23.9905,15.16141899249714,0.12939962653762255
23.994584,15.182349450440224,0.12899401590720688
23.998672,15.203501358183177,0.1285836393954878
24.00276,15.225771932601013,0.1281636041486031
24.006844,15.24725601504377,0.127746835442102
24.010932,15.270755981036423,0.12731553071655263
24.015024,15.296604005278773,0.1268601784271082
24.019108,15.318973886921011,0.12642238423902905
24.023196,15.346494202337917,0.1259442671594887
24.02728,15.377149067979598,0.12544109909127985
24.031364,15.401977732771467,0.12497993584878378
24.035448,15.42557700598852,0.12453345779971967
24.039544,15.452200104530414,0.12406559377285609
24.043636,15.483076419971965,0.12356120036868466
24.047676,15.514395635013255,0.12304544279573636
24.05176,15.551651775804292,0.12248990329946728
24.055852,15.588010699720314,0.12194073209587065
24.05994,15.626496232086165,0.12137319828804947
24.06402,15.662965880902126,0.12082413594032247
24.068112,15.700664921292901,0.12026457336534549
24.0722,15.734099327108488,0.11972289864973674
24.076292,15.769660341373902,0.11916516135640787
24.08038,15.80689364681387,0.11858551867133647
24.084468,15.846475010503537,0.11798687894772147
24.08856,15.886499273792944,0.11737870853401794
24.092652,15.925282727832002,0.11676599564767969
24.096744,15.965517023245745,0.11613882597431316
24.100836,16.00540772628415,0.11550188545546569
24.104928,16.043946895172276,0.11486572567497118
24.109016,16.07911864636022,0.11424056683581509
24.113104,16.11596268872272,0.11359118636748759
24.117188,16.155929863634466,0.11290069529238082
24.121268,16.195442721270936,0.11220596750760452
24.12536,16.232596102982175,0.1115151155697655
24.129444,16.270303109193094,0.11081206253480436
24.133532,16.304864147503697,0.11011579593404118
24.137612,16.341429651688667,0.10938976471804515
24.1417,16.378659505273244,0.10864769175374082
24.145788,16.414980724307274,0.1078914908705327
24.149872,16.446140091891102,0.10715098486827249
24.15396,16.47875030084962,0.10639479416757042
24.158048,16.510230425457724,0.10563026846046682
24.16214,16.53565148174061,0.10488462461752375
24.166228,16.55243254397319,0.10416330477642632
24.170304,16.56595691340552,0.10344674013722155
24.174384,16.579137690462517,0.1027203973637516
24.178412,16.585140732519417,0.10201930932248997
24.182496,16.592483891051067,0.10130490291784712
24.186476,16.59444374833265,0.10060893632981048
24.190568,16.5969572301139,0.09989844430231065
24.194596,16.597676278145133,0.09919340243631118
24.198668,16.592458400426622,0.09851943090950982
24.202744,16.577936179258185,0.09788024742109812
24.206824,16.559714365689768,0.09725296755779626
24.210908,16.535555626371607,0.09665504984296633
24.214948,16.50646790307864,0.09608086335831005
24.218976,16.47088962953626,0.09555021381630828
24.223064,16.42915298044426,0.09505343738434452
24.227156,16.382265897577593,0.0945849029256343
24.23124,16.335046640011125,0.09412244892981296
24.235336,16.27875590647013,0.09370717676550423
24.239432,16.21429091382963,0.09333625841779637
24.243524,16.147034963339692,0.092994003038366
24.24762,16.075980113225373,0.09268595225858678
24.251708,16.00033987151159,0.09241254829766354
24.255804,15.916868963073636,0.09219655673456124
24.2599,15.832290805636333,0.09200803880096538
24.263996,15.739992706374794,0.09187442466963348
24.268028,15.645579416338961,0.0917744324024859
24.272116,15.546924327079001,0.09172211978139196
24.276208,15.44727271371963,0.09169474505379066
24.280292,15.347411068235921,0.09169383273584222
24.284376,15.254960025227714,0.09168588671947372
24.288464,15.165998542495148,0.09169057750444831
24.292552,15.07974012806315,0.09170836772779478
24.29664,14.996074057031787,0.09174192392033124
24.300724,14.91443528722585,0.0917855764149324
24.304816,14.838412686145386,0.09182873286343593
24.3089,14.76587964534057,0.09188582509015697
24.312988,14.694033789286427,0.09196806727314046
24.31708,14.631282244557868,0.09204282084730908
24.32116,14.5805381115798,0.09209513462244824
24.325244,14.535520872227146,0.09214418332891548
24.329336,14.503740436199795,0.09215893783080828
24.333424,14.477797618697789,0.09216745651482326
24.33752,14.462621403695927,0.09214357335086464
24.341612,14.454512198794221,0.09210112360666997
24.345708,14.456161654617713,0.092032038342394
24.3498,14.462297194816259,0.09194922796433931
24.353896,14.475721194914842,0.09184155765790789
24.357992,14.49430704646362,0.09172409625789164
24.362084,14.518165474362537,0.09159337324946537
24.36618,14.544161928386812,0.09147077296430434
24.370184,14.575652408561096,0.09132986219958168
24.374276,14.614763523335212,0.09115640492509772
24.37836,14.655890521659222,0.09097184286874822
24.382452,14.703519487908187,0.09076369267851622
24.386536,14.756974655006958,0.09052959414374578
24.390628,14.819279848280384,0.09025349987135348
24.39472,14.889648575753382,0.08993457809556847
24.398808,14.962697536175881,0.08958910923729861
24.402896,15.03450568734803,0.08923727013098791
24.406984,15.10888334656975,0.08886189070761187
24.41106,15.182130921441054,0.08847849573959274
24.41514,15.25996388791182,0.08806163911827025
24.419228,15.335658828257225,0.08764043516171494
24.423312,15.413923276652195,0.0871987686959138
24.42734,15.489484656746598,0.0867460156400319
24.43142,15.568512761765584,0.08626905184200802
24.435504,15.643719131809116,0.08578794033648557
24.439588,15.716333158452017,0.08529213726597139
24.443672,15.791062375869211,0.08476607469928361
24.447752,15.863531424585577,0.08421649398330475
24.451784,15.9350918387514,0.08365384754886071
24.45582,16.00193330106676,0.0830916514877159
24.459848,16.068652620806652,0.08251405175119296
24.46388,16.129080004745926,0.08193288963671522
24.467904,16.181875336409835,0.08136147432913159
24.471988,16.223339023398395,0.080810169129906
24.476072,16.256162716336647,0.08027201375369906
24.480156,16.28203012407467,0.07974469733266162
24.484252,16.303965071937302,0.0792143264808406
24.488336,16.321635385224752,0.07868891947005668
24.49242,16.332127963512104,0.07817874898184665
24.496512,16.339142399199346,0.0776749284290093
24.500588,16.34368663406142,0.07717117896118353
24.504676,16.34206107569835,0.07667800763317294
24.508768,16.336735924935294,0.076193591872387
24.512856,16.326813964897244,0.07572064608864983
24.516944,16.320813047059048,0.07523349837672286
24.521036,16.315598621195928,0.07474768903987812
24.525128,16.306684602932823,0.07427169113843224
24.529224,16.30135945216977,0.07379066780683309
24.53332,16.288413666806882,0.07333194706338121
24.537408,16.276032923619198,0.07288027832710989
24.541512,16.265446614181542,0.07242651306626326
24.545604,16.257219780669118,0.07197620580243431
24.5497,16.253700481331617,0.07151399839845116
24.553796,16.25523230854439,0.0710513260772804
24.557892,16.26102877033234,0.07058735733242924
24.561988,16.27041409962035,0.07011799862611791
24.56608,16.28014302128369,0.0696607023224883
24.570176,16.291555651797122,0.06920388768978424
24.574272,16.30554920803565,0.06874554471721316
24.578364,16.31921058957438,0.06829608000297475
24.58246,16.33534217193827,0.06784901180793351
24.586548,16.350809404902556,0.06741761842909649
24.590644,16.373454372866934,0.06697810494504425
24.594736,16.396664383006517,0.06654551640566428
24.598828,16.41651839312146,0.06613332924739188
24.60292,16.435032286761647,0.06573334411584687
24.607008,16.454897714552118,0.06534271156742043
24.6111,16.468715491692915,0.06497482526337438
24.615196,16.487805845183843,0.06460335549068066
24.619288,16.502864431574984,0.06424654446746708
24.623376,16.513559076166537,0.06391253521865556
24.62746,16.52604815450811,0.06357766633519889
24.631548,16.53518123282504,0.06326201069880943
24.635636,16.53938532716717,0.06296107834311668
24.639724,16.542470754834426,0.06266675713990122
24.643816,16.544216066026923,0.06238384996944961
24.647904,16.5470800438943,0.06209507614814246
24.651988,16.548936079986735,0.06180990228138297
24.656076,16.550681391179236,0.061527288612294055
24.660168,16.55343464414668,0.06124180176578167
24.664256,16.55371769628896,0.06095363615054975
24.66834,16.55534086490599,0.060654201981724956
24.672432,16.55225649934809,0.06036426812792856
24.67652,16.552417408914902,0.060059840742123505
24.680612,16.555823593606423,0.05974111472200621
24.6847,16.560348444972824,0.05941677927547961
24.688788,16.562403095514064,0.059089474473215095
24.69288,16.56826806335522,0.05875454936165302
24.696964,16.572449322346287,0.05841868982970677
24.701052,16.578867914687116,0.05807110089836703
24.705144,16.586848073302566,0.05770750790118604
24.70924,16.587096872418247,0.05736070400693951
24.713332,16.588464338208805,0.0570083701501399
24.717428,16.59576872974911,0.05664006773864846
24.721524,16.602175904414405,0.0562725043432973
24.725616,16.612614846179486,0.055893732791034
24.729708,16.621037904394672,0.055521126137575046
24.7338,16.631255396359883,0.05514813996850314
24.737896,16.642259380300175,0.054777477464796144
24.741928,16.651136755790635,0.054415746792103425
24.74596,16.663835866256544,0.054067721439154184
24.750052,16.67698929399773,0.05372966567781526
24.754132,16.689245504863898,0.053391934457628284
24.758224,16.694335398405503,0.05307671407021688
24.762316,16.69517207504746,0.05277826814420071
24.766368,16.69388214323958,0.05248788636469057
24.770456,16.693833020682053,0.05220928809597441
24.774488,16.68975213102474,0.051941756065028225
24.778592,16.686347008442567,0.05167894436996551
24.782568,16.682388261360725,0.051428482432742936
24.786604,16.677765164879272,0.05119286779941218
24.790692,16.67964403632277,0.050950027277292934
24.79478,16.67849908244143,0.050715177770550124
24.798868,16.67511679521033,0.050491143225300246
24.802956,16.668599957754445,0.05027716961227959
24.806984,16.65502752787394,0.05008187360059632
24.81108,16.64090147349376,0.04989861195763985
24.81516,16.624427360863884,0.04972807482499722
24.819244,16.606269539383916,0.049554998488498064
24.823328,16.58598510945412,0.04938921086709056
24.827404,16.55572056899926,0.04922679373815375
24.831496,16.519851277494457,0.049069389095873425
24.835524,16.482641869514904,0.04892138643957359
24.839612,16.4464404033103,0.048769806463218685
24.843696,16.40519922823096,0.04863054993286908
24.847784,16.36194216960173,0.04849578971547901
24.85188,16.309602217322443,0.04836342078797475
24.855964,16.25367339754311,0.04823019966075698
24.86006,16.186313625864024,0.048112179167817945
24.864144,16.109870960534888,0.04799613765640875
24.868232,16.02221879310587,0.047890236327560606
24.87232,15.919546806277056,0.04779978487235611
24.876356,15.808356967973392,0.04771908891826463
24.880452,15.682590209869671,0.04764266148439223
24.884548,15.547740558115896,0.04756795160229034
24.88864,15.4035865629122,0.04750094073856894
24.892736,15.244855647908446,0.04743944184483775
24.896828,15.06874543757966,0.04738622947384515
24.900924,14.879299116701159,0.047351428931108844
24.905012,14.674378659147594,0.04732186902665811
24.909104,14.462169741694,0.04729387961783657
24.9132,14.240877930590349,0.047267461439679456
24.917288,14.00489847478671,0.04724987190738516
24.921376,13.758828183558066,0.047236403443221414
24.925472,13.502999231604228,0.0472203751085458
24.929564,13.233712026525215,0.04720176489852528
24.93366,12.958820070396264,0.04718818819185813
24.937744,12.67451304591745,0.047186622945188175
24.941832,12.386727878838522,0.04718239341505059
24.94592,12.094910944659809,0.047192496903642335
24.950008,11.803647634980772,0.04718188221087985
24.954096,11.51529742572664,0.04716355308501713
24.958184,11.227057941372442,0.04714006265747783
24.962272,10.939162049393582,0.04713654982197632
24.966364,10.649360998764761,0.04713591853338496
24.970456,10.35608180553583,0.04713221427665877
24.974488,10.067399421581893,0.0471253080769192
24.978576,9.784321788677897,0.0471093228776751
24.982664,9.500346938898888,0.04709549194504242
24.986752,9.218842289945046,0.04709366231906822
24.99084,8.93722691609127,0.04709545482078318
24.994936,8.652698441812586,0.04710805320573995
24.999024,8.369067184408916,0.04712518544444026
25.003116,8.083309318555415,0.04716274421035705
25.007212,7.799456611351873,0.04719446091336775
25.0113,7.517963380073563,0.04724481134330127
25.015388,7.239161799420289,0.047297728463055404
25.019484,6.960360218767014,0.04735998218590121
25.023572,6.684361013638711,0.0474156349446156
25.027664,6.409591200085224,0.04745524294931713
