Time,Force,Position
25.273016,0.025967611847833385,0.0
25.2771,0.020353927278655037,0.0
25.281188,0.01574818448442339,0.0
25.285272,0.015183142309216177,0.0
25.28936,0.016412533884032614,0.0
25.293452,0.015847491708825406,0.0
25.29754,0.015847491708825403,0.0
25.301624,0.014719891514706172,0.0
25.305708,0.013592291320586944,0.0
25.3098,0.013140458201609792,0.0
25.313884,0.011569958407751076,0.0
25.317964,0.010110183513827233,0.0
25.322052,0.010110183513827233,0.0
25.326128,0.010110183513827233,0.0
25.330216,0.010110183513827233,0.0
25.334296,0.008426474663738456,0.0
25.338376,0.006632040913714811,0.0
25.34246,0.009545141338620023,0.0
25.34654,0.013807291757514207,0.0
25.35062,0.020761092801443864,0.0
25.3547,0.026706952070426823,0.0
25.35878,0.03164486956446309,0.0
25.362864,0.037590728833446045,0.0
25.366956,0.04051524693388411,0.0
25.371048,0.0445698493847366,0.0
25.375144,0.04931163658626401,0.0
25.37924,0.05911348385729542,0.0
25.383336,0.07095405002928591,0.0
25.387428,0.08371466842735394,0.0
25.391524,0.1009842065515468,0.0
25.395612,0.12422492345208348,0.0
25.399748,0.15691496172907649,0.0
25.403832,0.19950863865779805,0.009230957018682834
25.407968,0.2531360385886627,0.01819523314120118
25.412052,0.3173542619219307,0.02715607296902456
25.416104,0.39485744343893314,0.03591780693090639
25.420196,0.4818441993589903,0.04494859053275262
25.424292,0.5824684393573569,0.053833052084001354
25.42838,0.7020027397841687,0.06251582486651788
25.432424,0.8400042010396865,0.07101111851930317
25.436512,1.0025318914491235,0.07931919008119812
25.440556,1.1879021021623903,0.08752654983975477
25.444652,1.3921937909796356,0.09571601180954602
25.448744,1.619316582425178,0.10382151528373726
25.45284,1.8643300748486862,0.1118861341394193
25.456932,2.1280093425497046,0.1198946630333926
25.461028,2.405425401553434,0.12786361517732267
25.465124,2.7013850932592063,0.13573050612514284
25.469216,3.0172285341417715,0.14349198172598235
25.473312,3.3448807723260234,0.15122971917274391
25.477412,3.682314506586537,0.1589371905461436
25.481504,4.023581393498033,0.1666411316896747
25.4856,4.366089089659879,0.1651138620002622
25.489696,4.706348034796429,0.16386944545512278
25.493788,5.0464734196819805,0.16258613997348503
25.497884,5.377935975166151,0.16152476070658153
25.501976,5.707669151098103,0.16013771508750832
25.506072,6.022768318852332,0.15891334501579543
25.510108,6.323897827828446,0.15784829286764504
25.514192,6.603757800450886,0.15697692363939209
25.518244,6.864352702594009,0.15621183252299076
25.522296,7.102437259133106,0.15554605588786127
25.526388,7.319916628718136,0.15489677530406065
25.53048,7.515672144674219,0.1543177514498712
25.534568,7.693968441576541,0.15373816779357005
25.538656,7.857951487325412,0.15314185770369126
25.542748,8.003135197545772,0.15257145099272937
25.54684,8.12750368868773,0.15207732621294634
25.550928,8.2299382940764,0.15167320298993772
25.555024,8.316830256736804,0.15125056255567876
25.559072,8.384147809569152,0.15087371379573214
25.563108,8.438957962673605,0.15045788796818843
25.567144,8.48328801727559,0.15000600325546118
25.571172,8.52061611597522,0.14947961310836108
25.575272,8.544340983623135,0.14901193527924644
25.579352,8.564664180544275,0.1484630929467445
25.583432,8.575316606289087,0.14794876586061634
25.587516,8.585048979807823,0.14737002777135413
25.591596,8.587813650450801,0.14682727351629
25.595672,8.590677628318181,0.14624004594671458
25.599756,8.586253146285534,0.14574306535652973
25.603784,8.581263622077675,0.14523699314404961
25.607864,8.576606272569622,0.14471186566295693
25.611952,8.574075531511399,0.14414825819868873
25.61604,8.567734473153259,0.14363726304365773
25.620076,8.552986288220207,0.14323639087819473
25.624156,8.54204842058707,0.14278288437156963
25.628236,8.52988116137912,0.1423564800739353
25.63232,8.517381727471363,0.1419468217545603
25.636404,8.504328669063934,0.14156718615274996
25.640484,8.498453345656598,0.14110642312128557
25.64456,8.490229963999564,0.14069529712091508
25.648648,8.480777190767713,0.14031190694455278
25.652676,8.469873576161175,0.13996863131250026
25.656764,8.466258421454668,0.13954090649610593
25.660852,8.461978917348551,0.1391502391484347
25.664936,8.461742598017754,0.13873621353129958
25.669032,8.462747087937307,0.13833441457893542
25.673124,8.46891342930706,0.13788882566369715
25.677212,8.475312638152216,0.13746986768285194
25.681296,8.483284830947527,0.13704178478333368
25.68538,8.494845891242884,0.136577576895905
25.689456,8.507193443513318,0.13611067894160578
25.69354,8.51517705398416,0.1357220528742664
25.69764,8.526860256854984,0.13529031297664662
25.701728,8.544934702750828,0.13478672802183128
25.705808,8.559088106446819,0.13434070288274677
25.709896,8.575146668792769,0.13387031580888806
25.713992,8.595802040413712,0.13335048234155733
25.718024,8.615892369859449,0.1328226848813088
25.722112,8.632958873980344,0.13234340197553263
25.726144,8.653946420301093,0.13181227769946216
25.730228,8.677625617246877,0.13125671539341974
25.734308,8.704439364417436,0.13065654108408956
25.738396,8.727442794288077,0.1301077745744446
25.742488,8.748873240208566,0.1295658698597701
25.746564,8.766714818629005,0.1290605234529408
25.750652,8.784777846849316,0.12854796355274029
25.754692,8.799252007569578,0.1280711312290464
25.758788,8.814955559864659,0.12757086623826946
25.762884,8.83626386320968,0.12701346678010378
25.766964,8.858469383429712,0.1264539197790694
25.771048,8.882358612499834,0.1258871760370882
25.775132,8.911398275344624,0.12524835430466705
25.779224,8.941778054664162,0.12458545255260767
25.783312,8.96968763315854,0.1239375850099657
25.7874,8.997597211652915,0.12328945443528753
25.791492,9.024609573272276,0.12265006329619448
25.795588,9.049151734066475,0.12202723939160594
25.799668,9.075377603710761,0.12139701349872367
25.803756,9.101603473355045,0.12076820028511179
25.807848,9.125137692374295,0.12016454838073949
25.81194,9.146312435468316,0.11956911385524013
25.816036,9.162558194587536,0.11903383508465083
25.820132,9.17823891153155,0.11849030851087315
25.824212,9.195824787125522,0.11792869824965858
25.828304,9.21464005429431,0.11734480119402563
25.832396,9.229755729063118,0.11679578320329036
25.836484,9.244084911856849,0.11624778584473312
25.840572,9.256619660900554,0.11571507633562238
25.844652,9.263660383794257,0.11523098461943804
25.848748,9.26430986366294,0.11479986483476311
25.852828,9.260805433856367,0.11438642064799481
25.85692,9.253490686749878,0.11401045604311927
25.861012,9.244946548068574,0.11365780357327514
25.8651,9.238307568037227,0.11328690189757279
25.869192,9.233008704480632,0.1128883518140618
25.873284,9.23062294134894,0.1124608305804301
25.87738,9.225324077792344,0.11206193317361648
25.881468,9.219349447160607,0.1116593918463316
25.88556,9.212699049453727,0.11125241626944998
25.889644,9.205151434871837,0.1108506975368294
25.893736,9.196485153615063,0.11046462629032146
25.89782,9.188937539033173,0.11006095874020455
25.9019,9.180160532876464,0.10967815763466143
25.905976,9.171494251619691,0.10929073740766661
25.910008,9.166527562762901,0.10887564226468978
25.914088,9.163466032556068,0.10844300945878967
25.918168,9.162088211199324,0.10800328749318194
25.922252,9.165417924017511,0.1075261482481011
25.926336,9.172557954135614,0.10701657327140257
25.93042,9.18429479352871,0.106472548107332
25.934508,9.198612558646907,0.10591620048624718
25.938544,9.215843424190009,0.10533345117956001
25.942632,9.230947681283284,0.10477846277835509
25.946704,9.245830488576686,0.10423641752557342
25.950784,9.260381121170285,0.10371123592511344
25.95486,9.271010711564033,0.103224243440463
25.958888,9.287134328107786,0.10270098488041286
25.962968,9.302028553076722,0.10219899229757015
25.967048,9.31882793669562,0.10168293942157655
25.971132,9.341010621564585,0.1011383267692075
25.975216,9.36700362373347,0.10056486807567933
25.979304,9.395577551627456,0.099983626869857
25.983392,9.4260566381714,0.09938731641539252
25.987484,9.45631427491547,0.09880474933861194
25.991572,9.478729827259839,0.09829360719446038
25.995664,9.500026712929326,0.09779814540769129
25.999752,9.523904524323914,0.09729594947772378
26.00384,9.541734685068821,0.0968547490205696
26.007932,9.555422353814004,0.09645814419664275
26.012012,9.5700072394342,0.09605934609436116
26.0161,9.586951600979628,0.09566344941307389
26.020192,9.604461004700262,0.09528004154630045
26.02428,9.622867625295909,0.0948921849807947
26.028368,9.640266304116611,0.09451505223915634
26.03246,9.657443533137439,0.09414833480155471
26.036548,9.678320354558252,0.09375998716631455
26.040644,9.69718129242917,0.09339291755570055
26.044736,9.718733880925125,0.09301412028123719
26.048832,9.739954294721276,0.09265179998658268
26.052928,9.756245724542625,0.09233156027178491
26.05702,9.771086312989294,0.09204088350643885
26.061116,9.783124525910988,0.0917682616890736
26.065212,9.79875160633273,0.09148139440063657
26.069308,9.813260020079587,0.09120879667903256
26.073404,9.83337318487639,0.09090267400046617
26.0775,9.855280783423213,0.0905893814643885
26.081596,9.874828906044808,0.09027627676854734
26.085636,9.89729012909131,0.08994235674606081
26.089724,9.922664452562715,0.08958767739066184
26.093812,9.948603818209328,0.08924617932412292
26.097904,9.972072983030776,0.08890900283741762
26.101988,9.994755655877146,0.08857316801684514
26.10608,10.018778445198267,0.08821695760079017
26.110168,10.041904017644375,0.08786489124770537
26.114264,10.066369706565236,0.08749260631538303
26.11836,10.08982745371115,0.08713071797998115
26.122456,10.112498708881986,0.08676927177070926
26.126552,10.1333755303028,0.08641644765972106
26.130636,10.152347193073654,0.08607569795153935
26.134728,10.173666914094207,0.08570653511324663
26.138816,10.196437476489445,0.08531381999355563
26.142908,10.220105255759696,0.08491816498715722
26.146996,10.239286950654888,0.08454155327305286
26.151088,10.255776994925045,0.08417420672123459
26.155184,10.26878889659509,0.0838163434977591
26.15928,10.282022248065003,0.08345111426128445
26.163364,10.297836525260019,0.08308289832202118
26.167456,10.310283384754856,0.08271861695677254
26.171544,10.32205447717455,0.08234977419715747
26.175632,10.328885167943913,0.08198260469098513
26.179716,10.335826583613212,0.08161168401936668
26.183804,10.341981507307436,0.08124036998175525
26.187896,10.347017764326774,0.08088168790381223
26.191992,10.353172688020994,0.08051155783005655
26.19608,10.358208945040335,0.08015394720784708
26.200176,10.360664276334573,0.0798006567488444
26.204272,10.360992999178984,0.07946563604881395
26.208368,10.364456272248171,0.07910628792302754
26.212464,10.368140995117226,0.07873800002170354
26.216552,10.371714993086348,0.07837525758221668
26.22064,10.374391774180458,0.07801677308994392
26.224728,10.378408671749318,0.07763946676256928
26.228824,10.385449394643016,0.07724269648898871
26.232916,10.39965643486128,0.07679568907801147
26.237012,10.417673792379457,0.07633135024918797
26.241104,10.434904657922559,0.07586701508158929
26.2452,10.44563355554071,0.07542845403002194
26.2493,10.461635029508997,0.07498064087919747
26.253396,10.476739286602271,0.07453585990339408
26.257492,10.495100236495787,0.07409451631219811
26.261584,10.51446912816425,0.07364845161906132
26.265684,10.532830078057765,0.07320949075507788
26.26978,10.551191027951283,0.07277147847120001
26.273872,10.573473020044652,0.07231561592515265
26.277972,10.593960578387998,0.07186422470555899
26.282064,10.617471962056182,0.07139513420629313
26.286164,10.646355229298905,0.07088463173190461
26.290256,10.669412295691817,0.07040434733704021
26.294352,10.69661185408445,0.0698984304294816
26.298452,10.72111976185205,0.06939940093366118
26.302544,10.742603844294809,0.06891917276821942
26.30664,10.763866476937697,0.0684495407362324
26.31074,10.778405691855765,0.0680089085096858
26.314836,10.786786531224218,0.06760927355287838
26.318932,10.79326221194271,0.06721858756150159
26.323028,10.799627167761269,0.06683263472985947
26.32712,10.811596874629766,0.06642857645418226
26.331212,10.819301946923076,0.06602577344101762
26.335312,10.825212585466364,0.06562545446667728
26.339408,10.829771689859363,0.06521282936322566
26.343508,10.831417693827461,0.06481300711556648
26.347604,10.83205575602061,0.06441801461341845
26.351696,10.833025992913564,0.06401149500994566
26.355796,10.825256928531804,0.06364188206022853
26.359892,10.8193930228,0.06326496815489768
26.363984,10.813418392168266,0.06289286587411863
26.36808,10.801617560686719,0.0625446364099836
26.372176,10.794856438079902,0.06216993981385818
26.376272,10.78126117284833,0.06182341251803156
26.380368,10.76957106626672,0.06146986373371796
26.384464,10.759110351259919,0.061102389561452586
26.38856,10.74775241937811,0.060736327952383554
26.39266,10.744912338971147,0.0603443399666118
26.396752,10.74408814211408,0.059941921706724015
26.400852,10.743374670156946,0.05953599492222524
26.404944,10.742661198199812,0.05913045800170241
26.40904,10.739477525417515,0.05872078796875776
26.41314,10.73988272013526,0.05830779836721427
26.417236,10.746789882777959,0.05788171856993864
26.421328,10.754372812495799,0.05746301227923209
26.425364,10.764979567538482,0.0570306536488943
26.429452,10.782531190105855,0.05657179866171691
26.433536,10.797845479323465,0.05613016736931375
26.437624,10.818985969390887,0.05566802161737215
26.441716,10.840015734558373,0.05521082980767891
26.445808,10.858132399300954,0.05476416049429388
26.449896,10.876027614243664,0.05432381862494028
26.453988,10.88798590343663,0.05390689007979085
26.458084,10.904541001904592,0.05348289601395358
26.462164,10.917064333272764,0.0530760058641804
26.466252,10.926563839316097,0.05268140839456803
26.470344,10.932253028059513,0.05229587643809092
26.474432,10.932226740853055,0.05192606527857592
26.47852,10.928390136346678,0.05156483936784877
26.482608,10.917830114115482,0.051220178138712616
26.486688,10.904135541659508,0.05089142460825048
26.49078,10.8879821860539,0.05058562766359735
26.494872,10.863200254073512,0.05030109505595437
26.498908,10.827773862168453,0.05004644922747192
26.502932,10.787418486288592,0.04980740755899861
26.50696,10.740904734859116,0.049596022833208964
26.511,10.680722698180128,0.04942588767178788
26.515028,10.617516836176298,0.04926688773247104
26.519056,10.550279207072682,0.04912266878630602
26.523088,10.477326102019191,0.048989825080183534
26.52712,10.401238446740924,0.04887188953759281
26.531148,10.328628934062769,0.04875565321249642
26.535184,10.258600347109715,0.04864114679068082
26.53928,10.182634834406915,0.04854612130713975
26.543368,10.10734508877926,0.04845800674621077
26.547452,10.033406877301887,0.04838499915968388
26.551492,9.95913649112471,0.048323039101927825
26.555532,9.880723612947811,0.04828108252166894
26.559576,9.804670210696145,0.048250162530143366
26.563668,9.732659993219796,0.04823526186351822
26.567704,9.660981950443253,0.048206136143802626
26.571744,9.584485648591844,0.048190469731990704
26.575776,9.509340880890722,0.04819243995478578
26.579808,9.437784980689644,0.04819401415166698
26.583836,9.370825889763562,0.04818969536912714
26.58786,9.304653290812558,0.04819001498183384
26.591892,9.244871934886572,0.04818538682589088
26.59592,9.188003679385488,0.04817087844179774
26.599944,9.129795307409655,0.048174494509067946
26.604028,9.078986120233784,0.04816709154440785
26.608112,9.029860641908005,0.04816426347718574
26.612196,8.973114528982391,0.04818073803728981
26.616276,8.913455315631872,0.04820629968096274
26.62036,8.855369086231505,0.048241817203498745
26.624444,8.797282856831137,0.04827760011365777
26.628528,8.736615701705672,0.04830969271306228
26.63262,8.676735038555282,0.04834703072577734
26.636708,8.621340459779951,0.048384626510427915
26.640736,8.561349071729625,0.04842850063540223
26.644824,8.502587075254118,0.0484581977702945
26.648916,8.44506588802896,0.04851104241914278
26.653004,8.396173277178583,0.04853823557031747
26.657096,8.35153388322786,0.04853557025394342
26.661188,8.308799647927097,0.04852744891525957
26.665288,8.262930862401559,0.04853955047183653
26.669384,8.21918868532585,0.04853627696392633
26.67348,8.179256825550057,0.04852202310824356
26.677576,8.137984849299514,0.04852786866015765
26.681672,8.098839481498798,0.04851865988871423
26.68576,8.054765129723283,0.04852975793004912
26.689856,8.013603878372676,0.0485304167008456
26.693952,7.979166044746889,0.048509860972558376
26.698048,7.942823052471144,0.048494768193414285
26.70214,7.9075987268702805,0.048469570858475225
26.706236,7.873271618144429,0.04844411605193054
26.710332,7.842644101818558,0.04841247901398997
26.714428,7.8132459770675045,0.04836451968696051
26.718524,7.7803697097163385,0.04831171757142897
26.722624,7.751414484565025,0.048241600302589185
26.72672,7.722680709213582,0.04815982313447446
26.730816,7.69035806636209,0.04807839141378584
26.734912,7.654003656410812,0.048018496459967724
26.739012,7.618325013534676,0.04796828866423022
26.743104,7.5797332702336355,0.04792900249133736
26.7472,7.535868950582458,0.04788521010102651
26.751296,7.489767297581517,0.047863735812051014
26.755388,7.432345417580761,0.04787233043821839
26.759484,7.375366437179744,0.04785824415412574
26.76358,7.317490239903715,0.04784334343548223
26.76768,7.2578196088776625,0.04782958184739638
26.771776,7.1917577348265915,0.04782208035250026
26.775872,7.117964501275751,0.04784600325782803
26.779968,7.043163325949966,0.04787873168195725
26.784064,6.963876066249122,0.04791298469824233
26.788164,6.884920981248081,0.04792685648980382
26.79226,6.802155578947123,0.04795404778726273
26.796356,6.716366351321326,0.0480002029306238
26.800456,6.629458457020647,0.04806196100744259
26.804548,6.540423954270138,0.048143257009742986
26.808648,6.4444445839949385,0.04826663501318986
26.812744,6.347567996844727,0.04839464912828195
26.81684,6.247102542194469,0.04852821997400885
26.82088,6.138340685869235,0.048680552531364774
26.824976,6.029911004243805,0.04881284646889707
26.829064,5.928880507418339,0.04893103811337598
26.833156,5.823585376017684,0.04904195938771805
26.837244,5.724227170366774,0.049118401593256554
26.841336,5.620947922516012,0.04921927817945424
26.845424,5.5109452569404285,0.04935988251543577
26.849516,5.399258882514755,0.0494989349635824
26.853608,5.2893669418391065,0.04964101850447415
26.857696,5.1856333767130725,0.049724449369112855
26.861788,5.087726012436849,0.04977393086566867
26.86588,4.991834531710519,0.0498044227359311
26.869968,4.890903342109456,0.04987954847595347
26.87406,4.786383285008345,0.04996354404956428
26.878148,4.6799580692572755,0.05006721080958214
26.88224,4.575880911755903,0.0501241136204625
26.886324,4.468436336554355,0.050166928273508785
26.890416,4.363118369802634,0.05018909090299414
26.894512,4.2560059693008885,0.050220645945344665
26.8986,4.153601102974073,0.05022981857242691
26.902692,4.054785104147306,0.05024403934709222
26.906732,3.952834555095762,0.05030810312293174
26.910764,3.8453899798942133,0.05038954543014373
26.9148,3.742320764167789,0.050487045151309806
26.918888,3.6371249399915357,0.05062541120803107
26.922976,3.534731491340253,0.050758782607720966
26.927076,3.439958677288804,0.05084584907005891
26.931172,3.3469802969873794,0.05093744019622135
26.935268,3.25389119178602,0.051053235713413504
26.939348,3.1555409279100566,0.051280173139502824
26.94344,3.0522616800592948,0.051584992646350504
26.947528,2.9495474743837407,0.05194293408454318
26.951616,2.848849152258079,0.05229813503742292
26.955704,2.755660739832317,0.0525977154175745
26.959792,2.6645989358563833,0.05286885552423931
26.963876,2.574102174055657,0.05318436936774999
26.967956,2.4868621050551734,0.05357367431782013
26.97204,2.403321628454672,0.05394466405375034
26.976072,2.3253859029041104,0.05428182453720805
26.980156,2.2437505849535677,0.05466552387763361
26.98424,2.16222599190296,0.055064659842678956
26.988324,2.0835037743773217,0.05548861512069402
26.992404,2.005568048826761,0.05599014414524708
26.996432,1.930545423701105,0.05644731622202539
27.000464,1.8565307403503961,0.05693266451718426
27.004492,1.78172956502461,0.05743377166631177
