Time,Force,Position
23.236588,1.1552987050540366,0.024851331263903972
23.24068,1.0554747644523215,0.022498827679334234
23.244772,0.9609234002007426,0.020164529745845497
23.248864,0.8694072789495366,0.017871120567967913
23.252944,0.7886577601984727,0.015626067346384925
23.257044,0.7169911350974616,0.01339225200200953
23.26114,0.6600121546964445,0.011096109763249516
23.265236,0.6074085337705515,0.0088354941939896
23.269332,0.5609747060698066,0.0065859178779035
23.273428,0.5200349045190671,0.004310780297191929
23.27752,0.4835811873433869,0.0020860466311718243
23.281608,0.44937622119300275,0.0
23.285692,0.4244755984925416,0.0
23.289784,0.4058554939171629,0.0
23.293872,0.3897055901669501,0.0
23.29796,0.370753310891767,0.0
23.30204,0.34989587296662533,0.0
23.306124,0.32511739284163177,0.0
23.310212,0.30425995491649005,0.0
23.314296,0.282173125416532,0.0
23.318388,0.26558032206657967,0.0
23.322476,0.2510034022665208,0.0
23.326564,0.2419205086164677,0.0
23.330648,0.2441578419662308,0.0
23.334736,0.24214195841633743,0.0
23.338824,0.2392288579914322,0.0
23.342908,0.23082173141652118,0.0
23.346988,0.22510625546664567,0.0
23.351068,0.22241460484161016,0.0
23.355156,0.22162811286653322,0.0
23.35924,0.22162811286653317,0.0
23.363312,0.22173883776646802,0.0
23.3674,0.21714202849147407,0.0
23.37148,0.2089563517164328,0.0
23.375556,0.20267583359135002,0.0
23.37964,0.1939365323166344,0.0
23.38372,0.19136702426706667,0.0
23.387804,0.19362719296789552,0.0
23.391892,0.1984797050693578,0.0
23.39598,0.20883766099635873,0.0
23.400068,0.2197720767740997,0.0
23.404156,0.23364242832781165,0.0
23.40824,0.24697057305738204,0.0
23.412348,0.2592028864631366,0.0
23.416392,0.2799758866948028,0.0
23.420472,0.3061664412031384,0.0
23.424572,0.3478653854131434,0.008024947497443754
23.428652,0.3986928939753328,0.016162221915352916
23.432736,0.4591032841649791,0.024308619045627835
23.436812,0.5303373652324316,0.032592552929072274
23.440812,0.6168812215527492,0.04078881842605199
23.444896,0.7172954294267788,0.04923086149301816
23.448984,0.8453704166795023,0.05733424676012814
23.453076,0.9959557495362513,0.06541138481542326
23.457172,1.1670355444471325,0.07346974071849563
23.4612,1.3662304360119797,0.0814266806611205
23.465288,1.5855761972556222,0.08933442406063409
23.469376,1.822148310077621,0.09724969749084428
23.473468,2.073365848752876,0.10521938988925274
23.47756,2.345276463931066,0.11308395061840316
23.481652,2.634512737912016,0.12091389344487048
23.485744,2.9379287027954164,0.12875043799850833
23.48984,3.255081458981529,0.13663085524541174
23.493936,3.5812520546198905,0.14457847284366795
23.498028,3.919120722660004,0.1524760760319354
23.502124,4.271478420951308,0.16030204354644664
23.506212,4.626993504818452,0.16007828537188426
23.510308,4.984524472235492,0.15972767559824524
23.5144,5.3420440219769985,0.15934084566940535
23.518488,5.69998363596718,0.1587548290640791
23.522584,6.051276304105874,0.15824028218719396
23.526672,6.398911598691325,0.15738409411470167
23.530764,6.722818573773466,0.15688043294414647
23.534848,7.029266329801849,0.15637951846011863
23.538944,7.318021999301069,0.1558517790507358
23.543028,7.583247963745785,0.15539322449505752
23.547116,7.827979466136369,0.1549531966323013
23.5512,8.05715690812315,0.15446155200594128
23.555292,8.27290689815596,0.15386120189860744
23.559368,8.46749807673503,0.15333106055052115
23.563452,8.645760120610754,0.15280406585367837
23.567544,8.811392622183115,0.1522198328661905
23.571632,8.965170655751658,0.15152987006469226
23.57572,9.108556480366602,0.1507256915817863
23.579812,9.234948820878591,0.14995771459296667
23.583904,9.344347677287626,0.14922876008124097
23.587992,9.440009742393947,0.14850067536157188
23.59208,9.525646026273073,0.14776006586133594
23.596168,9.601710846200275,0.14701972008993536
23.600252,9.664516027451102,0.14635441429234902
23.604344,9.71865837930055,0.14570530715278626
23.608428,9.76079331939951,0.14516876530439948
23.61252,9.801011683172973,0.14462162256672223
23.616616,9.83998923769609,0.14407103677096272
23.620704,9.875377924719157,0.14356095931725846
23.624792,9.910766611742227,0.1430544914683685
23.628888,9.947606140139984,0.14251885626172076
23.63298,9.980070309062615,0.1420253174104056
23.637076,10.011637261110234,0.14154694871396553
23.641172,10.041077604708027,0.14110350292753596
23.64526,10.066474763530499,0.1406844894655883
23.649356,10.086488621102898,0.14031907482454203
23.653448,10.102692161375382,0.14000049539529905
23.657544,10.115417559047755,0.13971184535514578
23.661632,10.12746718964498,0.13942200689208634
23.665732,10.135927952742161,0.13916557136788157
23.669824,10.142594282089318,0.1389259147396968
23.673924,10.146679685711375,0.13870616219326667
23.67802,10.14986787245842,0.13849533730049665
23.682116,10.157309276105124,0.13822283520881043
23.686208,10.166201521126514,0.13791788917708472
23.690308,10.177220374597729,0.13758142614439475
23.694404,10.19025511161884,0.13721932943846873
23.698436,10.202614081564807,0.13685701627599042
23.702524,10.21598099328572,0.1364825498258633
23.706608,10.226102629881927,0.13615655005377622
23.710644,10.229844441128646,0.13592290307018254
23.714728,10.234372744350443,0.1356863045133263
23.71882,10.232399079647289,0.13551443313149358
23.722912,10.230757589643936,0.1353276308864217
23.726944,10.229005374740652,0.13514557729428056
23.731032,10.225569450987278,0.13497366437042835
23.73512,10.220904135659085,0.13482451399954515
23.739204,10.217701079381115,0.13467469935656703
23.743288,10.211474197778301,0.13456312700607304
23.747372,10.210741342325495,0.13439988086960453
23.751456,10.210573529047897,0.13424376423668943
23.755532,10.21410530817028,0.1340522122448417
23.759612,10.21584265354264,0.13387619108508828
23.763696,10.212651014940203,0.13375858257324302
23.767768,10.209237926537893,0.133651003961486
23.771848,10.208516488760619,0.13352108909752183
23.775928,10.208692267858355,0.13338412574976055
23.779964,10.2068521634062,0.13327185907285125
23.784048,10.20512278385398,0.1331548963209083
23.788136,10.206527954526534,0.13299624469806898
23.79222,10.214877992723782,0.1327571703867354
23.796312,10.222552263845886,0.13251566222867786
23.800388,10.234934069142918,0.1322270780147323
23.804472,10.248213091314964,0.13193206037455146
23.808552,10.263286547237032,0.13162283915132722
23.812628,10.283854029309108,0.13126565387964045
23.816708,10.308342553581035,0.13086626463948292
23.820792,10.330704469403136,0.13049606960849047
23.824872,10.358781861175109,0.1300684317274768
23.828956,10.381708819172415,0.12970772719035034
23.833036,10.40485722696959,0.12933764071024825
23.83712,10.424760359642054,0.1290148249598121
23.841196,10.44724441803962,0.12867638218103858
23.845284,10.471412185287274,0.12832781390277556
23.849376,10.4960342698102,0.1279930897645709
23.853464,10.515616645458396,0.12771810723377242
23.85756,10.532961687756826,0.12747721590784317
23.861656,10.552666205980488,0.127230152007551
23.865744,10.572038549504345,0.12699841212328633
23.869832,10.591078718328397,0.12678191403057093
23.87392,10.605189903177651,0.1266199249490391
23.878012,10.624462939477107,0.12642791557681082
23.8821,10.64688194367687,0.12622972844504476
23.886192,10.666842164727003,0.1260730353505489
23.890272,10.686470211077326,0.12593097138922618
23.894364,10.70307443210281,0.1258237685506503
23.898456,10.718449261553477,0.12573820735889896
23.902548,10.736737191429054,0.125623930680731
23.906636,10.754803671504757,0.12552042532984736
23.910728,10.773988818255342,0.1254008706788586
23.914816,10.796541382706105,0.12526578581984632
23.918904,10.817410238306776,0.12513842654098983
23.923,10.837271152132505,0.1250228516557807
23.927088,10.860831658358217,0.12487816106089404
23.93118,10.881921963758762,0.12474371836827772
23.935276,10.910854353559012,0.12453266433315446
23.939372,10.942245526508893,0.12428314378557498
23.943468,10.973071657283567,0.12402764828951816
23.947568,11.002435529008022,0.12377156528260004
23.951664,11.03213157543228,0.12350318286794172
23.955764,11.06294628853142,0.12321950787462758
23.95986,11.091180075905461,0.12295300762480953
23.96396,11.113465519854222,0.12271701075813693
23.968056,11.14000418070264,0.12243072163321092
23.972152,11.169001624700691,0.12210789792027325
23.976252,11.201022894023584,0.12175560040197643
23.980344,11.231471179396321,0.12140763189310676
23.98444,11.264156798118822,0.12103398173122017
23.988536,11.294261491116224,0.12067535298683396
23.992624,11.325706300588376,0.12029457473027584
23.99672,11.35490235903523,0.11991666096623826
24.000816,11.388240909481809,0.11949498970237163
24.004916,11.42213308442806,0.1190536110786146
24.009012,11.452990016373937,0.11861655183316605
24.013104,11.487878715419601,0.1181419812551352
24.0172,11.51469246259016,0.11772017583703141
24.021296,11.539379601310895,0.11732393461824658
24.025396,11.564398914731427,0.11691676169810832
24.029492,11.590315445026974,0.11650451905824591
24.033588,11.617350641997401,0.11608088503961972
24.03768,11.645504505642714,0.11564479876962562
24.04178,11.672196110237806,0.1152086703516977
24.045872,11.703030206832617,0.1147318342163422
24.049968,11.733409986152157,0.11424763758484768
24.054064,11.760090173071717,0.11379051045570991
24.05816,11.78508665114119,0.11334223164258989
24.062256,11.809518087035453,0.1128871195070953
24.066352,11.831368597204612,0.1124465015691276
24.070448,11.854559223848524,0.11198598114596205
24.074544,11.878082025192242,0.11151550394124275
24.07864,11.899134625710794,0.11105227978844223
24.082736,11.92029795112928,0.11058801452537512
24.086832,11.939777567697675,0.11013048728013511
24.090924,11.959367909166007,0.1096703454145371
24.09502,11.974693616059149,0.10922719832333312
24.099116,11.995734798902166,0.10874534665331666
24.103212,12.01721888134493,0.10824843867140631
24.107308,12.037019254937597,0.10775795190969452
24.111408,12.05995417875504,0.10724050533487349
24.115512,12.081316118622333,0.10672647025058601
24.1196,12.099310640789444,0.10622250058234048
24.123692,12.116629395881413,0.10571585497033324
24.127788,12.131256500348348,0.10522410809433788
24.131884,12.142294737315234,0.10475082088721428
24.135972,12.152767932106915,0.10426973640969787
24.140064,12.159984434098353,0.10379394869998049
24.14416,12.171454152989448,0.10327982838536734
24.148248,12.181350887930389,0.10276737008223116
24.15234,12.188666697146228,0.10226393466293529
24.156428,12.194077347712112,0.10177339215196127
24.16052,12.202511823602832,0.10125973947479461
24.1646,12.208476098668388,0.10075169855000231
24.168684,12.215559040408829,0.10023254642916626
24.172772,12.220626098599372,0.09972891397050028
24.17686,12.228274082515018,0.09921795210171051
24.180948,12.23132525715567,0.09873121100455749
24.185036,12.232581998046296,0.0982519531039535
24.18912,12.235854622486816,0.09775823478270627
24.193204,12.232625279002386,0.0972983936519941
24.197288,12.22738005196806,0.09685325885870401
24.201376,12.224715750658836,0.09640028174121655
24.205464,12.222948666224625,0.09594381397620226
24.209552,12.220960131990543,0.09549472604687707
24.21364,12.221552523481561,0.0950388726322513
24.217732,12.22640954954777,0.09457383499354725
24.221816,12.23586338488897,0.09408809740191794
24.2259,12.241850495305595,0.09364119575620954
24.229992,12.246386764347529,0.09321612843208855
24.23408,12.25249601733962,0.09279181201271292
24.238172,12.261518370756614,0.09235113079515092
24.24226,12.270208549473805,0.09192334156734665
24.246352,12.278677278391125,0.09150324870455562
24.250444,12.288608266358667,0.09108938552736623
24.254536,12.302238846726189,0.09065989617305928
24.258624,12.314972210218698,0.09023482500333062
24.26272,12.329278557661363,0.08981101956704873
24.266816,12.34907893125403,0.08936690617732006
24.270912,12.366752696396874,0.08894113392616282
24.275008,12.39204709613955,0.08847809710856813
24.279104,12.424962130482056,0.08798020408085584
24.2832,12.462806148799366,0.08745754043117628
24.287296,12.502333875966764,0.08693574774050122
24.291392,12.544774703559066,0.08640072278863195
24.295488,12.59091512355135,0.08585615075815979
24.299584,12.635593284493417,0.08531050705040438
24.303684,12.679939270735677,0.0847796121664047
24.30778,12.725293198752883,0.08424455213454332
24.311872,12.776584052519837,0.08367923176815514
24.315968,12.831685223586707,0.08310100000712009
24.320068,12.88835937860373,0.08253058237270089
24.32416,12.946938692270711,0.08195643326026926
24.328256,13.011909248962715,0.08136728152554049
24.332356,13.076204038579572,0.08077782470215102
24.336448,13.14161749487131,0.0801848578134365
24.340544,13.205236517413027,0.07959803652896379
24.34464,13.268290497779537,0.0790050989306044
24.34874,13.325739727096105,0.07843576899923314
24.352832,13.38251318933753,0.07786274269183767
24.356932,13.434468392504092,0.07731486717606025
24.361028,13.478127193995675,0.07679665698302215
24.365132,13.51337886891235,0.07630953133158179
24.369228,13.5442551843539,0.0758303911075409
24.373256,13.56974819854538,0.07536399646256875
24.377396,13.581672234711748,0.07492976286338572
24.381536,13.58899946160312,0.0745085075798051
24.385628,13.590378345069217,0.07409030075217762
24.389716,13.58670610198505,0.0736726512364624
24.393812,13.572943023475878,0.07328141255590011
24.397944,13.549421284241511,0.07290593408879917
24.402032,13.51524366740694,0.0725472337284315
24.40612,13.471983156922313,0.07220791118130361
24.410164,13.418853260812558,0.07188653747577843
24.41426,13.35944284657772,0.07157477546276005
24.418292,13.2937519142178,0.0712724987768607
24.422384,13.23119553208265,0.07094968807640162
24.426464,13.164263790472381,0.07062856729441926
24.430552,13.09508329783681,0.07029583491581698
24.434652,13.028705180726211,0.06995275838022723
24.43874,12.95985686279045,0.06960480880894737
24.442824,12.893135153304513,0.06924072631839491
24.446916,12.82753211049346,0.06886527925677435
24.450968,12.761253300607263,0.06848105082599758
24.455016,12.695982432496013,0.06808858681410719
24.459056,12.638221474084661,0.0676702179249749
24.463084,12.579674023698233,0.06724599464885933
24.467184,12.52011863153686,0.06682214467866142
24.471212,12.462357673125512,0.06639171687421637
24.475188,12.412217349313995,0.0659336498350427
24.47918,12.36857899342743,0.06545604695316283
24.483272,12.330545388590808,0.06495971977822358
24.48732,12.297330042829048,0.06444297019817458
24.491368,12.265122638842238,0.06391772661945719
24.495468,12.236614827255405,0.06338073546796756
24.499568,12.20799629076864,0.06284382136601005
24.503664,12.175456712082024,0.062320605716982516
24.507764,12.150205593295437,0.06178299275505845
24.511864,12.129440558883912,0.06123783306913325
24.51596,12.104189440097326,0.06069641789994285
24.52006,12.082748638610656,0.060142191335685304
24.52416,12.057165345124265,0.05960670953510823
24.5282,12.036289585812805,0.05905895372988132
24.53224,12.018781244201518,0.05851304085718473
24.536288,12.006656203840304,0.05796222138353455
24.54032,11.997112089204192,0.05741241879189359
24.544372,11.993737767793228,0.056860041584233294
24.548416,11.997762631182226,0.05629406695894146
24.552512,12.002573986546304,0.05572973629858577
24.556608,12.004250791685605,0.05518183227267996
24.560704,12.002682321700197,0.05465267756536757
24.564804,11.999663010340102,0.05414007814356925
24.568896,11.997773783330421,0.05364695793487008
24.572932,11.996338873596013,0.053165175285155984
24.577024,11.993674572286789,0.052693062110137835
24.581116,11.99157531315277,0.052228917008020286
24.585208,11.987349445568926,0.05177377970941813
24.589296,11.978194594010281,0.05133469985621275
24.593388,11.963778583777035,0.05092052732476154
24.597476,11.949816890819061,0.05051790316993538
24.601564,11.929364647611669,0.050150603216712296
24.605648,11.905667129279562,0.049798278016316
24.60978,11.8698743096481,0.04948981713886353
24.613908,11.826915172692075,0.04920986770765905
24.618048,11.76961198341139,0.048959698011994346
24.622144,11.703348043056126,0.04873803223730223
24.62624,11.626550367676117,0.04853776934689066
24.63034,11.539783999446577,0.04836933293105922
24.634472,11.44786719744237,0.04822059857281227
24.638608,11.349116252813403,0.04808820811263786
24.642744,11.244428382434695,0.047972616195072905
24.646832,11.134811528081183,0.04787047525003848
24.650972,11.018127663627517,0.04776198551037453
24.65512,10.896625540098986,0.047662539882406325
24.659256,10.77008370769572,0.0475799292441531
24.6634,10.639620833092604,0.04750638871954202
24.66754,10.505912683364773,0.04745069686945715
24.671672,10.36604615808733,0.047421390913244606
24.675804,10.223377257284918,0.047394325826992566
24.679888,10.072755547182867,0.04739562792121487
24.684024,9.922244561980749,0.04739218075143285
24.688108,9.772741518553579,0.047383830583047945
24.69224,9.62536508357624,0.04736304869656445
24.696316,9.475518447773732,0.04733328619137039
24.700396,9.334078938546137,0.04728760446863417
24.704524,9.192750154218475,0.04723603653796614
24.708608,9.05119992009094,0.04719276301144773
24.712696,8.908752469088398,0.04714876918428406
24.71678,8.762383975886006,0.0471191307353343
24.720864,8.614675366208859,0.047110177481198244
24.724948,8.468761190281736,0.04710109692806416
24.729032,8.321839072579666,0.04709794656370903
24.733112,8.16954507130306,0.047136799353214597
24.737196,8.016243128251507,0.04718095802625411
24.741284,7.860138809674983,0.047233046225016916
24.745332,7.701453565373357,0.047277604176294404
24.74942,7.542989770871602,0.047311808724166945
24.7535,7.38396093419464,0.047330814385700345
24.757552,7.221908272192837,0.04737002310281748
24.761644,7.062092943540796,0.04738856781675528
24.765676,6.897680805613763,0.047413103240179846
24.769776,6.732371450811717,0.04743532868657858
24.773856,6.567062096009672,0.04745497455095432
24.777888,6.405341608707675,0.04747165421527528
24.781976,6.234881820130961,0.04753109808447713
24.786064,6.06229542310442,0.04761633724760883
24.790152,5.8916141847278345,0.04769857724819887
24.79424,5.720822221451316,0.047793660902194966
24.798328,5.555967183924545,0.04784936181732201
24.802416,5.390547104222565,0.047890593385837676
24.806504,5.223221865870626,0.04794501794750072
24.810592,5.0561180773185574,0.04798458472593945
24.814688,4.896967098066129,0.04796460326628299
24.81878,4.737705393913763,0.047957132393992165
24.82276,4.580238123511421,0.04795673055226516
24.826844,4.424122387259364,0.047998317562457746
24.830936,4.2678959261073715,0.0480499494417486
24.835028,4.113242448905533,0.04812747193377568
24.839108,3.9623992890036126,0.04819444335615926
24.843196,3.8104374624268096,0.04829326883220463
24.84728,3.661167286475042,0.048399382140075095
24.851368,3.5117863856233402,0.048522365360765214
24.855456,3.3621840349717678,0.04868522509347492
24.85954,3.210565800770303,0.04889374490376058
24.863628,3.0656709842936603,0.04906243677392665
24.867716,2.9236892682419224,0.04922750774839283
24.871804,2.7826047690651965,0.04940725761266464
24.875896,2.644322645413441,0.049593631849410805
24.879988,2.5027952466369756,0.0499068804741161
24.884076,2.367437641085658,0.05027607045802261
24.888156,2.232977252409352,0.05073278896426994
24.892244,2.101097789458147,0.051260085462630764
24.896328,1.9630599509573265,0.0488834651395644
24.900412,1.830516138606512,0.04649326937352265
24.904492,1.7016719186556797,0.044088080271149924
24.908576,1.5765272911048296,0.041652859533148595
24.91266,1.45116121375411,0.03921353059015677
24.91674,1.3285975119283602,0.036754364526323975
24.92082,1.2078282438526347,0.034290055059771465
24.9249,1.0962525943268968,0.03180017665705114
24.928988,0.98725787052626,0.02930160691633394
24.933064,0.8820966506308613,0.026793159390353465
24.937144,0.7842238906354919,0.0242522268205621
24.941224,0.6936395905401521,0.0216735816799178
24.94536,0.6074306499199364,0.019107337381591233
24.949444,0.5275022274248035,0.016524403823065824
24.953528,0.45295710617974155,0.01392492691755294
24.957608,0.3837952861847506,0.011306331318697481
24.961696,0.322032650989724,0.008589550989754963
24.965784,0.2639696081946796,0.005814294267726157
