Time,Force,Position
24.479992,0.013162472171425193,0.0
24.484076,0.015642765392683923,0.0
24.488168,0.017680159014203164,0.0
24.49226,0.01894247833617831,0.0
24.496348,0.027050357958443426,0.0
24.50044,0.037750580981342,0.0
24.504528,0.05384552292984436,0.0
24.50856,0.07108196690429397,0.0
24.512644,0.09438889687948948,0.0
24.516736,0.12343413815562623,0.0
24.520824,0.15810696583276937,0.0
24.524912,0.19604922926512788,0.0
24.528948,0.23906545459881845,0.0059802581552721975
24.533032,0.2897365675589416,0.012165332187795481
24.537076,0.35154071074560983,0.018411991674810252
24.541156,0.4197703499838942,0.024871777073903187
24.54514,0.5013817704740196,0.031406950035206535
24.549168,0.5942584561622508,0.03817587686535371
24.553248,0.6998639913782467,0.04517067679393996
24.55728,0.821565793822185,0.05224317133098142
24.561312,0.9526303533731499,0.05956115125687935
24.565344,1.1013641641022112,0.06693439824370187
24.569448,1.2676565011094334,0.07438259206433658
24.57348,1.4537446977445803,0.0818285166736892
24.57762,1.648873569183042,0.08939149629338647
24.581664,1.858082824299553,0.09704490403440094
24.5857,2.0823804048690597,0.10467368569738843
24.589736,2.327027469566165,0.11225364811611306
24.593828,2.5875493516913424,0.11981282475810104
24.59792,2.866404834394225,0.12729837048245746
24.602012,3.158997108399819,0.13480641876858973
24.606004,3.4693579408079116,0.14230028300276754
24.61004,3.7915389881932238,0.14382464135733106
24.614168,4.126769642130573,0.145116511353982
24.618252,4.466409908569645,0.14639493647358512
24.622344,4.814602279510161,0.1474638838880509
24.626432,5.166627803101662,0.14846406315695523
24.630524,5.525388162093519,0.14919726859278476
24.634612,5.887382378534552,0.1496429834412289
24.638704,6.242962516599501,0.15001963201883237
24.642792,6.59761118476284,0.15011755689960096
24.646884,6.942909838774126,0.15014906423905572
24.650964,7.280420044907979,0.15006524321901268
24.655052,7.604537052114458,0.1499847463597593
24.65914,7.920743468868035,0.14974580987417666
24.663224,8.226114777068274,0.1493768405454882
24.667308,8.514935500765297,0.14901525240154254
24.671396,8.784403264434136,0.14870202854544723
24.675488,9.031925724674156,0.1484095904660886
24.679576,9.253360389485639,0.14821724867506542
24.683664,9.454644184618324,0.14800587067933205
24.687752,9.63588783497215,0.1477855830547215
24.69184,9.800569483147227,0.14751842098108003
24.695928,9.942862928293748,0.14728567403110623
24.70002,10.070953847186754,0.14698524100066873
24.704112,10.182715631376412,0.14666164684537164
24.708208,10.27972126481288,0.1463070878248164
24.712296,10.360519906121468,0.1459614539484833
24.716388,10.425909464952792,0.14565319321192197
24.720476,10.483289126106811,0.14529448470648543
24.72456,10.529978656634025,0.14494493932619895
24.728644,10.570242691109621,0.14456989113906604
24.732728,10.598820070858997,0.1442443460026083
24.736808,10.623331430481992,0.14388111827717115
24.740888,10.639523553078941,0.1435430962906605
24.744968,10.650542406550157,0.14321597656719398
24.749048,10.654593557145617,0.14291305800673365
24.753124,10.659186914565218,0.1425568985626532
24.757208,10.66534183825944,0.1421645881442714
24.761288,10.675971428653188,0.14170241906036757
24.765364,10.689846294171645,0.14119378372438834
24.769436,10.70696643481481,0.14064193636776
24.77352,10.720497707957929,0.14012198211793436
24.777608,10.739179414875718,0.13953695285626316
24.7817,10.75897978846839,0.13893689625510552
24.785784,10.780796045610952,0.13831510373735992
24.78988,10.805636128078355,0.1376609824461023
24.793968,10.83327858607073,0.13698416301697902
24.798052,10.859015885413145,0.13632687312065023
24.802136,10.884421010055755,0.1356868818897087
24.806212,10.907810251148472,0.135070665829064
24.810292,10.929294333591232,0.13447524011349146
24.814376,10.954699458233844,0.13383731157320447
24.818456,10.980215307776389,0.13319836792258424
24.822532,11.006628374193946,0.13255339363522478
24.826616,11.032930715711569,0.1319149560030423
24.830696,11.067529458904165,0.13120752423276721
24.83478,11.102693244271972,0.1305136393549055
24.83886,11.137746304739842,0.12982819218113578
24.842944,11.172012873232635,0.12914994764537965
24.84702,11.20516077505055,0.12849159291176418
24.851104,11.23304751819386,0.1279011393229094
24.855196,11.265641795512098,0.12727168525741125
24.859284,11.293982855930679,0.12669782435031576
24.86338,11.32378617539948,0.12612849069302293
24.867476,11.352249378393527,0.12558622811992237
24.871572,11.374443480938027,0.12511778343108132
24.875656,11.389803440857767,0.1247151551481068
24.879752,11.409649485152567,0.12428287944283874
24.88384,11.430614196122251,0.12383831790299402
24.887928,11.457405107941744,0.12334228689360159
24.89202,11.485658278811457,0.12284825259480836
24.896108,11.515595158531259,0.1223504624848987
24.900188,11.542962530201493,0.12189572293599382
24.90428,11.572013610721815,0.1214358481501993
24.908372,11.60174045831728,0.12098042210169029
24.91252,11.626427597038012,0.1205787942032408
24.916604,11.645509984708802,0.12022087938457614
24.920744,11.660671330179742,0.11989842409085469
24.924828,11.673373892501047,0.11961336924595897
24.928916,11.687981613472312,0.11931471253687814
24.933012,11.705945334468224,0.11897514696396168
24.937108,11.721893171914235,0.11865723567390522
24.941204,11.738848951135196,0.11832979506708133
24.945292,11.755128963281017,0.11800180875837259
24.949384,11.770057441276549,0.11766867165995774
24.95348,11.790247077946686,0.11728002249122342
24.957576,11.816484365266506,0.11683450917768687
24.961668,11.839354234886148,0.11640415016369776
24.965756,11.856397903655981,0.11602208027997225
24.969844,11.868512588451013,0.11568456627151383
24.973932,11.88118089774572,0.11532783236267133
24.97802,11.891268281315327,0.11498412713461217
24.982104,11.905043839609382,0.11458951383132326
24.986196,11.916349197078272,0.1142030225491226
24.990284,11.926978787472018,0.11381434321930325
24.994376,11.93794055256557,0.11341403501332707
24.998464,11.95360985183405,0.11298120454153912
25.002548,11.975216076852277,0.11249956859673502
25.006644,12.001075518770161,0.11197612820596554
25.010736,12.020654442562961,0.1114874541035654
25.014832,12.038328207705803,0.11101466515319422
25.018928,12.05353177202348,0.11054873774754237
25.02302,12.069178235940894,0.1100677784419122
25.027116,12.081125107458327,0.10961041229059548
25.031208,12.094755687825849,0.10914862076432676
25.035304,12.108275543293434,0.1086934861336516
25.0394,12.121684673861086,0.10824493421896596
25.043496,12.136445338579023,0.1078037920155861
25.047592,12.159834579671742,0.10730419625422397
25.051692,12.183334545664394,0.10680061964780427
25.055784,12.207399553832254,0.10630705056937198
25.05988,12.231021662400373,0.10583003356335066
25.06398,12.254200871368754,0.10537187983025387
25.068084,12.2798502811623,0.1049102508772623
25.072176,12.305499690955845,0.10444984068656749
25.076272,12.333275709199219,0.10397199158064925
25.08036,12.358470801717491,0.1035045525028443
25.084396,12.382547227560881,0.10305231390614941
25.088484,12.402924061004292,0.10262216748835173
25.092572,12.429692137472719,0.10216111955330529
25.096664,12.45724670591622,0.10170166517901698
25.100752,12.485477041434866,0.10124583135488946
25.104844,12.513596652053577,0.10079540317200551
25.108932,12.54675597154702,0.10030898489071001
25.113028,12.579350248865257,0.09981742463435771
25.117112,12.609363600458396,0.09933567381792414
25.121204,12.63567735965155,0.09887398178553371
25.125288,12.663884859819127,0.0983779829760557
25.129376,12.688724942286532,0.09789356998018342
25.133408,12.71389719945374,0.09739854776055401
25.137456,12.737828647370597,0.09689457298679593
25.141552,12.76365383626188,0.0963561085801266
25.145648,12.785890157653117,0.09583263759399802
25.149744,12.806774944894068,0.09530358665305977
25.15384,12.83000779038472,0.09475216097765184
25.157936,12.849208868775586,0.09422980288159705
25.162032,12.869528613841329,0.09369792623660098
25.166128,12.887599607881777,0.09316323574549844
25.170224,12.90488410994715,0.0926281614424341
25.17432,12.917006760562323,0.09210625692008118
25.178416,12.926769935252263,0.09158364925710144
25.182512,12.938881168191902,0.09103791717251254
25.186608,12.951213850931408,0.09048618338518512
25.190704,12.955925899071087,0.08997324772678685
25.1948,12.958622063660869,0.08947348314067738
25.198896,12.963223386900609,0.08896501304791313
25.202992,12.96894337681523,0.08844609157265486
25.207088,12.970520874730129,0.08795744392665619
25.211184,12.9673908384701,0.08748985948788895
25.21528,12.966276685759965,0.08701010227248371
25.219376,12.961130765950042,0.0865548266784613
25.223472,12.954423279865495,0.08612409465540008
25.227568,12.950850344005726,0.0856711722073274
25.231668,12.945482974395935,0.08522344844592857
25.235768,12.938775488311391,0.08479357476358328
25.239864,12.933518843601533,0.08434305163346155
25.243964,12.92983518284183,0.08389531531491998
25.24806,12.928621722907291,0.08344773389463146
25.25216,12.929989188697853,0.08299631965040856
25.256256,12.939431606363524,0.08252463797127839
25.260352,12.951454949754291,0.08204982824016004
25.264448,12.966956435745173,0.08157236714096872
25.26854,12.984363080386014,0.08108899637736883
25.27264,13.010176851601766,0.08057582794305373
25.276732,13.040698156992446,0.0800466642952421
25.280828,13.068982129033362,0.07953687657862972
25.284924,13.10477601077418,0.07900416367643358
25.28902,13.144158760015042,0.07846459200718751
25.29312,13.190608519356067,0.07791350848476836
25.297212,13.237512595972362,0.07737726946902071
25.301308,13.292713074263634,0.07681855404082404
25.305408,13.348921494329852,0.07625699468451913
25.309504,13.407600115221237,0.07570140164216017
25.313596,13.468638212037852,0.07515191320942761
25.317696,13.52799260000438,0.07460544019934236
25.321788,13.589485014096267,0.07407265289205266
25.325888,13.650080211313142,0.07354529350255758
25.32998,13.707651583205179,0.07303555685129708
25.33408,13.76623089687216,0.07252438271865086
25.338172,13.81931618438914,0.07203179167152157
25.342208,13.871393530131169,0.0715465934744501
25.34624,13.916858183048312,0.07108560765744885
25.350328,13.960982719490703,0.07064195591096446
25.35442,13.999281055083284,0.07022262929765118
25.358508,14.033769073375947,0.06981801059193969
25.362596,14.072288858768395,0.06939678059908305
25.366684,14.099377692261095,0.06901411158106859
25.370772,14.125004266703575,0.06862684196888161
25.37486,14.143231656346092,0.06825783299260534
25.378948,14.159886062038455,0.06788669710474338
25.383036,14.16846551585571,0.06752872629982264
25.38712,14.174464043947866,0.06717195928072461
25.391216,14.174071329015005,0.06682796139402902
25.3953,14.172216355031924,0.066477584940845
25.399396,14.171037148123983,0.06613217969290532
25.40348,14.167830639990617,0.06577256652782079
25.407568,14.160248772382127,0.06541534327426646
25.41166,14.15041815374834,0.06504835676274916
25.415748,14.135204233864485,0.06468777196245698
25.41984,14.115172054905761,0.06434077634680917
25.423924,14.09233750042207,0.0639993126406249
25.428008,14.068827178863236,0.06365149469088585
25.432088,14.04374387335425,0.06329935099574784
25.436176,14.020000684320015,0.0629329766452497
25.44026,13.994352336635819,0.0625705566982633
25.444348,13.963885729876758,0.06222206363407696
25.448432,13.938237382192563,0.06185812061848964
25.452512,13.907327875833763,0.0615190010637265
25.4566,13.87933146989987,0.061169533613975764
25.46068,13.847635471565994,0.06082550251821564
25.46472,13.819417615832231,0.06047963405756937
25.468808,13.78907315164864,0.060143133426640794
25.472888,13.756934253715025,0.05980624193313276
25.47698,13.723565964206593,0.05947827797159047
25.481072,13.686940981897918,0.05914283178973512
25.485164,13.649873099989504,0.05881847549914324
25.489192,13.615496868706124,0.05849009721464389
25.493276,13.584488055122923,0.058163502105625396
25.497304,13.557068109039768,0.0578326884778608
25.501388,13.530656104731563,0.0574959030670199
25.505476,13.5052520421983,0.057153908682069904
25.509448000000003,13.480634471640116,0.05681291376006592
25.513532,13.45400101753204,0.05647821541872643
25.51762,13.42535167987407,0.05614964770428214
25.521652,13.400512659516023,0.055811633822342985
25.525736,13.376903030732786,0.05546265912004787
25.52982,13.350380301524646,0.05512053384873562
25.533908,13.330802439841197,0.054755093173719814
25.538,13.310438086182673,0.054386097692526426
25.542084,13.294559816899207,0.054013869448149926
25.54612,13.277784330740728,0.053641759015887705
25.550204,13.264032669907088,0.053257702333423286
25.554292,13.2564508022986,0.052873229734956506
25.558376,13.249766151565122,0.05248775020885735
25.562464,13.24813262738191,0.052109230536328766
25.566512,13.244372494748871,0.051740001576035255
25.570588,13.239272245641079,0.05138308613337728
25.57468,13.233053329858407,0.05103265808136731
25.578768,13.223699863850962,0.050695004170413845
25.58286,13.219840423993517,0.05035233410807812
25.586896,13.217775417886099,0.050008982433088454
25.590992,13.215488961978812,0.04967119768088959
25.595088,13.212981056271653,0.04933849494751651
25.599184,13.214062018064542,0.04900493815924167
25.60328,13.211332662557515,0.04867812594906949
25.60736,13.201215539926055,0.04838182411647711
25.611448,13.192782126144685,0.04808765626057616
25.61554,13.17650662796361,0.04781236100103439
25.619628,13.163487822582777,0.0475460973289206
25.623712,13.143634874577188,0.047294976818678655
25.6278,13.121544593221838,0.04705566005360508
25.63188,13.096995528716853,0.0468344435240109
25.635972,13.06493655451197,0.04662180196873754
25.64006,13.030861696757192,0.04641439153522967
25.644148,12.988944754602715,0.046224978933117764
25.64824,12.942098828473435,0.046046557012647225
25.652328,12.893347743694196,0.04586997566799273
25.656412,12.840675616715107,0.0457015329374721
25.660500000000003,12.786995547961068,0.04553480122595764
25.664588,12.725473394807326,0.04538563409825744
25.668676,12.65891153277885,0.045250660825004486
25.672704,12.590112337400614,0.04512728977821127
25.676784,12.518400041597468,0.04500857983975085
25.680864,12.43593256096972,0.04491330159530638
25.684952,12.349101138542379,0.0448393886917371
25.689032,12.268317366764716,0.044745096138165956
25.693112000000003,12.179691510587348,0.04466860556841818
25.697192,12.09465452191003,0.04459127966787007
25.701276,12.000202464882852,0.044524430386241085
25.70536,11.906758349630623,0.04445280499914143
25.709448,11.810401133953487,0.04438634847915574
25.713532,11.713257426301276,0.044314874298889556
25.717624,11.613987110199233,0.04425222996039387
25.721708,11.51068502699741,0.044201617208223166
25.725796,11.40480201807048,0.044146116550201224
25.729884,11.303847993118351,0.04407591054323328
25.733972,11.20199675129121,0.04400345568963707
25.738052,11.095437975289139,0.04393583158914355
25.742136,10.985744649062294,0.04388144983866519
25.746212,10.875154105960435,0.043825854271051415
25.750292,10.76153973753374,0.0437803053542938
25.754372,10.645233718482007,0.043733161810061434
25.758456,10.526801090980447,0.04369659940390586
25.762532,10.414083939428762,0.043649444450293756
25.766616000000003,10.303271946527037,0.043599281985058164
25.770696,10.186744477675434,0.04355645454125368
25.774776,10.07413805102368,0.04350205645318415
25.778856,9.953800264872164,0.0434652375855633
25.782944,9.831446595170751,0.043435915053148436
25.787032,9.706855592119577,0.0434221760259039
25.791124,9.57946221354343,0.04341152483283137
25.79522,9.448037067867498,0.04341642103540987
25.799312,9.31650119729163,0.043426982227481245
25.8034,9.187878427140667,0.04342913472082065
25.807488000000003,9.061947307614739,0.04343163005861551
25.811580000000003,8.931087204114014,0.043449007703510394
25.815664,8.793282233088597,0.043492968315794814
25.819752,8.661979229988132,0.04352975818302431
25.823836,8.533700052212508,0.04355371323542331
25.827928,8.407215308186906,0.04357805246808073
25.832012,8.284762331261092,0.043583791047301895
25.8361,8.163206571210289,0.04358924694772265
25.840188,8.04669052003422,0.0435701260801187
25.84428,7.927261368433245,0.043559027616376075
25.848368,7.80827511643201,0.04352483978853609
25.852468,7.691648340356005,0.04350722479938718
25.856564,7.5740136225050545,0.04349265340269694
25.860656,7.460299946853955,0.04346472880146261
25.864752,7.348602154752749,0.043426397956688796
25.86884,7.239141696001306,0.04336508170406381
25.872936,7.132705062574704,0.0432850144272359
25.877028,7.030410921147824,0.043175154346417326
25.881128,6.932037821920796,0.043048134143008385
25.885224,6.827949246743891,0.04293269875545938
25.889324,6.723971396466923,0.04280723582366669
25.893420000000003,6.621898704839912,0.04267401330497779
25.89752,6.529573256262563,0.04250026840453327
25.901612,6.433548215285232,0.0423256997591126
25.905708,6.335839465457813,0.0421366021640101
25.9098,6.235439065005357,0.04193986373561578
25.913896,6.128093797028209,0.04177390180023028
25.917992,6.016716761951276,0.04163116953219876
25.922088,5.902205176649567,0.04150834171119658
25.926184000000003,5.78859080822287,0.041384474465099234
25.93028,5.669826006021505,0.04129536308750881
25.93438,5.552401320294891,0.04117356254885668
25.938476,5.4340794176932645,0.041045373571806154
25.942572,5.314860298216628,0.04091031149218194
25.946668,5.200348712914919,0.04075568635169752
25.95076,5.084607736038394,0.040617096701958864
25.954856,4.967526642687117,0.04050446334214804
25.958952,4.845516565361042,0.040409524386775184
25.963048,4.720814837409931,0.040300027164156677
25.967144,4.599923426758738,0.04017308786167641
25.97124,4.479818508082622,0.04004749531146885
25.97534,4.360721531181452,0.03990363584256253
25.97944,4.236695570305484,0.039778277383702515
25.983536,4.113677551204462,0.03963109791393892
25.987568,3.9855090983287713,0.03952880050224703
25.991604,3.857340645453081,0.03941174550378439
25.995636,3.7333146845771132,0.03923762017389883
25.999676,3.6127554486257236,0.038966964848662716
26.003716,3.485583519849447,0.03870438988736738
26.007756,3.357846548897964,0.03836661587887518
26.011852,3.2351492868212137,0.03794481352386329
26.015892,3.1057286070196413,0.03751001296671165
26.019984,2.9754107103430574,0.03701788822100481
26.024068,2.8431876550165147,0.03647150555978455
26.02816,2.7042411819651493,0.035885291601385705
26.03224,2.5626030582887496,0.03519579760325643
26.036336,2.4220836012872313,0.03438505965161874
26.040432,2.285042286885825,0.03354839219843857
26.04452,2.147779522684549,0.032593890036869855
26.048608,2.0095088167083266,0.030649166655875627
26.0527,1.870230168957157,0.028715418042723113
26.056788,1.7279276958811471,0.026805559284335565
26.060872,1.5886490481299775,0.02490071769092121
26.064948,1.4502676172538198,0.023025109869830047
26.069032,1.3206254876523775,0.021126229644951523
26.073116,1.1953587175260598,0.019251773397624978
26.077192,1.0726728731248427,0.01741660286447069
26.081284,0.9541409383988801,0.015657452172031905
26.085364,0.849055839122562,0.013889070418715996
26.089444,0.7490218663965101,0.012194682317939742
26.093524,0.652355311370636,0.010570057539537693
26.0976,0.5632878808729699,0.008981958409462379
26.10168,0.4813981853753983,0.007460978308063563
26.105764,0.4076941666528681,0.006004648423038418
26.109856,0.34318376648032584,0.004612590523797736
26.11394,0.2868590430828249,0.0033238672861929017
26.118024,0.23591762093539487,0.0021477027089036632
26.122116,0.18968373296289365,0.0010026570442267881
26.126204,0.14984108801541013,0.0
26.130296,0.11638968609294419,0.0
26.134376,0.08843231032048408,0.0
26.138468,0.0678741193479883,0.0
26.142556000000003,0.05068334607567009,0.0
26.146648000000003,0.037867932278476124,0.0
26.150724,0.026625502431436042,0.0
26.154804,0.018185448109366315,0.0
26.15888,0.01333426128734388,0.0
26.16296,0.010277508215345087,0.0
26.16704,0.0058806386685949855,0.0
26.171124,0.0024917108967915814,0.0
26.175204,0.0,0.0
26.17928,0.0,0.0
26.18336,0.0,0.0
26.187444000000003,0.0,0.0
26.191528,0.0,0.0
26.195616,0.0,0.0
26.199704,0.0,0.0
