Time,Force,Position
23.41556,0.0,0.0
23.419643999999995,0.0,0.0
23.423732,0.0,0.0
23.427816,0.0,0.0
23.431896,0.0,0.0
23.435984,0.0,0.0
23.440068,0.0,0.0
23.444147999999995,0.0,0.0
23.448228,0.0,0.0
23.452312,0.0,0.0
23.456392,0.0,0.0
23.460476,0.0,0.0
23.464556,0.0008746272742445273,0.0
23.468632,0.003222931274240924,0.0
23.472712,0.010855229299906241,0.0
23.4768,0.020747696026400406,0.0
23.480888,0.0344733154038773,0.0
23.484976,0.05461301315743754,0.0
23.489064,0.08464493188719353,0.0
23.493152,0.1221102884435124,0.0
23.497236,0.17048722542650657,0.009751586181023094
23.501311999999995,0.23158159426173253,0.01900478122603533
23.505392,0.30696637889934425,0.027848637043042634
23.509472,0.3973173464144837,0.03641259759535721
23.513552,0.5012943803323996,0.04493263421075695
23.517624,0.6186760308532224,0.053465468198174576
23.521704,0.7554106414022299,0.061784265543429605
23.525784,0.9123954288544343,0.06990893053840848
23.529868,1.0868280176848648,0.07798589803811365
23.533943999999995,1.2788191327934566,0.08600987300328483
23.538024,1.4863528906303163,0.09406416560341063
23.542107999999995,1.7087535241203016,0.10214349249333476
23.546196,1.9465972473638546,0.11016679346973346
23.550291999999995,2.202087386434438,0.11807218824106153
23.554383999999995,2.4667060898572064,0.12598527061680037
23.55848,2.745603791406827,0.13384295630167936
23.562567999999995,3.035523798283058,0.1416747316158538
23.566664,3.3329879678857868,0.14949842209999983
23.57076,3.6330558985646815,0.15732025112128914
23.574848,3.9406451566190084,0.16506571101278833
23.578932,4.248910181748481,0.16302829597179164
23.58302,4.554349996001916,0.16143420622653684
23.587052,4.854040081278876,0.1601943225895438
23.591144,5.145620961654132,0.1591991941289545
23.595196,5.431772870077187,0.15817524611847156
23.599284,5.707555404897707,0.1571249063426024
23.603368,5.963763529890172,0.15630194098770017
23.607399999999995,6.199721477979442,0.15567310798307413
23.611452,6.424844317515372,0.15499146022023977
23.61554,6.631511413898129,0.15437415128205056
23.619627999999995,6.826889084452275,0.15364261926890133
23.623672,7.0096372127030575,0.15283834801581261
23.627724,7.177972782575988,0.1520620270333373
23.63182,7.32471805907097,0.15142334060214985
23.635904,7.458169443862979,0.15075330119685124
23.639948,7.573397952977219,0.1501539532071179
23.644032,7.676229787263498,0.1495205496312177
23.648128,7.7657677298468055,0.14885707662829217
23.652172,7.840671664252391,0.14819549724620684
23.656256,7.901395907755523,0.14756569699700808
23.660344,7.950189211381499,0.14694590714887434
23.664372,7.991438352280978,0.14632871861515154
23.668452,8.021676605529379,0.1457851062761959
23.672496,8.047405939051655,0.14522434973806372
23.676532,8.062578702198126,0.14474823810239218
23.680616,8.077850772568999,0.14422980833731153
23.684652,8.092779250564535,0.143689329947047
23.688735999999995,8.109269294834691,0.14310122153798188
23.69278,8.117573662329804,0.1426211228705804
23.69686,8.1319256804746,0.14204297599817306
23.700944,8.142467381319479,0.1415240828687173
23.705024,8.152898357264421,0.14101530547993643
23.709108,8.158843248834307,0.1405572079795947
23.713188,8.171179383429209,0.14002290168862214
23.717268,8.184523459799058,0.13947534520726584
23.721352,8.204369504093858,0.13884861277422111
23.725432,8.221756765239027,0.1382818462980478
23.729516,8.24161422720936,0.1377026032412408
23.7336,8.26630136593009,0.13709684866302344
23.737684,8.290999922326353,0.13653277765605082
23.741776,8.316828563073033,0.13598708917467023
23.745864,8.338182537120185,0.13552900235898221
23.749952,8.363579695942656,0.13504655562666507
23.75404,8.387526013390442,0.13460761228548457
23.758119999999995,8.42055522448828,0.13407337939911462
23.762196,8.449552668486332,0.13360353393148777
23.766288,8.48023382133447,0.13312247708538616
23.770372,8.510361349682938,0.13267493207378322
23.77446,8.541386094906414,0.13221685842506653
23.778548,8.56737113125516,0.13183977601411842
23.782636,8.595715643529136,0.13145670774457058
23.786728,8.618344679853235,0.13114453641959326
23.790828,8.646578467227275,0.13076770518540234
23.794924,8.66931822845131,0.13045253622109318
23.799016,8.69026355592532,0.13015721972090052
23.803111999999995,8.70974662434911,0.12986737615351263
23.8072,8.730569809247653,0.12954705107747194
23.811288,8.748258443921422,0.12927735683911867
23.815384,8.764706269344842,0.12899826810507892
23.819479999999995,8.78350215301796,0.12867645030609698
23.823571999999995,8.801843719415805,0.12834096858706096
23.827663999999995,8.820849635213259,0.12796920169474296
23.831752,8.838836191560233,0.12757571802740392
23.835847999999995,8.855360488856988,0.1271821039714166
23.839944,8.858991575203774,0.12692058422135707
23.844036,8.863962778025307,0.12662815610025868
23.848136,8.869044705746779,0.1263311063504435
23.852236,8.87132425794328,0.1260637026565407
23.856332,8.876516910564686,0.12576150009687834
23.860424,8.882938954760906,0.12543513869276823
23.864519999999995,8.886104306156886,0.12512481327206126
23.868604,8.897222466852504,0.12471271760866283
23.872688,8.908672802247928,0.12428812903742441
23.876772,8.923933454943265,0.12382244004991363
23.880856,8.940312774313487,0.12333988826282824
23.884948,8.95176310970891,0.12291904404501526
23.889036,8.960521794479297,0.12252120641231697
23.893124,8.968150394899268,0.12210503405559531
23.897208,8.974771053544295,0.12170313708064368
23.901292,8.978024294489144,0.12132147128740949
23.90538,8.981609710133796,0.12092406727194994
23.909416,8.989226892878236,0.12047676717126947
23.913504,8.999646451147646,0.1200053430886838
23.917563999999995,9.009279517441978,0.11953481202836475
23.921668,9.027430435211157,0.11897616755176574
23.925764,9.045581352980339,0.1184189444263853
23.929796,9.060032678349533,0.11789504842004346
23.933892,9.078958670418254,0.11730079318820705
23.937984,9.094074345187062,0.11674654258501406
23.942072,9.104482485780942,0.11623714143651835
23.946168,9.115787843249828,0.1157211807327676
23.95026,9.122053491843985,0.11526947853345429
23.954348,9.123390156463344,0.11487449585181933
23.95844,9.121813720657794,0.11451120387391528
23.962532,9.120126559952311,0.11415424726914533
23.966624,9.121352499671735,0.11376656302723452
23.970716,9.123929973541443,0.11338635370886178
23.974803999999995,9.128534748636575,0.11301823603413443
23.978895999999995,9.132020857056828,0.11266741883852516
23.982992,9.134953340977406,0.11234297123270595
23.98702,9.138561591973124,0.1120235483305256
23.991052,9.138027350969123,0.1117570101920486
23.995136,9.13166690911531,0.11155031787530269
23.99922,9.128895334761545,0.11131809694660444
24.0033,9.123099935082939,0.11112088636551952
24.007384,9.117193810504398,0.11092886818234263
24.011472,9.119805537400703,0.11066065677192642
24.015556,9.11895053937243,0.11044799742442707
24.019607999999995,9.12100864176906,0.11020655378660604
24.023656,9.127663553440687,0.10992882621211009
24.027692,9.13319979843743,0.10966773687419644
24.03178,9.139743985209119,0.10939538510491903
24.035868,9.146177447080875,0.10912724321502537
24.03994,9.156642676052417,0.10881528207768312
24.04402,9.164084079699117,0.10853711739086565
24.048051999999995,9.169509599795926,0.1082817734925567
24.052136,9.177393903042368,0.10798438397028165
24.05622,9.18594255568842,0.10765711024905728
24.060296,9.192696774584448,0.10734045119395808
24.064376,9.201466877030368,0.1070020088643655
24.068456,9.209904804776484,0.10668029361748632
24.07254,9.223836758672606,0.10632003705092537
24.076628,9.242254796943788,0.10593106781163018
24.080724,9.261570052089981,0.10554007197384137
24.08482,9.284584899636156,0.10512329149317992
24.088912,9.311410064482248,0.10467780405957247
24.093008,9.328709436078547,0.10431473846290044
24.097096,9.350716341849774,0.10391646476261748
24.101192,9.370707364071109,0.10353996854697509
24.105284,9.392603544942402,0.10315081324309297
24.109372,9.417302101338665,0.10274218038293731
24.113456,9.443573641685083,0.10233478268172583
24.117539999999995,9.474552716206428,0.10189274203844467
24.12162,9.499373415178159,0.1015174503834959
24.125708,9.52699648967486,0.10112175233190109
24.129795999999995,9.559327098346493,0.10069335223266455
24.133887999999995,9.591214807418384,0.10028857049555354
24.137972,9.623667558665481,0.09989696884270612
24.142068,9.664416711587556,0.09945436648940142
24.146163999999995,9.705055139609694,0.0990191117379124
24.150255999999995,9.745915017431704,0.09857641525584757
24.154352,9.78408324462868,0.09815251871644678
24.158448,9.821464979850575,0.09773143244168744
24.162544,9.854925672872621,0.09734550540013186
24.166636,9.885583990369696,0.09698065760085443
24.170732,9.91131332389197,0.09665990702230723
24.174828,9.942868858264058,0.09629325495792401
24.178928,9.968930366486138,0.09596013570121922
24.183024,9.997794250233188,0.09561018571907637
24.187116,10.025650192205292,0.09527271578512626
24.191216,10.050814483552362,0.09494970435348236
24.195315999999995,10.07754034117405,0.09459790372708196
24.199412,10.098993622445605,0.09426802422815606
24.203504,10.125597337491829,0.0938895040582651
24.2076,10.151746735262778,0.09349851925969536
24.211696,10.171394165108778,0.09314715372689497
24.215792,10.191484494554514,0.09278012259754524
24.219888,10.208883173375215,0.09242640287431976
24.22398,10.220112058970768,0.09209883942501268
24.228072,10.230775902391114,0.09176260267071819
24.23216,10.242669137386276,0.09141080006294838
24.236252,10.25287866353135,0.09106281240001685
24.240348,10.258602105301364,0.09073340768548906
24.24444,10.26286328802116,0.09039722281418873
24.248532,10.263757053040777,0.0900664060222003
24.252628,10.270022701634932,0.08968216177374694
24.256716,10.274493916479067,0.08930674258700351
24.260812,10.284115565097865,0.08888724000860328
24.264904,10.294290838216343,0.08844814801680512
24.268999999999995,10.300312201659562,0.08801397231695153
24.273084,10.306555014902653,0.08757073177726774
24.277168,10.304058526871026,0.08718506923507947
24.281252,10.306269573014331,0.08677315403821198
24.285336,10.305002476557524,0.0863711439165139
24.28942,10.30272743832577,0.08597699887270581
24.293508,10.299887357918807,0.0855708336855569
24.297592,10.290545309586891,0.08519642592813435
24.30168,10.28063821907977,0.08481116746235909
24.305772,10.269047419722561,0.0844268790192678
24.30986,10.256559403490337,0.08404549182025782
24.313948,10.237458694433228,0.08369929083545882
24.318036,10.218468710276051,0.08334774745772021
24.322124,10.207210085618645,0.08294801772748706
24.326208,10.201777661811045,0.08251167569134611
24.330296,10.202957930828337,0.08204023109250311
24.334384,10.193272290121083,0.08164172528289813
24.338472,10.183475924513894,0.08124763947543091
24.342564,10.16774263315696,0.08089352458518652
24.34666,10.150669225325274,0.08056027909230629
24.350748,10.137860452068777,0.08022068728496823
24.354844,10.126846112562307,0.07987520860657317
24.358932,10.121768698805576,0.07948899784701038
24.363024,10.112880967748932,0.07912298723601897
24.36712,10.10657416241739,0.07875273378046578
24.371212,10.100045907285976,0.07839069284366304
24.375304,10.098900953404632,0.07801182947910161
24.379396,10.10504445942332,0.07760667937242063
24.383488,10.116349816892205,0.07719574377095482
24.387584,10.131698359136415,0.07678938305472265
24.391676,10.1478333933557,0.07638534875943379
24.395772,10.170581120399872,0.07595006499433574
24.399868,10.195909773169143,0.07551322040812689
24.403967999999995,10.21418283351379,0.07512591511891309
24.408059999999995,10.229997110708805,0.07477193305853122
24.412156,10.242566112779109,0.07444841783074005
24.416252,10.267574008524111,0.0740645904887993
24.420352,10.292471179369178,0.07368603792227589
24.424444,10.320170725739219,0.07329608352773274
24.428544,10.345965113459297,0.07291608603949548
24.43264,10.368059908779395,0.07255045162930933
24.436732,10.389933254299624,0.0721950656931277
24.440828,10.413268858870067,0.07184983370956029
24.444924,10.443106431365468,0.07148356826006359
24.449024,10.473730495835943,0.0711219438675201
24.453116,10.5080541527064,0.07074975153492129
24.457211999999995,10.543275026451871,0.0703792098287294
24.461312,10.57457485799749,0.07003097192832326
24.465344,10.600269938493167,0.06970428643914423
24.469428,10.626297193688648,0.06936753022330874
24.473516,10.65120578220925,0.06904133048508102
24.477604,10.673877037380086,0.06873681984268948
24.481692,10.69385664192589,0.06843898685226146
24.485724,10.719662447321504,0.06811478010358564
24.489808,10.744792485641971,0.0677853322325506
24.4939,10.772159857312205,0.06743790106731193
24.497988,10.791685144582734,0.06713059646185851
24.502076,10.810313214978255,0.06682530524045785
24.506163999999995,10.830735719123796,0.06651810392699145
24.510255999999995,10.849142339719444,0.06622149148604536
24.514352,10.869343394065115,0.06592168337729166
24.518448,10.887860739560699,0.0656217975311505
24.522531999999995,10.906710259756087,0.06531193398122777
24.526616,10.917939145351639,0.06503150748431227
24.530591999999995,10.924349771872327,0.06477061533179707
24.534676,10.928179472667914,0.0645112700397727
24.538716,10.926182972613693,0.06427661174494564
24.542804,10.92709957298438,0.06403010799710626
24.54684,10.928126898254996,0.06377897265815853
24.550932,10.925233181325765,0.06354542384555208
24.554908,10.924355347946424,0.06330134090933152
24.559004,10.923698964366956,0.06304950975304084
24.56304,10.921026697237592,0.06280754683821273
24.567032,10.911852462183276,0.06258252988727482
24.571068,10.902788952028896,0.06235348229378048
24.5751,10.889693674774728,0.06214506661230559
24.579135999999995,10.875922630445416,0.06192910948728325
24.583176,10.864167469665999,0.06170262159071096
24.587224,10.8487127164866,0.061484693427339664
24.591256,10.83840839708187,0.061236923489334266
24.595348,10.826531093726985,0.060983094919674685
24.59944,10.816448224122123,0.060726897468387823
24.603476,10.804460195867305,0.06047704939005863
24.607564,10.795495992937326,0.060211582703394995
24.611643999999995,10.79067428200707,0.05992193412100728
24.615735999999995,10.78383668752692,0.059641772019221606
24.619824,10.782260251721372,0.05932910898238137
24.623852,10.775300514665753,0.0590219283114873
24.627935999999995,10.772261819809986,0.058699358365785256
24.632032,10.772357675178995,0.05835836730308255
24.636112,10.771667038572927,0.05801496452726331
24.64014,10.771087126866794,0.05766797186623477
24.644224,10.7735310404855,0.05730619552390553
24.648264,10.781468980254212,0.05693536305941616
24.652348,10.78649381959802,0.05657428391726672
24.656436,10.790953616766618,0.056201136917109644
24.660519999999995,10.798326514360124,0.055817412453673124
24.664604,10.80469147017868,0.05543922533519843
24.668692,10.812175092672119,0.055052076864273096
24.672775999999995,10.815848397865643,0.05467614461422302
24.67686,10.822213353684203,0.05429853698731874
24.680944,10.826783875752737,0.053922623006418216
24.685028,10.830346456046325,0.05355133462773421
24.689108,10.834806253214923,0.05318032687846763
24.693192,10.837360891733567,0.05281476856819135
24.697271999999995,10.840923472027153,0.05244428254348763
24.701356,10.839114168746201,0.05210700980488696
24.705432,10.841901674740246,0.05176315914389668
24.709516,10.83796576300947,0.051437071074938376
24.7136,10.831116750853786,0.05111972446413192
24.717683999999995,10.821354638273196,0.05081040253561112
24.721768,10.808679425267702,0.050508965563673056
24.72586,10.793201836737238,0.050211380152758195
24.729944,10.769538571431736,0.04991864600519849
24.734032,10.74397014747627,0.04962809609955822
24.73812,10.716164390171041,0.049351384189002596
24.742212,10.680737998265982,0.04908986189927768
24.7463,10.63970685531098,0.04883547370855996
24.750388,10.594754670156124,0.04859151416535586
24.75448,10.546667934776496,0.04836168074815366
24.758568,10.490739114997163,0.04815523866918062
24.762652,10.427189660617996,0.047963463508077675
24.766744,10.356019571638996,0.047786369061883306
24.770831999999995,10.272299864085362,0.04764152626345093
24.77492,10.182643230781983,0.047515414916850886
24.779012,10.086263179753782,0.04740423306815686
24.7831,9.98752365280035,0.047278469203690686
24.787188,9.87914760769719,0.04717630226490751
24.791284,9.76796918706906,0.04707599900686918
24.795372,9.649845898916235,0.04700024106307768
24.799468,9.524212701063517,0.04693544789689595
24.80356,9.392531852561117,0.04689719859055682
24.8076,9.257716453833941,0.046874349344133016
24.811688,9.127165689681954,0.04685777797465359
24.81578,8.995606983755021,0.04684366547157049
24.819868,8.866174886277916,0.04681207853896367
24.823908,8.742347539850751,0.04676831721190315
24.828,8.618409468523652,0.046726684588363786
24.832092,8.492566238546594,0.04668700246168484
24.836179999999995,8.361794024594737,0.0466671578639088
24.840268,8.233148419092709,0.04663140615799639
24.84436,8.10730518911565,0.046589332224371505
24.848448,7.9849401017387045,0.04655268312754252
24.852488,7.866385331661676,0.04650791977603059
24.856524,7.745814678034754,0.04647431446244775
24.860612,7.628046399932803,0.046434019911335965
24.864704,7.50871655555623,0.046425975293245006
24.868796,7.39308630357964,0.04641317246760559
24.872884,7.283958019528003,0.04638595296501277
24.876976,7.179537269651294,0.046348764782833916
24.881068,7.082404979674615,0.04630485284541272
24.885156,6.987620747947634,0.04623112947446805
24.889244,6.892836516220652,0.04615608463863094
24.893332,6.794463416993623,0.04607795781781377
24.897424,6.694971651091713,0.04601052854963459
24.901516,6.5883135678652405,0.045991530494865915
24.905616,6.475718558889024,0.04600259315023804
24.909711999999995,6.363012825012872,0.04601902440504274
24.913792,6.250761408411991,0.04606483983911469
24.917876,6.1461306264109465,0.04608709094977508
24.921964,6.0401597279351495,0.04613717828655598
24.926056,5.934864596534494,0.04620212814183747
24.930143999999995,5.832704015358614,0.04623694291701755
24.934232,5.739061285657579,0.04624211294270888
24.938316,5.650126090131474,0.04623553431790483
24.942404,5.560072227930487,0.046243296938097284
24.946492,5.472255699079263,0.046223327834370075
24.95058,5.381747519603002,0.04620220344740002
24.954712,5.284294472602052,0.046227006013089524
24.958804,5.184149774976065,0.046251644008712345
24.962892,5.082099918700121,0.04628276977400132
24.966971999999995,4.983528205024287,0.04631822049634214
24.97106,4.883837824673573,0.04637441988179796
24.9752,4.7868390949478945,0.0464282529252897
24.979288,4.692753465647121,0.046465601298171864
24.98338,4.606288470946182,0.04647557924559065
24.987468,4.5257604019949875,0.0464389133613275
24.991556,4.445343057943727,0.046389766822187886
24.995648,4.364360671717261,0.046314631623745696
24.99974,4.278892201115735,0.04623244649599579
25.003832,4.193866630113948,0.046106588060941305
25.007919999999995,4.111078392461925,0.04593315745154418
25.012008,4.01854291176024,0.04582592734816295
25.016092,3.917600304483643,0.04573716917399582
25.02018,3.81867358075694,0.045619182856359915
25.024268,3.719857581930171,0.04548724774005977
25.028351999999995,3.6183499324783677,0.045340076562055874
25.032436,3.521439092301558,0.04517467840620076
25.036459999999995,3.426654860574577,0.044973473090305076
25.040544,3.333886512397488,0.04473063795928739
25.044632,3.2411181642204006,0.04447789962213407
25.048708,3.1434208320685135,0.04427322835254338
25.052792,3.0467314416915743,0.04405622905668478
25.05688,2.9424214167147995,0.043890911054467394
25.06092,2.8360955081881323,0.04374821357128955
25.064896,2.726180732161417,0.04359382964703558
25.068928,2.612234189034916,0.043485319941052425
25.07292,2.4978447463086746,0.043463366543906284
25.07696,2.387265620882351,0.043379593483828034
25.081008,2.283077738481045,0.04325079673923613
25.085048,2.178446956479999,0.04319504452496743
25.08898,2.0696736824792312,0.04323070557322997
25.093015999999995,1.9694182599533092,0.04321834930766619
25.097052,1.8726409800275001,0.04324346227100001
25.101084,1.7673458486268452,0.041055251731334653
