Time,Force,Position
22.921912000000003,1.850455223605732,0.10895430585412116
22.925992,2.1073539852042638,0.11678101868863089
22.93008,2.376195104355483,0.12461545856808001
22.93416,2.6611210730591117,0.13239072242992292
22.938244,2.9632505579900315,0.14010600053652666
22.942324000000003,3.2741764325733316,0.14786167969092864
22.946408,3.6034130723832707,0.1555556980165968
22.950488,3.9454664512698434,0.16321257999409255
22.954568,4.2965148342576,0.1620205602732911
22.958652,4.654530920121116,0.16095954450576672
22.96274,5.020278365484401,0.15963417017934886
22.966824,5.380974684297421,0.15881807596739467
22.970912,5.741083125584168,0.15785820266501888
22.975,6.091066478419316,0.15700580814318013
22.97908,6.438633266951569,0.15590633088790093
22.983112,6.775143497130614,0.1547723767893372
22.987192,7.098126968131284,0.15368449228943523
22.991272,7.4008488445532254,0.15271765989278618
22.995356,7.676463566096147,0.15195797789786836
22.999428,7.929235767335238,0.15128784243538335
23.003512,8.161414199295796,0.1506910393744638
23.007592,8.37479329572784,0.15013580653455988
23.011676,8.571732532556608,0.149569074035531
23.01576,8.753239851557042,0.14900545281601452
23.019848,8.916623602104107,0.1484680257940555
23.023932,9.066812768172602,0.14785142988504144
23.02802,9.195965265362826,0.14729292899315255
23.032116,9.30655129449994,0.14676448631518385
23.036212000000003,9.399922389734229,0.14626866885445478
23.040304000000003,9.479667418565743,0.14576359288845547
23.044392,9.545687073770075,0.1452906147898094
23.048484,9.603696831297107,0.14476614358885945
23.052572,9.653597383922433,0.1442337516425944
23.056664,9.705701016870918,0.14357021455691318
23.060744,9.74376993684349,0.14300971909598717
23.064828,9.775314053540045,0.14246023665833724
23.06892,9.796977366935936,0.14197458773319388
23.073012,9.819526479531303,0.14145059624141237
23.0771,9.841731999751337,0.140906782492553
23.081192,9.865388361346056,0.14032868561464817
23.085284,9.890606289215397,0.1397140478763253
23.089372,9.91335401625957,0.13911631052724488
23.093464,9.93609032562821,0.13848718329283785
23.097556,9.952091799596497,0.1379068885510865
23.101652,9.963717914089656,0.13736320484510223
23.105744,9.973095277557523,0.136825516028875
23.10984,9.985385741450292,0.13625358085588388
23.113936,10.000024263592763,0.13564114636264515
23.118036,10.016002902209982,0.1350022906521968
23.122132,10.030297831977112,0.13437730611218532
23.126228,10.043019777794091,0.13376064447079167
23.130324,10.050923464536208,0.1331988292962702
23.13442,10.054673241603064,0.13266222393122085
23.138512,10.047889283645183,0.13224209641792267
23.142608,10.046931526537113,0.1317567181521306
23.1467,10.043514986279408,0.1313153719283739
23.150756,10.04559247217171,0.1308225171646931
23.154844,10.043748915864164,0.13037543077967995
23.158952000000003,10.044486285281716,0.1299102049964045
23.16306,10.045223654699267,0.12944563983797874
23.167092,10.042261431716838,0.1290161104662298
23.17118,10.039520658534277,0.12857619069334467
23.175284,10.036447710651913,0.12815160634243702
23.17938,10.0398767306945,0.12766756688308648
23.18342,10.046108126262059,0.127156265172955
23.18746,10.049991463579918,0.12668316904551774
23.19156,10.055669234647803,0.12619859003565753
23.195652,10.058998947465987,0.12575358233337072
23.199752,10.057510401209306,0.1253577692141156
23.203844,10.052100812752776,0.1250036938000267
23.207944,10.04288090699633,0.12468646633437896
23.212032,10.040605868764574,0.12429134827352145
23.216072,10.040801031357985,0.12388555980836201
23.22012,10.04581445302626,0.12343001103373362
23.224212,10.043993732069776,0.12304715313792192
23.228244,10.045307561338067,0.12262341872556876
23.232292,10.046510665706425,0.1222059569374599
23.236328,10.04984037852461,0.12176018446166294
23.240368,10.054067308217807,0.12130885467563304
23.244452,10.056954121436254,0.12088382984534227
23.2485,10.062421860379802,0.12044414320563945
23.252588,10.07035980014851,0.11999585745102369
23.256672,10.077511247942148,0.11954951431373038
23.260752,10.079512261961113,0.11916631332855708
23.264792,10.083307709730102,0.11877170229648155
23.268876,10.092597183649099,0.1183350164126245
23.272964,10.097068398493231,0.11794512750622212
23.277048,10.1016503382373,0.11755013787948121
23.28114,10.112623521006384,0.11710728654899057
23.285216,10.130209396600357,0.11660740631337568
23.289296,10.154186515219347,0.11606051079869219
23.293376,10.172115983188654,0.11558185066547308
23.29746,10.188140292508006,0.11512117221144626
23.301544,10.20573758577751,0.11466135627824295
23.305628,10.229836846971967,0.11415141268316745
23.309716,10.252706716591607,0.11366241368104647
23.313796,10.275355136411378,0.11318520078644811
23.317876,10.29756065663141,0.11272832293457007
23.321948000000003,10.321339160801594,0.11227271012876341
23.326036,10.34903870717163,0.11178276972151693
23.33012,10.376738253541667,0.11129538098668701
23.334208,10.403429858136759,0.11082104074134248
23.338296,10.43438609730704,0.1103316395516803
23.342388,10.464334394702371,0.1098511283443358
23.346484,10.494282692097705,0.10937469832686207
23.35058,10.523001597918224,0.10892092276263735
23.354672,10.5562065881138,0.10844231898837879
23.358768,10.591771054234608,0.10796310455767066
23.36286,10.624987462105715,0.1075201668026638
23.366952,10.657650245477148,0.10710412237503658
23.371048,10.691996737698672,0.10668812191745605
23.375136,10.73161580627033,0.10624867653671383
23.379224,10.774602292542168,0.10580067203389884
23.383312,10.81187330286413,0.10539644300962114
23.387404,10.844891096286437,0.10503982532921334
23.391492000000003,10.882394974083802,0.10466146084204106
23.395576,10.918780185206284,0.10429786508462696
23.39966,10.955730438503979,0.10394359051600523
23.403752,10.991894199826591,0.10359321717154123
23.407844,11.026939294474321,0.1032597113494357
23.411932,11.06366809797214,0.10292419634745498
23.416024,11.096586584170046,0.1026154152402284
23.42012,11.12782136151786,0.10231478432381033
23.424212,11.162079964190514,0.10198828807735867
23.428304,11.193204016638395,0.10169355436996869
23.4324,11.22488169358595,0.10138015177976295
23.436496,11.254089169708335,0.10107370496002767
23.440592,11.281047894805427,0.10076460342168667
23.444688000000003,11.307773752427119,0.10043577420820181
23.448780000000003,11.328661991523465,0.10012050124957242
23.452876,11.342151045819849,0.09984872910128251
23.456972,11.349581031791017,0.09959872252144729
23.461068,11.353754324961944,0.09935369042600375
23.465164,11.363078051907541,0.09906319947272196
23.46926,11.373287578052613,0.09873932658178751
23.473356,11.378335252747485,0.09843280424563268
23.477452000000003,11.38326078486689,0.09810156146431633
23.481548,11.389072116185774,0.09773830751095419
23.48564,11.387705712504562,0.09740631843400811
23.489736,11.381288182273085,0.09708556674266824
23.493832,11.368025091741318,0.0967837129381231
23.497928,11.359236667909078,0.0964325120776429
23.502024,11.345286392626637,0.09609604283860869
23.50612,11.327071482769005,0.09576992416191485
23.510216,11.308623705435972,0.09542199891322019
23.514256,11.283895409977855,0.0950999897947695
23.518344000000003,11.256475463894702,0.09478836408732216
23.52238,11.231292851161314,0.09445167569172527
23.526464,11.207118180202873,0.09410656083426099
23.530556,11.186532376744477,0.09374525649314688
23.534652,11.16851608133565,0.09334634405932637
23.538692,11.15374506105153,0.09291465923696227
23.542788,11.138187548792338,0.09248146696304604
23.546884,11.118819719233226,0.09207074374916652
23.550928000000003,11.103151482074098,0.09164185812020427
23.555024,11.08860191158985,0.09120019995374125
23.55912,11.07461738328081,0.09076692069700136
23.563216,11.060632854971768,0.09033411786757872
23.567312,11.057968553662546,0.08984062170497334
23.571408,11.057774453178485,0.0893436739097763
23.575504,11.062066437069486,0.08882862974037933
23.57954,11.066026246260684,0.08832761814647512
23.583628,11.075480081601885,0.0878031069267015
23.587716,11.0884120595432,0.0872689149057563
23.591808,11.103138471234539,0.08672881257470277
23.595792,11.12504261792597,0.0861637625771417
23.599888,11.151654298792332,0.08557606753202715
23.603984,11.177601630259081,0.08501554617622596
23.60808,11.200746586200863,0.0844695733116131
23.612176,11.228820526117445,0.08389714996240986
23.616272,11.257127333509427,0.08334713129214288
23.620368000000003,11.285777733276745,0.0828166673946978
23.624464,11.317119783669105,0.08227901510316886
23.62856,11.3540665851114,0.08171960240510062
23.632656,11.386870894553976,0.08119401755284152
23.636752,11.42225612972165,0.08066689324348744
23.640848,11.460333015514362,0.08013500813809017
23.644944,11.49617256795731,0.07962617770208535
23.649040000000003,11.524391485800423,0.07915758032993668
23.653128,11.552942578343341,0.07867802535094998
23.657224000000003,11.584074596611362,0.0781977815689123
23.661316000000003,11.61610383175439,0.077718222527267
23.665408000000003,11.64611718334753,0.07725377226066286
23.669496,11.679154360265505,0.07677401712760666
23.673584,11.712756579358691,0.0763054976625194
23.677676,11.742769930951829,0.07584863470509476
23.681764,11.770878123895008,0.07540255530445641
23.685848,11.797745507587836,0.07494343605214451
23.689928,11.825399383255743,0.07448616954230364
23.694012,11.84532189942388,0.07406682006868898
23.698096,11.864790098316746,0.07363522964054185
23.70218,11.882906763059328,0.07319396768532718
23.706264,11.900347660726762,0.07274898196382466
23.710348,11.911397315369188,0.07232281768442854
23.714436000000003,11.925016478061174,0.07186795259073545
23.71852,11.934149556378104,0.07142301412844305
23.722604,11.9383422330447,0.07097518283532092
23.726688,11.93916749201112,0.07052561522527039
23.730768,11.942230084327303,0.07005771235374414
23.734856,11.946411343318365,0.06958122507142693
23.738948,11.945652200659097,0.06910088671388864
23.74304,11.941636365199589,0.06861670333022896
23.747128,11.937387662264674,0.0681123433069702
23.75122,11.928763599854637,0.06761293166884125
23.755296,11.920017394869134,0.06709028605580604
23.759384,11.91261130635838,0.0665517007616974
23.76348,11.902059249947321,0.06600309135584166
23.767572,11.888815542911225,0.06545686134503798
23.77166,11.875117518599854,0.06489642831051441
23.775688,11.862305293487964,0.06430468687506379
23.779680000000003,11.847809359525987,0.06371033005735631
23.783756,11.836337250888846,0.06310218121206536
23.787808,11.82228421652661,0.06249291944257829
23.791852,11.807666139989163,0.061870987585184264
23.795908,11.788451254176724,0.061256922015359976
23.799940000000003,11.772592368388931,0.06061673174076386
23.804032000000003,11.754939048851114,0.05997491810786684
23.808068,11.74042027953807,0.0593124692923575
23.812104,11.721304700950032,0.058656017955527745
23.816144,11.698268080162146,0.05801202630036072
23.820236,11.67231835894935,0.057373319011046725
23.824276,11.640542436886745,0.05674900452044142
23.828372,11.602608139274526,0.0561506831083944
23.832472,11.562547233212479,0.055561237574499746
23.836512000000003,11.514644242750729,0.05499477006907916
23.840612,11.456096792364303,0.05445556269929028
23.84472,11.395090558828244,0.05393410894887694
23.848768,11.331957716842357,0.05341925365288437
23.852816,11.265690324631695,0.052916182808702326
23.856864,11.195734757696584,0.052442791332438746
23.860912000000003,11.122866090336569,0.0519724907911221
23.864956000000003,11.039131513252007,0.05153623664569597
23.868952,10.948341343742824,0.05112281878209426
23.872952,10.85329795733398,0.050727111383005154
23.87698,10.752882687350596,0.050357658479392206
23.880964,10.642166549817878,0.050032137803979436
23.885048,10.529667396210668,0.049732393980439236
23.889096,10.411685634128988,0.04946375812830627
23.893192000000003,10.290015697322856,0.04922686831536838
23.897288,10.165100485392015,0.04900601226180314
23.901384,10.039410199161631,0.04880885574030511
23.905484,9.91596866395654,0.048622956460167205
23.909576,9.790179070501754,0.04845492350212357
23.913672,9.658120376597417,0.04831863900089122
23.917776,9.526405275068417,0.04819968040399597
23.921868,9.401757183639576,0.048079646214240025
23.925964,9.277452684586073,0.04797912497585205
23.93006,9.152594561032899,0.047897387947296595
23.934156,9.025277654330088,0.04784026515315693
23.938252,8.899423006677496,0.04779450175736331
23.942348,8.772793284725362,0.04777797030316571
23.946444,8.646728604948434,0.047774960668409756
23.95054,8.527620210371733,0.04777951674322745
23.954684,8.408855408170366,0.0478080964851757
23.958836,8.293568748569115,0.04784115094463552
23.962928,8.18557054886789,0.04786821775326921
23.96702,8.07936678291669,0.04789418599637113
23.971112,7.977538376440616,0.04792450511125846
23.975252,7.877504403714563,0.04795657671068782
23.979388,7.779264864738535,0.04798771117938917
23.98352,7.682143992437388,0.04800727292155718
23.987656,7.585920337011253,0.04802570612410473
23.9918,7.495301432635059,0.048033133596909736
23.995944,7.410508729108676,0.048018194690703904
24.000084,7.326613242457304,0.04800305498023851
24.00422,7.240812597155974,0.047991682418415754
24.008308,7.154446909679436,0.04796231982681213
24.012396,7.0689784390779105,0.047932565737713484
24.01648,6.982612751601372,0.047903833305267964
24.020564,6.893666138399734,0.04786814538610108
24.024648000000003,6.8056167420731075,0.04783354132344364
24.028740000000003,6.720369721271451,0.04779277512004234
24.032832000000003,6.631644557869683,0.047744816667449126
24.03692,6.5450460029177435,0.047677589213295284
24.041012,6.456320839515975,0.04763186706502767
24.0451,6.360982983289318,0.047607502633879514
24.049192,6.264526460387781,0.047596722244584555
24.05328,6.164702519786067,0.04757061588306843
24.057428,6.065997245859234,0.04753020433668728
24.061512,5.967181247032466,0.04749531475345285
24.065604,5.864222756205975,0.04749811272361067
24.069696,5.757343223179634,0.0475256816619752
24.073784,5.649677198178215,0.04754213487242555
24.077876,5.539884564726968,0.04758096957415513
24.081968,5.434688740550714,0.047610443220422086
24.086056000000003,5.32837424969958,0.04765670641493401
24.090144,5.22172758414864,0.04772689357400434
24.094236,5.113286484847677,0.04779930140015547
24.098328,5.0106715863965245,0.04783532751208765
24.10242,4.907945963045439,0.04787945090873583
24.106512,4.804544572619209,0.047907266740343415
24.110604,4.697222139993128,0.04797011117177176
24.114700000000003,4.587773098917219,0.04806622969224978
24.118796,4.477205391166428,0.04818476104017774
24.122892,4.369993683440281,0.04824664264367449
24.126876,4.267600234788998,0.0482818038226943
24.130972,4.163523077287627,0.048311349147456405
24.13506,4.058105803311503,0.048386137778933316
24.139144,3.952577804435445,0.04847170575164409
24.14318,3.8432394882594703,0.04859279069798088
24.147268,3.740735314708253,0.04865925462599815
24.151304,3.6421521833568873,0.04869421515455792
24.155396,3.540545226680681,0.04876730381631406
24.159484000000003,3.442748587304393,0.04881534472100721
24.163572,3.337442038228205,0.048914965942473014
24.16766,3.2322462140519517,0.0490111243348834
24.171696,3.130749982275681,0.04909854866276066
24.175732,3.030937459349499,0.049210089147465885
24.179764,2.9268717195236604,0.049423364777742035
24.183856,2.8272920640728807,0.04963988117480613
24.18794,2.7283881756972437,0.04990056352378962
24.192024,2.6382235885963223,0.0500596294012595
24.196108,2.5518693187953176,0.050201633648978825
24.200196,2.471230524944188,0.05028264945716896
24.204292,2.3901488314933195,0.050429942599099845
24.208384,2.3089564131425155,0.050597815788921384
24.212480000000003,2.229558428541736,0.05077643499448486
24.216568,2.1501604439409556,0.051004077496890114
24.220656,2.0687465757902825,0.051323341644696104
24.224748,1.9977557177644139,0.051503107994265995
24.22884,1.9247489761886514,0.0517290250864656
24.232932,1.8535366683629126,0.051943772180281726
24.237024,1.786921169812168,0.05214661818956806
24.24112,1.7185112375113996,0.052348237614613546
24.245216000000003,1.6548088393855602,0.052527933976626494
24.249308000000003,1.5945845838598331,0.05275178889423268
24.253404,1.5297635190591123,0.05307143332665143
24.257504,1.4687527715583084,0.0533274887533747
24.261596,1.4109872991822143,0.05344071320969221
24.265696,1.3532218268061202,0.05356566688209511
24.269788,1.2965750211049074,0.050911152253221396
24.273884,1.2348885065289614,0.04832303840558911
24.277980000000003,1.175107150602974,0.04572565028459873
24.28208,1.109388868927241,0.04317403049099385
24.286176,1.0456864708014018,0.04059047159727337
24.290268,0.986691606850491,0.03799704988442378
24.294364,0.9330800441496514,0.03539004108644342
24.29846,0.8852946822986222,0.03270381149619228
24.30256,0.8440112883725455,0.02992277498825056
24.306656,0.7989175771465516,0.027245315833148088
24.310748,0.7556182996705816,0.024549887911735943
24.314848,0.7092951968697712,0.021877931033427188
24.318944,0.6611776603189373,0.019196640246158712
24.323036,0.6156410494932041,0.01653119162259251
24.327136,0.5729068141924413,0.013845067951908933
24.331228,0.5303940286915484,0.011107478672857121
24.335324,0.49528042799061944,0.008271506142420015
24.33942,0.45893743571487416,0.005472716324789165
24.34352,0.42607258603924136,0.0027446003852101726
24.347616,0.3911918528137151,0.0
24.351708,0.35978926218830126,0.0
24.355804000000003,0.3293946133378341,0.0
24.3599,0.29852283917567274,0.0
24.363996,0.274740883150093,0.0
24.368096,0.25454779462456056,0.0
24.372192,0.23032293899924133,0.0
24.376284,0.20483446608715086,0.0
24.38038,0.1800217602502025,0.0
24.38448,0.15520905441325414,0.0
24.388576,0.13208005742639453,0.0
24.392672,0.11074549418955856,0.0
24.396764,0.09411846512765148,0.0
24.40086,0.08108030356579167,0.0
24.404956,0.06893935887894369,0.0
24.409052,0.057584906167172656,0.0
24.413152,0.04791416230549039,0.0
24.417248,0.03723547666886144,0.0
24.42134,0.02857267458212589,0.0
24.425372,0.018901930720443636,0.0
24.429464,0.013041504158678413,0.0
24.433552,0.007181077596913192,0.0
24.437636,0.005020243435130136,0.0
24.441672,0.005020243435130136,0.0
24.445764,0.0036459012484240313,0.0
24.449808,0.00036640041175940935,0.0
24.453836,0.0,0.0
24.457936,0.0,0.0
24.461972,0.0,0.0
24.466,0.0,0.0
24.47004,0.0,0.0
24.474068,0.0,0.0
24.4781,0.0,0.0
24.482128,0.0,0.0
24.486164,0.0,0.0
24.490196,0.0,0.0
24.494236,0.0,0.0
24.498268,0.0,0.0
24.50236,0.0,0.0
24.506448,0.0,0.0
24.510536,0.0,0.0
24.514572,0.0,0.0
24.51866,0.0,0.0
24.522756,0.0,0.0
24.526852,0.0,0.0
24.530948,0.0,0.0
24.534992,0.0,0.0
24.539088,0.0,0.0
24.54318,0.0,0.0
24.54728,0.0,0.0
24.551312,0.0,0.0
24.555396,0.0,0.0
24.559484,0.0,0.0
24.563572,0.0,0.0
24.567664,0.0,0.0
24.571756,0.0,0.0
24.575856,0.0,0.0
24.579952,0.0,0.0
24.584048,0.0,0.0
24.588128,0.0,0.0
24.59222,0.0,0.0
24.596308,0.0,0.0
24.600396,0.0,0.0
24.604528,0.0,0.0
24.608612,0.0,0.0
24.6127,0.0,0.0
24.616792,0.0,0.0
24.62088,0.0,0.0
24.62496,0.0,0.0
24.629052,0.0,0.0
24.63314,0.0,0.0
24.637232,0.0006985751115640232,0.0
24.64132,0.0006985751115640231,0.0
24.645412,0.0013971502231280462,0.0
24.649496000000003,0.004000883984650587,0.0
24.653584,0.008620501296066516,0.0
24.65762,0.015034552357506092,0.0
24.6617,0.01763828611902863,0.0
24.66578,0.023941612280533337,0.0
24.669816,0.02945844646696109,0.0
