Time,Force,Position
29.988319999999995,0.04933229890588794,0.0
29.99242,0.04933229890588794,0.0
29.996512,0.04933229890588794,0.0
30.000608,0.04579706941141559,0.0
30.004704,0.04237256481687812,0.0
30.008804,0.04152898594744125,0.0
30.012896,0.04079613197793925,0.0
30.016991999999995,0.04006327800843725,0.0
30.021088,0.04006327800843725,0.0
30.025184,0.0385439320638583,0.0
30.029276,0.03669241141947473,0.0
30.033372,0.033046457025067526,0.0
30.037476,0.030297719505672126,0.0
30.041568,0.024635881561371527,0.0
30.045663999999995,0.019981985392017617,0.0
30.04976,0.014430872347651884,0.0
30.053856,0.009887701078232848,0.0
30.057956,0.005344529808813811,0.0
30.062048,0.0020307501142112112,0.0
30.066143999999998,0.0005114041696322586,0.0
30.07024,0.0,0.0
30.074335999999995,0.0,0.0
30.078436,0.0,0.0
30.082528,0.0,0.0
30.086624,0.0,0.0
30.09072,0.0,0.0
30.09482,0.0,0.0
30.098912,0.0,0.0
30.103008,0.0,0.0
30.107104,0.0,0.0
30.111203999999997,0.0,0.0
30.1153,0.0,0.0
30.119392,0.0028594624193302616,0.0
30.123487999999995,0.005829649738595394,0.0
30.127588,0.007902620182848702,0.0
30.131684,0.010983532402048708,0.0
30.135776,0.014064444621248711,0.0
30.139875999999997,0.014232256415543503,0.0
30.143908,0.014232256415543503,0.0
30.148,0.014232256415543503,0.0
30.152088,0.014232256415543503,0.0
30.156175999999995,0.014232256415543503,0.0
30.160259999999997,0.014232256415543503,0.0
30.164348,0.014232256415543503,0.0
30.168436,0.014232256415543503,0.0
30.17252,0.014232256415543503,0.0
30.176612,0.014232256415543503,0.0
30.180699999999995,0.014232256415543503,0.0
30.184783999999997,0.014232256415543503,0.0
30.188872,0.014232256415543503,0.0
30.192955999999995,0.014232256415543506,0.0
30.197044,0.014732242909642914,0.0
30.201136,0.011872780490312651,0.0
30.20522,0.012315680090052137,0.0
30.209308,0.014553013439815268,0.0
30.213396,0.013766521464738314,0.0
30.217492,0.013877246364673185,0.0
30.22158,0.01970344721448361,0.0
30.225663999999995,0.02659467673360065,0.0
30.229747999999997,0.032588689377705864,0.0
30.233836,0.04138507754678142,0.0
30.237924,0.04827630706589846,0.0
30.242008,0.05617547835996219,0.0
30.246088,0.06205876610413254,0.0
30.250116,0.06693411207335617,0.0
30.2542,0.07281739981752652,0.0
30.25828,0.08262172976154877,0.0
30.262364,0.09332327658058287,0.0
30.266444,0.10413554829955181,0.0
30.270528,0.11181326979374578,0.0
30.274559999999997,0.1213961499378983,0.0
30.278636,0.1285738849379929,0.0
30.282712,0.13535438955717505,0.0
30.286795999999995,0.13480076505750072,0.0
30.290876,0.1344685903576961,0.0
30.29496,0.1353658072327079,0.0
30.298987999999994,0.13525508233277306,0.0
30.303068,0.13133404013292113,0.0
30.307143999999997,0.12472134730803378,0.0
30.311232,0.12001381313310493,0.0
30.31532,0.11351184520815243,0.0
30.319412,0.11082019458311694,0.0
30.323504,0.10712060218313477,0.0
30.327596,0.10252379290814079,0.0
30.331684,0.09904565030802837,0.0
30.335772,0.09545678280798107,0.0
30.339864,0.08565245286395881,0.0
30.343951999999994,0.07495090604492473,0.0
30.347992,0.06413863432595579,0.0
30.352087999999995,0.05646091283176179,0.0
30.356184,0.04687803268760928,0.0
30.36028,0.0392003111934153,0.0
30.364376,0.03241980657423313,0.0
30.368472,0.029560344154902874,0.0
30.372512,0.025582215060691044,0.0
30.376608,0.02239057794155617,0.0
30.380703999999994,0.019309665722356165,0.0
30.384792,0.020317607497302864,0.0
30.388884,0.023795750097415285,0.0
30.392976,0.029522643722823688,0.0
30.397064,0.032347854598859735,0.0
30.401156,0.03754395907565948,0.0
30.405244,0.04781402545379126,0.0
30.409336,0.0723630899587759,0.0
30.413424,0.10807943771690413,0.0
30.417511999999995,0.15968202057863773,0.00855068627262569
30.421603999999995,0.23295481906374488,0.01714352666113282
30.425687999999997,0.33446485677828597,0.02523432941262592
30.429776,0.46140975819729074,0.033178170896718415
30.43386,0.6123272642705402,0.04103652264819725
30.437952,0.7878931420731762,0.04883525574938076
30.44204,0.9862022329552402,0.05665127747375621
30.446127999999995,1.2093811453665608,0.06440126035440621
30.450216,1.456311212632256,0.07213927878288233
30.454304,1.7284546938025453,0.07986118294202306
30.458388,2.02390643022747,0.08761118143674579
30.462475999999995,2.3465874641068813,0.09530021971783492
30.466567999999995,2.6896065659216637,0.10300781681149151
30.470659999999995,3.059511372815595,0.11064462150669956
30.474751999999995,3.4521479751134225,0.11823064052817492
30.478848,3.87131527243953,0.12576924897446362
30.482932,4.307476053868591,0.13329530315593258
30.487024,4.75802655832444,0.1407946759938234
30.491111999999998,5.215422623080581,0.14822756149578642
30.495203999999998,5.677602693884987,0.15556694500444934
30.499292,6.131872174236492,0.15430494558487362
30.503392,6.572149160458817,0.15294906247189352
30.507484,6.980710764851597,0.15212449037475448
30.511584,7.365177622014664,0.1514179524542575
30.51568,7.725561149623552,0.150801976313493
30.519772,8.065217347702905,0.15019646335107695
30.523868,8.385043433127734,0.1495385303594285
30.527964,8.6820155805732,0.14892012462102625
30.532059999999998,8.96016555713909,0.14825319763741981
30.536156,9.212869252324985,0.14758101251882857
30.540243999999998,9.444944925205746,0.14682574633479434
30.54434,9.647763999406592,0.1461259079739616
30.548435999999995,9.826931225977468,0.1453861191829934
30.552516,9.977861213318912,0.14471524078323963
30.556604,10.100111061831178,0.14411893441908064
30.560688,10.199629114939547,0.1435492586122534
30.56478,10.277091139719166,0.1429951524558663
30.568867999999995,10.337216088020492,0.14243730032796856
30.572956,10.378343086344504,0.14194890209962924
30.577036,10.403740245166976,0.14153936340674078
30.581128,10.419588775388588,0.14117858833434946
30.585212,10.43117267103501,0.14085198141296618
30.589304,10.44925853460639,0.14045835492902864
30.593396,10.46633645640282,0.14007916351230182
30.597491999999995,10.486659653323958,0.13965289795985697
30.601588,10.504291199620061,0.1392539362234475
30.60568,10.519452545091,0.13887102242487864
30.609764,10.53102502306189,0.1385199790675863
30.613848,10.536206258007763,0.13823001562293324
30.617932,10.543857693778804,0.13792740423322042
30.622015999999995,10.545350754000227,0.137704783811055
30.626104,10.547298131496923,0.1374930889398938
30.630188,10.549921276068762,0.13728352083994877
30.634276,10.553663087315481,0.13705660220016763
30.63836,10.560650173686911,0.13678190181193328
30.642452,10.567404392582938,0.13648715377454113
30.646539999999995,10.575498727953716,0.13616556310122332
30.650623999999997,10.583028021149287,0.1358386837043445
30.654712,10.590102997069586,0.13549947385334787
30.658795999999995,10.593367655689967,0.13519902676818973
30.662884,10.59685376411022,0.13488863020898773
30.666968,10.598766888580315,0.13458389208156307
30.671048,10.59630465357529,0.13431221284011066
30.675132,10.592945201695251,0.13404786912573585
30.679208,10.585886157415233,0.13381835558606459
30.683284,10.57681122958532,0.13361313060582075
30.687316,10.569542153180963,0.13342449230209033
30.691399999999994,10.569683679252105,0.13319947540421928
30.695376,10.578465199373555,0.13291791613347187
30.699451999999997,10.585463703420517,0.13268210483822782
30.703536,10.602110143292737,0.1323780432133599
30.707615999999994,10.629633910565037,0.13198851616988957
30.711704,10.658398487087688,0.13160973940930898
30.715728,10.687395931085739,0.13125268002027035
30.719815999999994,10.720325834959178,0.13088745181719336
30.7239,10.751251272958253,0.1305763823979024
30.727932,10.787006387707725,0.13025106596018715
30.731967999999995,10.823559412107807,0.12995582271928857
30.736003999999998,10.866625822108375,0.1296371217288133
30.740032,10.919450892834139,0.1292517722132193
30.744119999999995,10.97520048166034,0.12886886788475083
30.74816,11.037684905886893,0.12845652321257325
30.752191999999997,11.103093848213886,0.12804559383281983
30.75628,11.172435250416264,0.1276269965947439
30.760372,11.244025403643938,0.1272082218953324
30.764464,11.320101641246673,0.12676006583746646
30.768552,11.393696260348708,0.12629533812243998
30.772644,11.45953668459991,0.12584967312429118
30.77668,11.516737114800796,0.12545883992503762
30.780708,11.574934069101097,0.12502999331367337
30.78474,11.629530738225819,0.12460449527404635
30.788788,11.670447704425493,0.12428270945502813
30.792872,11.711807570224906,0.12394593950562816
30.796952,11.753831785423928,0.12358473785006292
30.80098,11.792710032722644,0.1232338514379204
30.80502,11.83516572984587,0.12283305364384235
30.809048,11.872791750218704,0.12245004728375865
30.813128,11.910517077815937,0.12203785682696848
30.817207999999997,11.94161829491275,0.12165286053147578
30.821292,11.964190242859186,0.12131000705594555
30.825323999999995,11.987647990005097,0.12093666954174231
30.829364,12.003473684875647,0.12059894306245161
30.833451999999998,12.022987554470646,0.12021078675013472
30.837548,12.04058484774015,0.11981251380968444
30.841635999999998,12.059854432184212,0.11938291210963187
30.845659999999995,12.075756598928095,0.11896842865703021
30.849751999999995,12.094128966497145,0.11854751828266948
30.853848,12.117552460616462,0.11810845527252889
30.85794,12.142881113385737,0.11765493590410726
30.862027999999995,12.169217707929956,0.11719495860762115
30.866124,12.189617376724433,0.11678599850220395
30.870155999999994,12.217748405018677,0.11631602370114405
30.874247999999994,12.24520366623778,0.11584561795098772
30.878336,12.269745827031976,0.11539869347794232
30.882424,12.290588395426191,0.11497593411737739
30.886512,12.308628588295436,0.11457425993512704
30.8906,12.326668781164681,0.11417353073383232
30.894687999999995,12.340898656734009,0.11380134603942067
30.898779999999995,12.35692296605336,0.11341931418182594
30.902868,12.378552026422653,0.11300096292134872
30.906955999999997,12.395473552617016,0.1126161485457389
30.91104,12.416205396111295,0.11220513241318172
30.915136,12.429992372080884,0.11185286480091182
30.919231999999997,12.441984914300447,0.1115107969172365
30.923316,12.452183022769988,0.11118003142882667
30.927408,12.46091887218931,0.11084689677966723
30.931496,12.469089679433425,0.11050819359456293
30.935584,12.475908952527258,0.11016490786233513
30.939676,12.48384689229597,0.10981025437048875
30.94376,12.486290805914676,0.10948623895875884
30.947852,12.496576803933086,0.1091041950011806
30.951944,12.500250109126613,0.108764749741237
30.956036,12.500445271720023,0.10843895603931604
30.960124,12.507806751637993,0.10805348100565165
30.964216,12.520097215530765,0.10763152972730228
30.968304,12.533617070998353,0.10719509504868802
30.9724,12.547247651365875,0.10675574577342821
30.976488,12.562107623308213,0.10630061641287454
30.98058,12.578196986825365,0.10583128213006748
30.984672,12.589800265967462,0.10538409273408879
30.988772,12.60252221178444,0.10492491553806514
30.992864,12.60975013145141,0.10449423186095391
30.996964,12.619769008967818,0.1040215049423439
31.001059999999995,12.630009336284099,0.10354137212034305
31.005156,12.633747695675424,0.10309598558759689
31.009252,12.641296372366666,0.10262775316601308
31.013344,12.645034731757994,0.10218301861724231
31.017444,12.64384410717452,0.10177274420280073
31.021536,12.639064615091,0.10137801495249929
31.025631999999995,12.636976773632513,0.10097035854870498
31.029728,12.630181397999099,0.100590825644287
31.033824,12.628425731240421,0.10017266139217966
31.037916,12.629361715106775,0.09974248595266985
31.042016,12.62077190572334,0.09936952668791198
31.046111999999997,12.605680128414948,0.09902978491983663
31.050208,12.585770092031694,0.09871925889389255
31.054303999999995,12.56305768012347,0.09842282832098309
31.058395999999995,12.53911587664043,0.0981404599993118
31.0625,12.511363755857472,0.09787951094472915
31.066592,12.486303285699549,0.09760676340799246
31.070628,12.460124148866747,0.09734426820149078
31.074664,12.434620779109084,0.09708440256884576
31.0787,12.40665862620179,0.09685334396018731
31.082752,12.383182557669553,0.09660382087471103
31.086859999999994,12.365200515287325,0.09632801121633411
31.090944,12.342965256005439,0.09608852716980565
31.09504,12.3243188642236,0.0958342846242928
31.099128,12.310047831916888,0.09556558487410458
31.103216,12.300152159085297,0.0952828245599569
31.107243999999994,12.29283741197881,0.0949935638882298
31.111272,12.285190490172516,0.09471516032872629
31.115351999999994,12.274298293241513,0.09446547708273023
31.119428,12.263971138485715,0.09422363231308241
31.123515999999995,12.259924501855004,0.09395769936650403
31.127548,12.262158383349375,0.09366787928105615
31.13158,12.270894232768695,0.09334742671841768
31.13562,12.279076457688342,0.093044394575521
31.1397,12.290736825208102,0.09273216510254327
31.143676,12.30666182730305,0.09241111519705553
31.14776,12.319452279173223,0.09211517530421305
31.15184,12.335720873643508,0.09181035194533273
31.155932,12.358380711138814,0.0914799125248955
31.160024,12.382392082784403,0.09115766264004033
31.16412,12.400245078880378,0.09088193188216488
31.168215999999997,12.420457550901581,0.09060904401512039
31.172304,12.43988353094771,0.09033480819964972
31.176396,12.457293627443944,0.09007495103027877
31.180491999999997,12.474027956865037,0.08981166903445507
31.18458,12.485722577411396,0.08958257005866237
31.188675999999997,12.498535864632634,0.08934458218836326
31.192772,12.51123842695394,0.0891101565388027
31.196867999999995,12.527529856775292,0.08886390942503464
31.200956,12.54202685284662,0.08862413224406013
31.205051999999995,12.554507965368055,0.08839857409490084
31.209143999999995,12.567664844964634,0.08817874075852057
31.21324,12.57387685703652,0.08800140692254654
31.217332,12.587820228608177,0.08778310425764561
31.221428,12.601763600179831,0.08756590560993606
31.22552,12.616714913526431,0.08734361239642274
31.229608,12.63827891969792,0.08709191381645212
31.233704,12.66208025921917,0.08682262928578433
31.237792,12.68240345614031,0.086562447636457
31.241876,12.706304102885964,0.08626727926249628
31.245968,12.731544866106368,0.08595488044552033
31.250052,12.75845792050133,0.0856182231745593
31.25414,12.789857059271352,0.08526876232096475
31.258227999999995,12.824169298466279,0.08490571789702829
31.262316,12.859157304736346,0.08454839509765852
31.2664,12.89929574478108,0.08415769730819023
31.270484,12.93652108440091,0.08378401894980853
31.274572,12.976880974245516,0.08339030533115864
31.278659999999995,13.017573038789925,0.0829888774999551
31.282743999999997,13.061288928659176,0.08257138438935697
31.286828,13.105226268328293,0.0821482053235461
31.290916,13.145796190297236,0.08172970748233334
31.295004,13.192524487815794,0.08127307613854322
31.299091999999995,13.236782584509188,0.0808213252962865
31.303175999999997,13.27587882975238,0.08037713489278557
31.307272,13.311718382195327,0.07993415147853061
31.311359999999997,13.34038019963818,0.07951119987872371
31.315448,13.363326541131157,0.07911352917828834
31.31954,13.386383607524069,0.07871349704123942
31.323632,13.401709314417214,0.07834799911552345
31.327727999999997,13.417145746210293,0.07797921459349744
31.331816,13.426645252253625,0.07764129181145474
31.335904,13.435014673946544,0.0772885595136739
31.34,13.439795228139415,0.07694450551375787
31.344096,13.444342914856884,0.07658321983441777
31.348192,13.446309675849252,0.0762253327027747
31.352287999999994,13.443003860491483,0.0758747840501033
31.356379999999994,13.436219902533605,0.07552893500022329
31.360479999999995,13.426965743750557,0.0751825543589987
31.36458,13.415019934342476,0.0748420674103924
31.368675999999997,13.403295574734264,0.07449497601933841
31.372767999999997,13.394816490250763,0.07412627266521331
31.376864,13.383867204942096,0.07375670014933519
31.380959999999995,13.367534618383358,0.07339711413866704
31.38506,13.357138957574364,0.07301038743515449
31.389152,13.34674329676537,0.0726232626797525
31.393252,13.340490127956098,0.07221285992468572
31.397344,13.336474292496591,0.07178586554969708
31.401444,13.330885473086928,0.07135534681554648
31.405536,13.332352246101895,0.07089046531275897
31.409631999999995,13.337285744041438,0.07039929082278662
31.413667999999998,13.340646258030828,0.06990317641700258
31.417703999999997,13.343896047120285,0.06941114065506582
31.421752,13.349493894459437,0.06890005320044629
31.425839999999997,13.354083800023645,0.06839421688081783
31.429924,13.356768546937895,0.06789372117958982
31.433972,13.364160828027071,0.06737802649230223
31.438011999999997,13.371774558916119,0.06685539356766804
31.442044,13.379388289805163,0.06633303288191518
31.446119999999997,13.386436978519,0.06580209159016223
31.450156,13.3928099001577,0.06526655265179081
31.454184,13.389435578746731,0.06476461924650584
31.458212,13.386626299510974,0.0642713600272877
31.462256,13.386619395800183,0.06377020110180076
31.4663,13.38369939166449,0.06327997705148487
31.470347999999998,13.380890112428729,0.06278637955025887
31.474447999999995,13.37505700786813,0.0623058669760158
31.478488,13.369445353107402,0.06181940739407308
31.482584,13.366636073871641,0.061326929321444165
31.486684,13.36091369421098,0.060844598140591954
31.490736,13.349930155875713,0.06038918535835017
31.494736,13.345670035265268,0.05991486303662841
31.498832,13.340401972879874,0.05944467233812792
31.502883999999995,13.335698952669691,0.058983913058722894
31.506936,13.329987990684558,0.05852657132896563
31.511039999999998,13.327300854024266,0.05805698826585462
31.515092,13.328534759563825,0.05757632681910294
31.5192,13.33223886592855,0.057100273296757535
31.523236,13.33381636384345,0.05663427839487199
31.52722,13.335061687058547,0.056177083369959684
31.531256,13.334966893798889,0.05573268390706657
31.53534,13.346303052438982,0.05526181774967896
31.539372,13.353939618679092,0.05479574736076512
31.543456,13.360568243144257,0.054333242269566026
31.547532,13.363054375609702,0.05388719859903731
31.551612,13.36240595785037,0.05345420562543835
31.555688,13.358401540066394,0.05303980984939567
31.559771999999995,13.347906572032999,0.05265835877860957
31.56386,13.330245286675042,0.05230406022941784
31.567947999999998,13.310457392867256,0.051958972122214606
31.572036,13.289661557284525,0.05161566087430502
31.576124,13.257999811977252,0.0513036010215947
31.580212,13.223990008420278,0.05100692172605228
31.584295999999995,13.181019453788718,0.050737116921836765
31.588384,13.135479391107593,0.05048884888473305
31.592476,13.084678169751863,0.05026278577535312
31.59656,13.025702689296624,0.050066398567748534
31.60064,12.960458108391833,0.04989611474993521
31.604727999999994,12.893984135912229,0.04973401275243447
31.608804,12.823256946532966,0.04959065632038034
31.61288,12.74849799005392,0.04945955146696444
31.61702,12.660070748325357,0.04936222360890541
31.621112,12.570303390122044,0.04927649807961004
31.625192,12.478863740744174,0.049212367638456364
31.629276,12.39011574199134,0.049146077702321427
31.633356,12.299130409888742,0.04909223726918885
31.63744,12.208366527586014,0.04903036392787876
31.641472,12.11771337018322,0.048964411565494644
31.645551999999995,12.029973313205334,0.04888982772758792
31.649635999999997,11.936750647752971,0.04884635872968533
31.653716,11.843195807600807,0.048811821970840996
31.657799999999995,11.754127051823701,0.048775926854438705
31.661888,11.661358703646615,0.04874307795952654
31.665975999999997,11.569598297244474,0.04870657306091602
31.670072,11.47435974824222,0.04866645279642645
31.674164,11.376994590790138,0.04863697323703776
31.678251999999997,11.2777242746881,0.04861096442809604
31.68234,11.175873032860958,0.04858182884292633
31.686432,11.070100748833964,0.04856402940915805
31.69052,10.965447131481852,0.048537758068878764
31.694607999999995,10.859674847454858,0.048519175371889565
31.698688,10.758610097602793,0.048492110818485146
31.702776,10.654632247325827,0.04847318796057735
31.706864,10.54516037089885,0.04845947113463907
31.710952,10.428067859872042,0.04846218198521754
31.715044,10.310188856870155,0.04846074548179508
31.719131999999995,10.191977679168463,0.04847035911488457
31.723223999999995,10.073877226366708,0.04847465443177015
