Time,Force,Position
27.86444,0.08375392493282235,0.0
27.868528,0.09167212995160674,0.0
27.872616,0.09447450547657708,0.0
27.8767,0.09817409787655924,0.0
27.880788,0.10299235695142298,0.0
27.88488,0.11061299155125705,0.0
27.888968,0.11453403375110895,0.0
27.89306,0.1156527004259905,0.0
27.897148,0.113747541776032,0.0
27.90124,0.11565270042599053,0.0
27.905336,0.11244202958213499,0.0
27.909428,0.10822341696333278,0.0
27.913528,0.10441309966341573,0.0
27.917624,0.09918654526966682,0.0
27.92172,0.09205483222595938,0.0
27.925816,0.08783621960715716,0.0
27.929912,0.08350688208842007,0.0
27.934004,0.07828032769467116,0.0
27.9381,0.07114861465096373,0.0
27.942196,0.06524629318207273,0.0
27.946292,0.05732808816328834,0.0
27.950392,0.04940988314450395,0.0
27.954488,0.04429405365068991,0.0
27.95858,0.037383790406852226,0.0
27.962676,0.029465585388067834,0.0
27.966768,0.0197529466192598,0.0
27.970864,0.011834741600475414,0.0
27.974956,0.0067189121066613695,0.0
27.979052,0.004516183037752536,0.0
27.983152,0.001824532412717067,0.0
27.987248,0.005035203256572593,0.0
27.991344,0.007127207425546553,0.0
27.995436,0.007127207425546553,0.0
27.999532,0.009329936494455387,0.0
28.003632,0.013327099313387865,0.0
28.007728,0.01743498703225521,0.0
28.01182,0.022440091626134386,0.0
28.015916,0.026547979345001735,0.0
28.019948,0.030655867063869083,0.0
28.024036,0.032969321032712794,0.0
28.028124,0.034385558126544674,0.0
28.032216,0.038714895645281765,0.0
28.036296,0.04124979941399521,0.0
28.040344,0.04490336985759022,0.0
28.044384,0.04564383987628002,0.0
28.048436,0.04564383987628002,0.0
28.052528,0.04564383987628002,0.0
28.056576,0.04564383987628002,0.0
28.06056,0.04564383987628002,0.0
28.064532,0.04512481965745996,0.0
28.068616,0.04191414881360443,0.0
28.0727,0.03982214464463048,0.0
28.076772,0.038516632450733466,0.0
28.080824,0.036313903381824636,0.0
28.0848,0.03231674056289216,0.0
28.088844,0.028208852844024808,0.0
28.092872,0.023203748250145633,0.0
28.096908,0.019095860531278288,0.0
28.101004,0.014987972812410936,0.0
28.105092,0.012674518843567233,0.0
28.10912,0.011258281749735352,0.0
28.113208,0.006928944230998259,0.0
28.1173,0.004394040462284812,0.0
28.121332,0.0007404700186897999,0.0
28.125364,0.0014504901204304365,0.0
28.129456,0.009990825692086288,0.0
28.13354,0.02495665731535833,0.0
28.137632,0.0515212541159806,0.0
28.141728,0.09879034509507191,0.008864026691970747
28.145824,0.16510305675360917,0.01780854949285659
28.14992,0.26168030886700666,0.026111741758826315
28.154004,0.387181984960513,0.03420501600644897
28.158096,0.5408215930590513,0.04218235714595733
28.162184,0.719796757637651,0.050177924040901906
28.166276,0.9326253301711585,0.05792227654237639
28.170364,1.1730267925344906,0.06562043136833415
28.174456,1.4411118696275824,0.07327204665499884
28.178544,1.735651169875617,0.08092869598563164
28.182588,2.061241502553589,0.08850831898718853
28.186688,2.4139618254616466,0.09609917203199712
28.190788,2.7957172972497473,0.10366809074507048
28.19488,3.2095317432427324,0.11116532513008859
28.19898,3.6535000047906423,0.11862761490410294
28.203072,4.124021796717898,0.12606336025596893
28.207108,4.618295094753785,0.1334726250994091
28.211192,5.126415908992317,0.14089155700336706
28.215276,5.651053054707468,0.14826251507595237
28.219368,6.185781035847619,0.15555296654967316
28.22346,6.711048277935779,0.1539541466845056
28.227544,7.226476935570016,0.15221828757789388
28.231584,7.712870444324208,0.1511029580725154
28.235664,8.17010666162289,0.15017834403499808
28.239756,8.602560946941184,0.1493210800344027
28.243848,9.011130517154102,0.1484163530924088
28.247932,9.386732478611592,0.14772780326261212
28.25202,9.73699888358902,0.14705374068583021
28.256048,10.057897964986601,0.14643608328750268
28.260076,10.352785722828976,0.145795945564315
28.26416,10.615492363891,0.14522085631281786
28.26824,10.84702582994762,0.14465266797729046
28.272324,11.046488904123825,0.1441131375580356
28.276404,11.211644253069846,0.14364927030898256
28.280376,11.347420860760488,0.14318930757792966
28.284408,11.457086837671524,0.14273818930828208
28.288484,11.54378815170326,0.14228166575772538
28.292564,11.61111367035575,0.1417820887480187
28.296648,11.659750578379658,0.14127653849549457
28.30072,11.68433840987599,0.14085915347473457
28.304804,11.69543373522054,0.1404703578483773
28.308788,11.698099098639114,0.14010752103519206
28.312888,11.698859303407733,0.13976365260603987
28.316984,11.699065883676674,0.13944152357182932
28.321084,11.695240696845831,0.1391661412744431
28.32512,11.691083335315186,0.13890434789063635
28.329168,11.682229857285142,0.13871409627830872
28.333152,11.66956606195518,0.13856073080859288
28.337256,11.66082330882507,0.13836593309485679
28.3413,11.654772206319999,0.1381504074419183
28.345332,11.649064696190262,0.13794933997565872
28.349424,11.650756370860487,0.1376836378186621
28.353468,11.657044854805712,0.13737854610165298
28.357516,11.664230555625945,0.13706554538347557
28.361564,11.669289647996349,0.13677963643338337
28.365592,11.673562248391677,0.1364964321244785
28.369572,11.674245981286958,0.1362411098942873
28.373628,11.672913830632345,0.1360084693767468
28.377672,11.66295310360295,0.1358590095931848
28.381716,11.652992376573557,0.13570906994894472
28.385744,11.648636400594107,0.13550921182374245
28.389824,11.64372680011498,0.13533120198193696
28.393904,11.64083308318575,0.13513093582419564
28.397988,11.64040956708168,0.13491925711932692
28.402072,11.64279984417812,0.1347113136677571
28.406096,11.651027739799897,0.1344755986533344
28.410184,11.667219862396847,0.13418415600864103
28.414224,11.689138878619206,0.13386858070852228
28.41832,11.71218797919198,0.13356792615059537
28.422408,11.732667571715186,0.13331172771607988
28.426504,11.757190349013712,0.133040710662149
28.4306,11.785202686587882,0.1327796362212467
28.434688,11.818388293287786,0.13251951245644158
28.438772,11.856968618913294,0.13224985987773405
28.442856,11.900943663464405,0.13197086973922453
28.44694,11.949305485166175,0.1316937588061041
28.451028,12.004967184443506,0.13139238691754568
28.45512,12.065237110671365,0.1310851811419424
28.459208,12.138178798049323,0.13069115183198915
28.463304,12.218641812802714,0.1302649928555781
28.4674,12.30091067898166,0.12986084608843537
28.471484,12.385206846386033,0.12946452940444278
28.475568,12.470522373240886,0.12908766941646876
28.47966,12.558296683245372,0.12868019095158878
28.483692,12.643700099649093,0.1282537797506173
28.487784,12.720009204727234,0.12786776732674926
28.491876,12.792828749529727,0.12747872850814296
28.495972,12.86014285050668,0.12710410181224568
28.50006,12.921619332958288,0.1267541650143632
28.504156,12.982862947934493,0.12638677254229208
28.508244,13.04028482793525,0.12602570301102345
28.512336,13.08861239661042,0.12570175958386662
28.516432,13.1249325535351,0.12543704777370743
28.520528,13.158660367059147,0.12516173516179316
28.52462,13.188787895407613,0.12488467890446008
28.528716,13.213299255030602,0.12462360237821779
28.532812,13.230400012178098,0.12438989467011569
28.536908,13.245694917900039,0.12414354731313776
28.541,13.251009713096913,0.12396135556225632
28.545096,13.250265439968572,0.12380929553788829
28.549192,13.242786331439879,0.12368463777340609
28.553284,13.232936329310421,0.1235396227043431
28.55738,13.221280475755407,0.12338036769400082
28.561476,13.201328220525415,0.1232751144752365
28.565572,13.180035848820674,0.12318970374748259
28.569668,13.159419244191074,0.1231063198459948
28.57376,13.139478406636616,0.12302473856854695
28.57786,13.120545510857108,0.12293385865381282
28.581952,13.104525715502502,0.12281972835791805
28.586048,13.090632528597721,0.12268381166465712
28.590144,13.07987389191772,0.12251743946411504
28.594244,13.071806905862754,0.12233548040062447
28.59834,13.071249829507687,0.12210110503133362
28.602324,13.06878759450266,0.12188077444989669
28.606352,13.068119793247657,0.12165075953364521
28.610388,13.068459933767603,0.12141159065927483
28.61436,13.072610391587464,0.12114506675878628
28.618352,13.073847748982418,0.12090141815066713
28.62238,13.074520064202167,0.12065080870451718
28.62646,13.075856728821524,0.12037752538938369
28.630504,13.079098552090839,0.12009025528074381
28.634428,13.082794692635428,0.11981311363144781
28.638464,13.085482891405068,0.1195447671317948
28.642496,13.097364708724697,0.11921989013116968
28.646588,13.1123810762691,0.11886555006021764
28.650672,13.13311291976338,0.11847201517939447
28.654668,13.153844763257663,0.11807990144219042
28.658716,13.179173416026938,0.11766214968562182
28.662764,13.207304444321181,0.11722853357817373
28.66686,13.233419589065534,0.11681360628291253
28.670952,13.257408125360056,0.11642089714005519
28.675048,13.279823677704425,0.11603045051349768
28.679092,13.30088769589851,0.11563642350484364
28.683188,13.325086264317369,0.11521559311496693
28.687272,13.34591741503605,0.11480663309762135
28.691304,13.369096624004431,0.11437155000145706
28.695392,13.38667108192287,0.11397069818043203
28.69942,13.408277306941095,0.11353906352592272
28.703452,13.435377558109328,0.11307810558535462
28.70744,13.461912767102351,0.1126112019915223
28.711528,13.484294066420123,0.11215447913378015
28.715572,13.50790475731271,0.11168382191500513
28.719608,13.535325765505215,0.1111904241170862
28.72364,13.559268631097606,0.11071429144985934
28.727724,13.58433016336488,0.110229429556331
28.73176,13.599411585107088,0.10979431201769586
28.735848,13.612133530924064,0.10936155120070096
28.739932,13.618574958615959,0.10895888117269804
28.744024,13.61974380995772,0.10857783500650298
28.748108,13.621134111099346,0.10819006999631008
28.752192,13.622856586940781,0.10779212100015212
28.756284,13.626373496532239,0.10738602995868185
28.760376,13.62977968122376,0.10698408586134196
28.764472,13.629264823715431,0.1066089997713426
28.76856,13.630544399957124,0.10622591576632293
28.772656,13.633396960148973,0.10584356429457374
28.776752,13.6422971709905,0.1054171309768619
28.780784,13.64592480548189,0.10501096023916606
28.784872,13.643825546347873,0.10461423378612177
28.788964,13.649690514189027,0.1041892914360355
28.793052,13.660041566405239,0.10374493837141864
28.797144,13.67251922707128,0.10328517267952522
28.801232,13.682526686912157,0.10283131298735015
28.805272,13.690961162802877,0.10237861192718664
28.809364,13.698387696918653,0.10193461903523078
28.813448,13.71601579135936,0.10144175085457649
28.817532,13.73622481152517,0.10094257138576378
28.821624,13.762714349816063,0.10042075113637774
28.825716,13.793689972482014,0.09988270722407254
28.829808,13.825562812022982,0.09934311805158934
28.833896,13.856206259989127,0.09881790408606349
28.837992,13.887636199930352,0.09829440713617256
28.842084,13.919741906946719,0.09777613729261961
28.846132,13.952744830838096,0.09725453463686072
28.850228,13.986644971604486,0.09673153761913969
28.85426,14.01616975289575,0.0962233081353395
28.858348,14.042670708862177,0.09573663998651079
28.862432,14.071531140753834,0.095250683211795
28.866516,14.104999799596019,0.09476982371786871
28.870608,14.129950606963355,0.0943332810624273
28.874696,14.15680657298065,0.09388922473880967
28.878788,14.177836338148136,0.09347775692392135
28.882876,14.198533928615818,0.09307718607753708
28.886968,14.220804503033651,0.09267837823082482
28.891056,14.241059193901593,0.09229293701689001
28.895144,14.256384900794735,0.0919366837149286
28.899232,14.271821332587814,0.09157851713955453
28.90332,14.281874463130821,0.0912384563420404
28.907412,14.290133159923805,0.0909049940651148
28.911444,14.295921655891624,0.09057372526903468
28.915476,14.303050268334193,0.0902271365190184
28.91956,14.309503113701624,0.0898775747729703
28.92364,14.312477816468935,0.08953548680889825
28.927716,14.317468402786147,0.08918211620632542
28.9318,14.318759396703374,0.08884240601451149
28.935876,14.32151264967082,0.08850695296634253
28.939956,14.3269575532633,0.08816436408361714
28.94404,14.33150523998077,0.08782449707016252
28.94808,14.335598609422966,0.08747549505854353
28.952164,14.340699920640109,0.087120447579457
28.956208,14.342888131432348,0.08677989379929346
28.960236,14.346870775974608,0.08643382448336467
28.964328,14.350066928541793,0.08608721483211125
28.968404,14.350239255784137,0.08575750578188962
28.972488,14.348395699476592,0.0854383858355212
28.976572,14.349465243593947,0.0851061103912956
28.980608,14.348186729461606,0.08479465877118161
28.984696,14.346686765529395,0.08448897019308524
28.988728,14.34428958472217,0.08418569532587522
28.992824,14.34324393806523,0.083890212633228
28.996864,14.338055799408572,0.0836193236299903
29.000896,14.331638269177095,0.08336015090287148
29.004988,14.327580214870848,0.08310316478432586
29.009036,14.322292768989787,0.08285817360761412
29.01312,14.321602132383715,0.08259873250584221
29.017208,14.31821984515261,0.08234567150713444
29.0213,14.310805790821721,0.08211417637583912
29.025388,14.305186170240855,0.08187829844763928
29.02948,14.298447882985105,0.081651068363118
29.033576,14.289693712179464,0.08143393678053543
29.037668,14.28262325022391,0.08121562600214839
29.0417,14.277125772218511,0.08099932801352279
29.045792,14.272082611488383,0.08079333707149768
29.049884,14.268047392533203,0.08058177632365053
29.053972,14.269727649527898,0.08034836725899908
29.058056,14.2693920229727,0.08012583386972222
29.062144,14.270285787992316,0.0798918769583113
29.066232,14.273760478737037,0.07965490942552184
29.07032,14.275895053007003,0.07943218916868497
29.074404,14.277918902377037,0.07921273605022892
29.078496,14.289247095196991,0.07896451294112476
29.082584,14.303266938641984,0.07871088492138588
29.086676,14.318405448761853,0.07844968662409314
29.090772,14.330741583356756,0.07819724988757291
29.094852,14.33926740065174,0.07795916538405519
29.098936,14.350595593471695,0.07771209085196029
29.103024,14.361248019216509,0.07746013981175588
29.107108,14.36898734453642,0.07722025793918906
29.111196,14.373813569431423,0.07699205124909558
29.115284,14.380544952976384,0.07675656626150022
29.119368,14.387497786321216,0.07651552564134674
29.12346,14.392877635715896,0.07627225040859364
29.127548,14.395787284285406,0.07602799320123937
29.13164,14.397799715979907,0.07578529272446476
29.135732,14.392302237974508,0.07556627999681916
29.13982,14.38411310934407,0.07535231607145983
29.143904,14.375026763838623,0.07513999723817327
29.147988,14.368177751682943,0.07491228490951003
29.15208,14.364574014651964,0.07466383559096285
29.156168,14.35838935189589,0.07441710794971829
29.160256,14.342900345689891,0.07419700103432182
29.164336,14.323933196883782,0.07398041081162622
29.16842,14.301155730777758,0.07377623818062816
29.172504,14.282188581971647,0.07355880915784485
29.176588,14.265802358890637,0.07333922959931254
29.18068,14.249194686009758,0.07312564454813228
29.184764,14.23729454730381,0.07289755364169957
29.188852,14.22539440859786,0.07266889603907868
29.192936,14.218201804066839,0.0724259278657289
29.19702,14.212017141310763,0.07217819776085145
29.2011,14.200792769679955,0.0719532711622548
29.205188,14.189457673149214,0.0717310968991797
29.209272,14.181035677043376,0.07149769972793944
29.213344,14.173400172912617,0.07126543057169106
29.217436,14.172155911806874,0.07101900491115347
29.221524,14.174611243101111,0.07076329638492893
29.225616,14.17706657439535,0.07050751208105918
29.229704,14.176608805264685,0.07026304525574534
29.233796,14.176826803209162,0.07002392742870353
29.237888,14.183657493978524,0.06976615415050136
29.24198,14.195417168722686,0.06948904141478768
29.246064,14.207963335441924,0.06921345632751842
29.250152,14.225659935935834,0.06891316637041928
29.25424,14.241562102679719,0.06861617448215006
29.258328,14.256112735273321,0.06831024820188643
29.262404,14.274130092791498,0.06798058775423094
29.266488,14.29046374145959,0.06765170763577015
29.270568,14.314971649227186,0.06728774669576416
29.274592,14.336112139294608,0.06692357047425075
29.278672,14.358592745836782,0.06654751400950396
29.282748,14.389469061278332,0.06613039064261093
29.286828,14.42078827631962,0.06570192431987189
29.290912,14.452439666060716,0.06526599346121623
29.295,14.48475540520142,0.06481281867682777
29.299096,14.514146626241685,0.0643475065823117
29.303188,14.541289096256657,0.06387448505120208
29.307284,14.565961365446459,0.06339812529926277
29.311372,14.587487666735955,0.06291384868650716
29.315468,14.604860058350194,0.062426277018383686
29.319556,14.618078540289181,0.06193669722702675
29.323644,14.631518472028036,0.06144289026516399
29.327732,14.650441012241364,0.060920474402270816
29.33182,14.66756911870467,0.0604017763693887
29.335904,14.68614806654266,0.05986850825688324
29.339992,14.706067130855402,0.059323913428846485
29.34408,14.720270719218268,0.058793813434775244
29.348172,14.733012048530917,0.058256956582928086
29.35226,14.733203759268932,0.057752703918014764
29.356348,14.732498253131936,0.057248097748062256
29.36044,14.724172112395106,0.056758762892628566
29.364536,14.708114612158507,0.05628898291280062
29.368628,14.693065053696854,0.05581554855459488
29.372724,14.674094453035346,0.0553518498863453
29.376816,14.651202810173992,0.054897141825782966
29.380912,14.625065892187925,0.054456268229960914
29.385004,14.59590514887702,0.05402334179758853
29.3891,14.566412230866309,0.05359676795865137
29.393196,14.533452587931018,0.05318880144552463
29.397292,14.497358394770952,0.052791154716287945
29.401388,14.453200667411313,0.05241730788346576
29.405476,14.395596104602031,0.05206917019347253
29.409572,14.320402214343384,0.05176291420460618
29.41366,14.231540038835218,0.051487990068122505
29.417756,14.132819895377459,0.05123690550180771
29.421848,14.025925492820189,0.05101190660741707
29.425944,13.911189005863218,0.05080415030696867
29.430044,13.787159593131856,0.050629277027058085
29.43414,13.663130180400495,0.05045094601932864
29.438236,13.531258683269428,0.05029002942199147
29.442332,13.39905501143856,0.05013534770606827
29.446424,13.257890588533105,0.05000534295371562
29.45052,13.106757472778117,0.04990309089563942
29.454612,12.950695373048328,0.049811440967985794
29.458708,12.791498723093769,0.04972995056508407
29.462804,12.629278247814364,0.04965573598945702
29.466896,12.460002180110335,0.04960382960519325
29.470992,12.2852320862563,0.049553028129034574
29.475088,12.107881066677168,0.049496656498579886
29.47918,11.926719729798114,0.049444602062179766
29.483276,11.74354250936917,0.04939860945117385
29.487372,11.561151780915305,0.04935527206945115
29.491464,11.38447652841131,0.049298025977574295
29.495552,11.21542191050715,0.04922303125998437
29.499648,11.04524862592811,0.049153877278245946
29.503736,10.869359865399193,0.049095992486443134
29.507824,10.693471104870277,0.04903635242859878
29.511916,10.51780379414123,0.04896814030847032
29.516004,10.337207499437385,0.04891376804103228
29.520092,10.158516363383502,0.04885233324201397
29.52418,9.977022851804643,0.04879286383212192
29.528272,9.800458324200587,0.048713266593464526
29.53236,9.621091421071558,0.048638217513951774
29.536456,9.44060585126765,0.048569836095930095
29.540552,9.260009556563803,0.048502818289334206
29.544648,9.07750810321,0.048437326811957754
29.54874,8.899935633830994,0.04834956810076903
29.552828,8.723936148402146,0.04826627645995818
29.55692,8.549398922023514,0.04819346197209039
29.561008,8.376545404494971,0.04812144042994577
29.5651,8.206494262491397,0.048041877802617025
29.569188,8.04406375508766,0.04793567942558551
29.573228,7.880403856109105,0.04784044017330556
29.57732,7.712601465130828,0.04776972702654791
29.581416,7.548609391452469,0.047684185245865804
29.585504,7.3910085607991265,0.047591944277043274
29.5896,7.234194222120862,0.047502082052053245
29.593696,7.079850084267763,0.047422030932913056
29.597792,6.9280868721397635,0.047347321236830844
29.601888,6.77879386083693,0.04728096883675219
29.605984,6.63017661660924,0.047225898697197365
29.610076,6.478314097256838,0.04720132226033936
29.614172,6.33015117030442,0.04717083441484465
29.618264,6.183671952202091,0.047148390896691754
29.62236,6.037979226074838,0.04713118311716436
29.626456,5.894756700772751,0.0471283745790884
