Time,Force,Position
30.134044,0.0057422765075885495,0.0
30.138088,0.0057422765075885495,0.0
30.142171999999995,0.0057422765075885495,0.0
30.146256,0.0057422765075885495,0.0
30.15034,0.0057422765075885495,0.0
30.154424,0.0057422765075885495,0.0
30.158504,0.0057422765075885495,0.0
30.162592,0.0057422765075885495,0.0
30.166675999999995,0.00574227650758855,0.0
30.170728,0.005742276507588551,0.0
30.174803999999995,0.005742276507588551,0.0
30.178828,0.005742276507588551,0.0
30.182908,0.004725401213404191,0.0
30.186888,0.001803367269261312,0.0
30.19092,0.0,0.0
30.195015999999995,0.000795425494314617,0.0
30.199107999999995,0.002488067863641057,0.0
30.203196,0.005975143982991143,0.0
30.207296,0.007557061452382711,0.0
30.211392,0.011044137571732796,0.0
30.215424,0.014199038991278268,0.0
30.219508,0.020267040835728955,0.0
30.223596,0.023532667155209297,0.0
30.227688,0.030497885874671803,0.0
30.231776,0.03847104636908101,0.0
30.235864,0.045436265088543516,0.0
30.239951999999995,0.05340942558295272,0.0
30.24404,0.05925597762753366,0.0
30.248124,0.06521325457204946,0.0
30.252208,0.0720677483915771,0.0
30.256304,0.08183534263600994,0.0
30.260396,0.09372954533027106,0.0
30.26448,0.10551302312459732,0.0
30.268567999999995,0.11427267559408347,0.0
30.272652,0.11911128586371769,0.0
30.276692,0.12214652886409064,0.0
30.280788,0.12237939633949324,0.0
30.28488,0.121715046939884,0.0
30.288979999999995,0.12284513129029843,0.0
30.293071999999995,0.11935805517094834,0.0
30.297168,0.11620315375140287,0.0
30.301268,0.11013515190695218,0.0
30.305364,0.10686952558747186,0.0
30.309459999999994,0.09990430686800934,0.0
30.313551999999994,0.09193114637360013,0.0
30.317651999999995,0.08496592765413764,0.0
30.321743999999995,0.07699276715972843,0.0
30.32584,0.07114621511514749,0.0
30.329876,0.06518893817063166,0.0
30.333968,0.05833444435110403,0.0
30.33806,0.04856685010667118,0.0
30.34214,0.036672647412410074,0.0
30.346228,0.02488916961808384,0.0
30.35032,0.016129517148597682,0.0
30.354347999999995,0.011290906878963435,0.0
30.358432,0.007460238384275881,0.0
30.362516,0.005534728539546847,0.0
30.3666,0.002712001819805989,0.0
30.370692,0.0,0.0
30.374776,0.0,0.0
30.378864,0.0,0.0
30.382952,0.0,0.0
30.38704,0.0,0.0
30.391124,0.0,0.0
30.395208,0.0,0.0
30.399288,0.0,0.0
30.403368,0.0,0.0
30.4074,0.0,0.0
30.41148,0.0,0.0
30.415564,0.0,0.0
30.41964,0.00106254599631577,0.0
30.423724,0.0029230016432413397,0.0
30.427812,0.010853943290912785,0.0
30.431847999999995,0.024866788614862946,0.0
30.435944,0.049126864965879195,0.0
30.44002,0.08398918239483183,0.0
30.4441,0.13619999397760885,0.010283740776155225
30.448187999999995,0.2078973258395713,0.02010133842082268
30.452212,0.3008756117307428,0.029513132586513044
30.456288,0.41222175122621824,0.03888514737125837
30.460328,0.5488806118506896,0.04778332108034833
30.464412,0.7069311514043048,0.0565489932740866
30.468504,0.8900729622870464,0.06507506284735796
30.472592,1.0999897533490026,0.0733810027163684
30.476679999999995,1.3318632655153102,0.08166331602921159
30.480712,1.5864799907610458,0.08991589965073278
30.4848,1.86361847928634,0.0981631357345836
30.488836,2.1678755403661865,0.10631011131088712
30.492923999999995,2.5001483908755966,0.11435781986764332
30.497012,2.8602041633391693,0.12229112249487949
30.5011,3.244510110935422,0.1301508932627152
30.505192,3.6510821189847653,0.13795605373494962
30.50928,4.07139091833682,0.14573914779913796
30.513368,4.5041842820657045,0.15349417802708173
30.517456,4.94124228036978,0.16121723489756015
30.521539999999995,5.379163242522268,0.16888823442246753
30.525624,5.806470545921288,0.1662179361491247
30.529712,6.2183230961409075,0.1639529476884921
30.533792,6.611021300781148,0.16205832019597238
30.537876,6.987367535366976,0.16017371174371808
30.541964,7.337393107048863,0.15877779372006617
30.546056,7.669837317101521,0.1574660131766271
30.550144,7.9792061393749485,0.15636462504954296
30.554232,8.259329780643995,0.15550055036383997
30.558324,8.516145166658404,0.15465737275582034
30.562416,8.74875508054317,0.15384654812746404
30.566508,8.957823871697896,0.15302218618362698
30.570536,9.13404719667266,0.15233714283886648
30.574628,9.279440939017356,0.15175137640728556
30.578712,9.392787124832703,0.1513173602801811
30.582804,9.47756389671881,0.15097942061241162
30.586896,9.539608873201022,0.15067935389859677
30.590988,9.583862455929669,0.15037068743760085
30.595076,9.606968644880109,0.15011384074583464
30.599168,9.613768534478268,0.1499086871540424
30.603252,9.610111160925022,0.14974012024640174
30.607336,9.597813793321466,0.14965449769607714
30.611424,9.582271150593197,0.14962539942259698
30.615524,9.562586015865207,0.149662917372245
30.619616,9.543687373112293,0.14969472736687492
30.623715999999995,9.524788730359381,0.14972720581968782
30.627812,9.502190495206486,0.14980243536583676
30.631908,9.474663276078795,0.14994812676120553
30.636004,9.449716982676202,0.1500709791729629
30.640096,9.428138106973787,0.15016528417421088
30.644144,9.409029432096537,0.1502414284597321
30.64814,9.393963941994606,0.1502902441980071
30.652168,9.38563328729303,0.1502847289193236
30.656248,9.38033787559183,0.15026812091915007
30.660276,9.3804257651407,0.15019346922022997
30.664364,9.385564781239836,0.15007712819528385
30.668395999999998,9.39216605638919,0.14995852380381497
30.672424,9.39697289778852,0.14985964963371623
30.676508,9.405712199063236,0.1497399934852429
30.680536,9.423435086763604,0.14956006483179562
30.684584,9.447339185364651,0.1493562367233809
30.688568,9.478986061141,0.14908561731313136
30.692623999999995,9.51535188876781,0.14879427238091622
30.696712,9.560246985545,0.148433665791877
30.700748,9.60705865864768,0.14808811447574585
30.704832,9.658589283600824,0.14772027101827578
30.708864,9.716301119454647,0.14733166657087704
30.712908,9.783328716433926,0.14687121140889478
30.717008,9.854632365663926,0.14641195546873656
30.721039999999995,9.92909340046977,0.14597648869173893
30.72508,10.009846371076227,0.14551964144138632
30.729132,10.09128652643336,0.145103397332475
30.733211999999995,10.180248009165926,0.14464559127768328
30.737248,10.27449348592416,0.14417909611348315
30.741336,10.37525234828288,0.14368612965704738
30.745416,10.48184882916694,0.14316637470717025
30.7495,10.590694061076299,0.1426483609612569
30.753575999999995,10.703361027961108,0.14212426021195218
30.757659999999994,10.821289153520516,0.14153701060338125
30.761744,10.931905983828834,0.1409671329638231
30.76582,11.033417085136032,0.14042668816320117
30.769904,11.132335843042595,0.1398865685882689
30.773988,11.225516289648219,0.13935257366652654
30.778064,11.312626250253095,0.13883971911249604
30.782148,11.39434149193237,0.13834530050320937
30.786232,11.472788623135868,0.13784071606691048
30.790324,11.542584342613516,0.13736923683931007
30.794411999999998,11.606531025890295,0.13690712680397785
30.798496,11.668438990266107,0.13641546747459032
30.80258,11.728861860240638,0.13587450949131524
30.806667999999995,11.78186271006414,0.13534744959620246
30.810752,11.832381941386942,0.13480726859959555
30.81484,11.87380686138416,0.13431760502043563
30.818928,11.911287903830459,0.13381658563547094
30.823016,11.93877741807616,0.13336867389646087
30.827096,11.956275404121262,0.13297267914957472
30.83118,11.972975480515755,0.13255464043346374
30.83526,11.985964546834735,0.13214115500650908
30.839344,11.992783819928567,0.13177123964332943
30.843424,12.00117607697255,0.13139778037811564
30.847504,12.01372224369179,0.13100584224326187
30.851592,12.023355309986123,0.13064265088097285
30.855667999999994,12.031426810005835,0.13031022132769166
30.859744,12.040506251800496,0.1299682455726152
30.863828,12.050925810069906,0.12960362546253912
30.867908,12.063361251889209,0.1292198024995816
30.871992,12.079828460808297,0.12879503928217814
30.876076,12.097414336402274,0.12835748344635697
30.880164,12.110514127621189,0.12795063229297465
30.884187999999995,12.117566268190421,0.12760538395361104
30.888228,12.121373133634945,0.12729782653001964
30.89232,12.124504232004325,0.12698853458994644
30.896415999999995,12.128753997048586,0.12666513157246687
30.900448,12.128971994993062,0.1263817255172182
30.904484,12.131881643562572,0.1260800883226106
30.90852,12.138712334331938,0.12574228993918765
30.91256,12.141843432701318,0.1254330894601154
30.916652,12.144077314195687,0.1251297196637055
30.920739999999995,12.14620047079012,0.12483071116521804
30.92478,12.146197018934727,0.1245558504849144
30.928812,12.140588816029393,0.12432366447497975
30.932848,12.135988554899006,0.12408178661371703
30.936932,12.135641510668277,0.1237924430634254
30.940964,12.132381366012641,0.12352840991804863
30.945048,12.12688388800724,0.12329190135526834
30.949076,12.12026774332696,0.12306966400022483
30.953108,12.112200757271992,0.12287347877291259
30.9571,12.102007162767197,0.1227004895959692
30.961144,12.095291710862513,0.12250905984565774
30.965184,12.090592142507726,0.1222979132806134
30.969232,12.090821558127734,0.12204237094975162
30.973276,12.088248598222775,0.12180716751135286
30.977328,12.085786363217746,0.12156803705227731
30.981379999999994,12.086458678437493,0.12129573531273048
30.985412,12.088692559931864,0.12099415291025706
30.98946,12.091037166326169,0.12068944601944034
30.993512,12.092706005645331,0.12038166862223999
30.997496,12.095825686339179,0.12004846886188546
31.001544,12.096696616007735,0.11971471422740197
31.005576,12.098231895075893,0.1193565208700295
31.009676,12.104917607918722,0.11894707732396398
31.013772,12.107338686186365,0.11855559649612252
31.017868,12.10987048935394,0.118161857289219
31.021848,12.11575829254616,0.11772866283708013
31.025948,12.125899312638035,0.11725135897169567
31.029976,12.13345940700481,0.11678572593610419
31.034012,12.138770750346293,0.11631880352289324
31.038039999999995,12.145987252337731,0.11583822956566697
31.042072,12.152749437053897,0.11534790121836595
31.046152,12.15940089687013,0.11486139351536799
31.050176,12.167846790436386,0.11436730041674496
31.05426,12.176403408902575,0.11386747663172306
31.058288,12.184062810493753,0.11337307018184034
31.06238,12.190824995209919,0.11288401315850317
31.066468,12.196025613651463,0.1124247993117174
31.070552,12.19909962364318,0.11198774189309678
31.074639999999995,12.203857342484985,0.11154493175087368
31.078728,12.206377727977026,0.11112746068435515
31.082823999999995,12.214281414719139,0.1106822981601437
31.08692,12.223758085411403,0.11023657318409638
31.090951999999994,12.233799798278877,0.10979998820214698
31.095036,12.250011304371498,0.10933562715759851
31.099128,12.260507334514244,0.1089106264025351
31.103216,12.271236232132393,0.10850638598240048
31.107304,12.278830579525767,0.10813222196009553
31.111396,12.290235244219058,0.10773332175303907
31.115488,12.308928368812378,0.10729719941045164
31.119575999999995,12.325040567680599,0.10687093599717437
31.12366,12.341607083824092,0.10645716966558619
31.127752,12.361308150192356,0.1060167282436604
31.131836,12.376523132185564,0.10559891681974577
31.13592,12.398240082103726,0.10514567566307821
31.140004,12.422537957746986,0.10468541249167831
31.144088,12.449527484015283,0.10421466625955604
31.148171999999995,12.476062693008307,0.10373365135618032
31.152255999999998,12.502708626901267,0.10324909477611202
31.156344,12.529465285694164,0.10276211762707148
31.160439999999998,12.561937420436935,0.10224223029742266
31.164531999999998,12.590488512979855,0.10175183479924194
31.16862,12.617134446872813,0.10127438023542988
31.172708,12.642993888790697,0.10079963157262958
31.176804,12.667280346758428,0.10032809979512845
31.180892,12.699187439325991,0.09981309680138649
31.184988,12.727948563993246,0.09929959034635168
31.18908,12.758725572210395,0.09877260033329718
31.193168,12.78580298802756,0.098265670009911
31.197268,12.804473277269814,0.09780405076843005
31.20136,12.823930058487147,0.09734240552944823
31.205459999999995,12.840805913979379,0.09688829844273168
31.209551999999995,12.853760727271757,0.09646044163107396
31.213652,12.865486148989321,0.09604609531909002
31.217744,12.874409195181915,0.09564831397058886
31.221844,12.87884615699945,0.09526803641497779
31.225936,12.877567642867108,0.09491906838629428
31.230036,12.877075620709842,0.09457044841358185
31.234131999999995,12.878599482102471,0.09420820871800087
31.238223999999995,12.878328909745077,0.09385254454225231
31.24232,12.870659152587718,0.09353084393689279
31.24642,12.863321570130164,0.09319795282534524
31.250512,12.856991929447556,0.09285807754140672
31.254608,12.846962696364965,0.0925343931271051
31.258708,12.831217987332503,0.09224000302148784
31.262756,12.808749860575213,0.09198216981834255
31.266839999999995,12.78785471776808,0.09172450587827347
31.270888,12.764378649235844,0.09147198284767548
31.274975999999995,12.742475564653764,0.09121978050805794
31.279011999999994,12.727295897796505,0.09093114428851568
31.283092,12.71671304021424,0.09062411684616567
31.28714,12.708146066181868,0.09030352392908896
31.291228,12.701373525899522,0.08997659725618326
31.295303999999994,12.69863275271696,0.08962319253853214
31.299384,12.692081662234484,0.08928845375748873
31.303416,12.688222222377041,0.08894437727434074
31.307496,12.693102083794313,0.08855333440668448
31.31158,12.697871220311653,0.08816637083562909
31.315664,12.697822097754127,0.0878039818944784
31.319752,12.699567408946628,0.08743581969098037
31.323828,12.70501231253911,0.08705222306958608
31.327908,12.709227824556773,0.08668179376079449
31.331988,12.711538177924478,0.0863204016078406
31.336076,12.7176588485921,0.08594086080806494
31.34016,12.731400153859557,0.08552537735458271
31.344244,12.748054559551923,0.08509443393137803
31.348332,12.763025256394194,0.08466554402542523
31.352412,12.77867172031161,0.08424106337929846
31.356492,12.795436850903908,0.0838079866951361
31.360572,12.809399605971233,0.08338845697115771
31.364652,12.816184626038467,0.08299017237967264
31.368731999999994,12.821961704330752,0.08259831711395477
31.372808,12.828968174197854,0.08219439152539527
31.37688,12.833172268539986,0.08180169748173538
31.380959999999995,12.840510913106893,0.08138742154262606
31.385044,12.848181732373602,0.08096337731413264
31.389123999999995,12.846658933090326,0.08057062948606962
31.393207999999994,12.844460366731905,0.08017330972916435
31.397296,12.849095942998245,0.07974273408603079
31.401384,12.850929143739613,0.07932204124799858
31.405476,12.852873069380912,0.07889841271466355
31.409568,12.8559356616971,0.07846514595701205
31.41366,12.861014137563176,0.07802049603404725
31.417744,12.864298179679231,0.07758087327947742
31.421828,12.860858804070462,0.07717016483937256
31.425916,12.855624994711672,0.07676339062017538
31.43,12.848486026702922,0.07636281235006588
31.434088,12.84246572536905,0.0759531759939349
31.43818,12.83296728143507,0.07554786523923755
31.442268,12.818650578426224,0.07516173397176715
31.44636,12.807025526042414,0.07476832322823368
31.450452,12.79528974875867,0.07437789078852731
31.454539999999994,12.780530146150086,0.07400342162780452
31.458631999999994,12.768683643966405,0.07361598754723514
31.462723999999994,12.754599808432962,0.07324563462604164
31.46682,12.73816791464982,0.07289570974990174
31.470912,12.726787147416946,0.07254411062623499
31.475012,12.716192872159146,0.07219392551693858
31.479104,12.69854300447672,0.07188010668340719
31.4832,12.683474062519394,0.07156368223649054
31.487296,12.670088829412157,0.07124748451502652
31.491388,12.659284522030022,0.07092974962300386
31.495484,12.649266706622962,0.07061396724975644
31.499579999999995,12.640932600065993,0.07029835473227275
31.50368,12.63730602768395,0.06996729746162433
31.507776,12.63558461395187,0.06962946098973047
31.511872,12.638570734394714,0.06927660600974564
31.515968,12.641446129937625,0.06892765626341762
31.52006,12.647910392980585,0.06857276103922672
31.524156,12.660987348848431,0.06819708744367194
31.528251999999995,12.67686668024125,0.06781484678407566
31.532352,12.694983344983829,0.0674173016399418
31.536448,12.713100009726409,0.06701938471309092
31.54054,12.731216674468987,0.06662338107494133
31.544628,12.75157067256133,0.06621163070971149
31.548724,12.774604903603176,0.06577096363219279
31.552812,12.797295542269687,0.06531637076621345
31.556904,12.818302472086106,0.06486148936590921
31.561,12.845689227252011,0.06436972551075454
31.565088,12.876542707342498,0.06385388871334775
31.569184,12.904028769732806,0.06333766729814959
31.573276,12.926574430472783,0.06281559203839276
31.577368,12.946871340187462,0.06228468778659679
31.581464,12.96088773177706,0.06176029353351823
31.58556,12.97175815546635,0.06122716555841361
31.589652,12.981055595205486,0.06068975486724465
31.593744,12.988780050994468,0.06014870177703633
31.597828,12.994145030858217,0.059600253112833845
31.60192,12.995023926346907,0.05905579284763334
31.606004,12.987827869960492,0.058517561095428994
31.610096,12.974462020348929,0.05798086197176011
31.614183999999995,12.954594202812414,0.0574544076613552
31.618272,12.93236690935067,0.0569175908846881
31.62236,12.901732489314012,0.056394343793501986
31.626448,12.864485376452468,0.05588287393152322
31.630536,12.82219855471619,0.055388629947649565
31.634623999999995,12.773077590355156,0.054912147523088296
31.638708,12.72305940911911,0.054433396103565575
31.642744,12.662507492858325,0.05397700928427762
31.646788,12.587611524272884,0.053550771700729
31.650884,12.50498419618767,0.053140220054829324
31.654979999999995,12.419222317877686,0.052739066879760446
31.659012,12.32528618046819,0.05236701663276536
31.663048,12.227207551058973,0.05200856607606444
31.66714,12.123535588275347,0.05168220697917783
31.671172,12.011689366392215,0.05138586891229662
31.675268,11.89177961030951,0.051116098286228595
31.679292,11.7666086955522,0.050867644442366605
31.683372,11.63348497149525,0.05064237085612004
31.687459999999994,11.501602056688652,0.05042955902007648
31.69154,11.363339316532569,0.05024718820930006
31.69562,11.221388401652035,0.05009588940189935
31.699704,11.07395487829703,0.049975950957939205
31.703788,10.92406257179239,0.04987685032511589
31.707868,10.773838090587947,0.04978521917202104
31.711948,10.616336567159006,0.04972929902910842
31.716035999999995,10.456597710380304,0.049687723087246505
31.720119999999994,10.288795319402029,0.04967766121835648
31.724204,10.123241679449048,0.04967991037058816
31.728292,9.964644324696291,0.049686403194012504
31.732384,9.808406445868767,0.04970370883841588
31.736472,9.65251215941658,0.049739695276165743
31.740559999999995,9.498301581814479,0.049780211362055536
31.744651999999995,9.351711638812215,0.04979764125137719
31.748736,9.205343145609822,0.049805556618144654
31.752824,9.06076908615745,0.049813810870004936
31.756912,8.917768010655232,0.04983163077141128
31.761004,8.774434760453211,0.04986385485821779
31.765096,8.638500695051153,0.04988399801164212
31.769175999999995,8.498756312349178,0.04991429792672204
31.773256,8.36562462247209,0.04992820845815904
31.777336,8.23461954104483,0.04992818805545858
31.781412,8.110337877342394,0.04990489402874568
31.785492,7.991771689589833,0.04986397454331523
31.789576,7.874102718712285,0.049819672328128596
31.79366,7.762149223784611,0.04975987304409465
31.797743999999994,7.650982220832015,0.04970549683575696
31.801815999999995,7.541498926729508,0.049658060230893836
31.805899999999998,7.427983865527213,0.049636352672120646
31.80998,7.309982719949859,0.04961500997681616
31.814063999999995,7.189179198847534,0.049602295321900206
31.818152,7.063668143570281,0.04960685523353546
31.822247999999995,6.940172971842921,0.049597045720107896
31.826344,6.811527366340892,0.04962305136789801
31.83044,6.685351961664028,0.049659683755848325
31.834536,6.557271398337208,0.049707484858318746
31.838632,6.427617851060233,0.04974527091107151
31.842728,6.298075028683193,0.049780037431933995
31.846824,6.164832613906171,0.04982124608265517
31.850919999999995,6.031479474229213,0.04987455575089908
31.855011999999995,5.892410858602381,0.049954968728775716
31.8591,5.75143708432559,0.05004678781044596
31.863192,5.604747834098923,0.0501636841463875
31.86728,5.4552562083472855,0.05028796904883331
