Time,Force,Position
4.264428,16.207705715218797,0.1444772202496624
4.266772,16.318034615118506,0.144179836207404
4.269116,16.397176104268183,0.1439049608268153
4.271464,16.44457110416039,0.1436602043660287
4.273815999999999,16.474511963415896,0.1433834646953351
4.276159999999999,16.482713045430277,0.1431579191148588
4.278504,16.48090551957044,0.1429539532206509
4.280843999999999,16.477887288897108,0.1427616560711173
4.283192,16.481060456060256,0.1425560647928807
4.285539999999999,16.49615178404542,0.1423020144272123
4.287883999999999,16.51743450986707,0.1420350170963098
4.290227999999999,16.538250704979895,0.1417949008114689
4.292572,16.55659826863748,0.1415962078656351
4.294916,16.5758297760266,0.1414095638067502
4.297255999999999,16.59413011785594,0.1412283779332394
4.299595999999999,16.61368838632702,0.1410181924872181
4.301936,16.628545501028846,0.1408029561259556
4.304279999999999,16.63641982196126,0.1406030767379482
4.30662,16.639732758751272,0.1403946554662316
4.30896,16.637645693637715,0.140196435671413
4.311308,16.630950022553506,0.1400067521487514
4.313643999999999,16.62774669628294,0.1397854376088173
4.315992,16.617885441467067,0.139603496347116
4.318332,16.603041597770336,0.1394710673901732
4.320679999999999,16.586288201125804,0.1393662342176971
4.32302,16.575913193772855,0.1392281587834301
4.325364,16.564047942352694,0.1391080515214659
4.327711999999999,16.555627813917926,0.1389736642687285
4.330048,16.544926045483013,0.1388594001096339
4.332388,16.53222217630169,0.1387586495989452
4.334732,16.516724810441033,0.1386730547137068
4.337071999999999,16.50499932864773,0.1385495334802035
4.339415999999999,16.498908062041338,0.1383781526499024
4.34176,16.497380075435224,0.1381675528121309
4.344107999999999,16.49478115364247,0.1379649369768868
4.346448,16.486827555916523,0.1378033603132543
4.348792,16.481899772295385,0.1376377892377896
4.351132,16.47655267979367,0.1374815984861885
4.353479999999999,16.477024898076102,0.1373068334506748
4.35582,16.48839156382215,0.1370794447434463
4.358164,16.505996849232933,0.1368245525015431
4.360504,16.519690480949496,0.136610383426396
4.362851999999999,16.536829235651446,0.1363825729378004
4.365195999999999,16.56239570221965,0.1360929971163902
4.367535999999999,16.593409392519664,0.1357780795759099
4.369884,16.624003773939094,0.1354736639128659
4.372223999999999,16.661535623157558,0.13512638363542
4.374572,16.700278177189514,0.1347700622501753
4.376912,16.7380895656617,0.1344186606879977
4.379268,16.772408609320244,0.1340980720967214
4.381607999999999,16.808450214471485,0.1337715085465371
4.383947999999999,16.845934841861702,0.1334468481246601
4.386291999999999,16.87536384443801,0.1331900198657063
4.388628,16.902091898133598,0.1329627569155255
4.390975999999999,16.93454671481472,0.132704946628791
4.393316,16.974730395227784,0.1324037103919686
4.395671999999999,17.01104964377488,0.1321246236762905
4.398015999999999,17.05109355456108,0.1318272001636467
4.400359999999999,17.08433976717512,0.131569759299745
4.402699999999999,17.11092805124385,0.1313497786090481
4.405048,17.132441198633106,0.1311627991392213
4.407395999999999,17.160379957142194,0.1309309866843737
4.409744,17.189389650837924,0.1306921233751126
4.412076,17.215838165279788,0.1304788514481996
4.41442,17.237491082295907,0.1302917341402991
4.416767999999999,17.260214934498663,0.1300977568252615
4.419099999999999,17.280005520395225,0.1299212481872864
4.42144,17.294860739239173,0.129773198903029
4.423784,17.312649224389315,0.1296092969485625
4.426127999999999,17.332207492860398,0.1294229534767601
4.428463999999999,17.35362809245104,0.1292286989268579
4.430808,17.374257296108762,0.1290369175262233
4.433152,17.404804455699953,0.1287737758335467
4.435487999999999,17.432837657865527,0.1285175021740129
4.437836,17.45393339223207,0.1283006819648162
4.440175999999999,17.471304464359505,0.128101909380854
4.442524,17.490817406860213,0.1278885291682351
4.444868,17.51219268048048,0.1276678498905643
4.447208,17.5378516948473,0.1274187503593779
4.449555999999999,17.564441874773898,0.1271660173730594
4.451891999999999,17.59252229876772,0.1268974398212238
4.454243999999999,17.614596420522282,0.1266640275668514
4.456583999999999,17.637741477463493,0.1264244484314346
4.458932,17.659024203285142,0.126193257860222
4.461268,17.683659504293566,0.1259384626071799
4.463608,17.70163687675668,0.1257151114048662
4.465955999999999,17.720685184406435,0.1254855409670385
4.468296,17.74173559280261,0.1252447560317626
4.47064,17.76199460526586,0.12500602776507
4.47298,17.781042912915613,0.1247774490585952
4.475315999999999,17.795714932020193,0.1245637443234844
4.477656,17.808384850378363,0.1243615775683855
4.479996,17.812766826497143,0.1242093931938487
4.482347999999999,17.819290672989197,0.124043343635741
4.484687999999999,17.82730476354847,0.1238612328512833
4.487031999999999,17.834527458174826,0.1236802986670808
4.489372,17.840679217614547,0.1235062897882873
4.491715999999999,17.841942831829897,0.1233420581704053
4.494056,17.837991539738915,0.123209253207695
4.4964,17.82910488059532,0.1231019437584464
4.49874,17.818867747011367,0.1230072182429937
4.501087999999999,17.807699447867634,0.1229163432562282
4.503431999999999,17.793318343163985,0.1228459992056252
4.505775999999999,17.781498417714197,0.1227531633871785
4.508112,17.763672190025154,0.1226925152872674
4.510447999999999,17.75092109901559,0.1226033265906988
4.512791999999999,17.731232540206992,0.122550401832734
4.515132,17.710473046211753,0.1225042066207327
4.517475999999999,17.687431912216383,0.1224744499598968
4.519816,17.665182174153927,0.1224435216403142
4.52216,17.644375458330448,0.1224133396420353
4.5245,17.62007639769333,0.1224096012254739
4.526844,17.598710603362413,0.1223911336092312
4.529191999999999,17.577996435337553,0.1223743097494858
4.531532,17.561798325484723,0.1223405337884302
4.533884,17.547043237870867,0.122307528078214
4.536228,17.537363286936483,0.1222462282274172
4.538568,17.527496344547,0.1222041156370606
4.540912,17.522424999583265,0.122139651066065
4.543247999999999,17.523080417605062,0.1220489161353012
4.545596,17.526529332306193,0.1219466391802175
4.54794,17.53305128294038,0.1218269897904035
4.550292,17.542646269507618,0.1216901450693948
4.552631999999999,17.55168217756742,0.1215652323988147
4.554976,17.568167410105453,0.1214097965974386
4.55732,17.588517074509454,0.1212371222656227
4.559667999999999,17.615804206712482,0.1210290518113022
4.562016,17.646164374848567,0.1208044102989777
4.564363999999999,17.67894595261165,0.1205611433595656
4.566704,17.71386940074801,0.1203054591503109
4.569051999999999,17.75028309295159,0.1200352635432232
4.5714,17.7938212444093,0.1197118135667851
4.573727999999999,17.836847539187815,0.1193839345628539
4.576071999999999,17.878291042100493,0.119058353313974
4.578411999999999,17.920293623520614,0.1187238693613284
4.58076,17.962995053075034,0.1183764035617676
4.583095999999999,17.999178323711003,0.1180555843685937
4.585439999999999,18.03741091692163,0.1177088142389435
4.587788,18.075690731960503,0.1173476790288238
4.590123999999999,18.11187589845435,0.1169842962819821
4.592472,18.148108286776434,0.1166065889088546
4.594811999999999,18.18489975360596,0.1162192811095227
4.59716,18.21866540633067,0.1158330128606025
4.599492,18.249545014577425,0.1154443037509175
4.601836,18.277678347973094,0.1150519115810849
4.60418,18.303717032823734,0.1146583410290885
4.606515999999999,18.33031479618181,0.11425562286956
4.608859999999999,18.353746975808207,0.1138562349590453
4.611199999999999,18.377878003568917,0.1134446750527371
4.613548,18.398983217224803,0.113033595614032
4.615883999999999,18.418785178268585,0.1126190870710193
4.618227999999999,18.434722707446383,0.1122217951423149
4.620583999999999,18.45536328625132,0.1117941352735434
4.622932,18.47963597949676,0.1113418926897687
4.625272,18.49939261457016,0.1109040895890861
4.627611999999999,18.520919032964496,0.1104490067304719
4.629955999999999,18.547660357665173,0.1099683737889713
4.632295999999999,18.57668332236598,0.1094754525735181
4.634639999999999,18.6027730207606,0.1089953747045941
4.636979999999999,18.63128412878221,0.1084999856982591
4.639328,18.65807267531113,0.1080094182970482
4.641672,18.6812763292278,0.1075288035201661
4.644011999999999,18.70876372389101,0.1070272846489475
4.646348,18.741326255233705,0.1065044612888242
4.648683999999999,18.77309739064348,0.1059832110471408
4.651027999999999,18.80393736049347,0.1054667852499119
4.653371999999999,18.831471976984933,0.1049554319638537
4.655711999999999,18.863150564596094,0.1044265366339033
4.658055999999999,18.890964720341277,0.1039123036408849
4.660396,18.92171214239265,0.1033883779054673
4.662736,18.954601434817302,0.1028554673656322
4.665088,18.987910036122532,0.1023158310746491
4.667439999999999,19.016143500748296,0.1017993162193292
4.669788,19.040931842388662,0.1012899222265043
4.672132,19.06800182402917,0.1007684388653433
4.674472,19.089065503430422,0.1002710905553177
4.676816,19.10640452059257,0.0997851512509776
4.679156,19.11908770995582,0.0993127961448957
4.681492,19.13284183450571,0.0988355312955027
4.683839999999999,19.144593858309182,0.0983668740610924
4.686179999999999,19.1562061124858,0.0979011882924695
4.688532,19.172613964088168,0.0974214848710593
4.690875999999999,19.1838069093842,0.0969647414676148
4.693219999999999,19.188062386881203,0.0965324569303578
4.69556,19.190315763631787,0.09610726406273
4.6979,19.190567039635955,0.0956894984809484
4.700247999999999,19.19146994194618,0.0952743845745087
4.702596,19.18636654201716,0.0948807826776835
4.704932,19.184196408394328,0.0944776896664475
4.707275999999999,19.180163943651948,0.094079656268264
4.709616,19.17398960853628,0.0936915066933602
4.711956,19.170469000473098,0.0932998078289187
4.714295999999999,19.16787955796969,0.0929057956027735
4.716644,19.16687290733212,0.0925125428597059
4.718991999999999,19.164795321507903,0.0921242557638683
4.721323999999999,19.167513333109447,0.0917228667396303
4.723672,19.170510883964702,0.091316458931302
4.726016,19.175650305193248,0.0909009500693179
4.728351999999999,19.183211136048783,0.0904724245367072
4.7307,19.187838700598125,0.0900521293396124
4.733044,19.188741602908355,0.0896393253027623
4.735391999999999,19.18205541111349,0.0892447659038107
4.737731999999999,19.176579924132135,0.0888427982562145
4.740075999999999,19.175108638643607,0.0884273230597117
4.742424,19.17470828834172,0.0880069913554052
4.744759999999999,19.17123490210677,0.0875964429746412
4.747112,19.166970119938917,0.0871852915909912
4.749456,19.164847208144334,0.0867646938655739
4.751796,19.159791030043557,0.086352155806187
4.754135999999999,19.152872520823216,0.0859430702677602
4.75648,19.144091680483328,0.0855373221283036
4.758827999999999,19.127442206784625,0.0851532012280395
4.761168,19.110932502712785,0.0847664453546303
4.763508,19.09428302901408,0.0843822471962715
4.765852,19.073629353822547,0.0840091298115494
4.768191999999999,19.047760772324683,0.0836540647472369
4.770536,19.02333521306579,0.0833023104599921
4.77288,18.99900220160552,0.0829630327112685
4.775224,18.96889520533147,0.0826510073691962
4.777563999999999,18.943164497602595,0.0823347011814466
4.779903999999999,18.92353263991159,0.0820133074685238
4.782247999999999,18.912281272258586,0.0816765112130631
4.784587999999999,18.9023331572177,0.0813458691957641
4.786923999999999,18.895690395535347,0.0810164141498419
4.789268,18.89542602314458,0.0806789537283452
4.791607999999999,18.902750744858896,0.080326532443793
4.793951999999999,18.91217011511825,0.0799816302074833
4.796291999999999,18.92568623466905,0.0796392515841213
4.798635999999999,18.94329910351131,0.0792991015869467
4.800979999999999,18.96766244869749,0.0789597444984722
4.803316,18.99612254317512,0.0786229263408294
4.805663999999999,19.03054171806376,0.0782847993611891
4.808004,19.063702966310657,0.0779682015623877
4.810347999999999,19.09602559679639,0.0776664588547878
4.812691999999999,19.13523847325291,0.0773629272492485
4.815035999999999,19.17789647269483,0.0770583240824123
4.817375999999999,19.222928659935494,0.0767579836503972
4.819719999999999,19.26954363904201,0.0764606230618288
4.822068,19.32481864744023,0.0761471928858641
4.824412,19.38060551251766,0.0758409122145691
4.826759999999999,19.437463312781723,0.0755330517532414
4.829103999999999,19.49255132972485,0.0752423496493931
4.831447999999999,19.550153304093595,0.0749536808229324
4.833787999999999,19.60440270327556,0.0746794788448879
4.836128,19.650364160218132,0.074430550609469
4.838471999999999,19.689900006040883,0.0742036145761509
4.840815999999999,19.726642355184293,0.0739809363830787
4.843159999999999,19.76031166839465,0.0737674899372867
4.845503999999999,19.793049816045222,0.0735561746443828
4.847847999999999,19.8161967688443,0.0733619525728114
4.850184,19.835479289777403,0.073175165895375
4.852524,19.856391824404582,0.0729766315259573
4.854871999999999,19.8790741423527,0.0727636256610432
4.85722,19.903106934741174,0.0725431998003137
4.859552,19.923694604144263,0.0723235819109658
4.861891999999999,19.94749507910727,0.0720946195700588
4.864235999999999,19.965429021457883,0.071877242397571
4.866579999999999,19.97977807119624,0.0716624374263212
4.868911999999999,19.98704988350871,0.0714648820289304
4.87126,19.992738903955345,0.0712654930007831
4.873607999999999,19.993073248468782,0.0710828330777598
4.875947999999999,19.99089363555661,0.0708991600858348
4.878288,19.98312702928576,0.070721934530111
4.880635999999999,19.977502293388195,0.0705383981493018
4.882972,19.975741989356603,0.0703483668587354
4.885312,19.981058922750897,0.0701424848108571
4.887656,19.987958648011027,0.0699389015605408
4.890003999999999,19.99406697733824,0.0697342417923742
4.892347999999999,19.99938391073254,0.0695287277105096
4.894688,20.010567376739225,0.069312586315347
4.897043999999999,20.024684109052107,0.0690914134924249
4.89938,20.033585935058653,0.0688841580113065
4.901719999999999,20.04421032255789,0.0686776673877903
4.904063999999999,20.04989934300453,0.0684802815364049
4.906415999999999,20.056239989757223,0.0682864124574828
4.908747999999999,20.06150970132328,0.0680963692806841
4.911091999999999,20.069992218449244,0.0678969480896543
4.913435999999999,20.081408001881407,0.0676927819611299
4.915772,20.09603659087349,0.0674795458371186
4.918107999999999,20.10852330949229,0.0672725244608487
4.920451999999999,20.122500272178318,0.0670558668508773
4.9228,20.13675677411805,0.0668350271433877
4.925135999999999,20.152084211244432,0.0666108817593397
4.927479999999999,20.16289559019878,0.0663891146948074
4.929828,20.169051141354235,0.0661715096069883
4.932168,20.17283250471094,0.065950777583707
4.934507999999999,20.17810411213486,0.0657209112887044
4.936851999999999,20.182584323625864,0.0654896176986253
4.939191999999999,20.183060333624034,0.0652656239272167
4.941527999999999,20.182884717316146,0.065038420519997
4.943872,20.179124208396004,0.0648121553635236
4.946219999999999,20.17857650503577,0.0645769519878383
4.94856,20.175235304996217,0.064344321308933
4.9509,20.177900407195903,0.064100700364066
4.953244,20.18084504864932,0.063852999279168
4.955583999999999,20.17699199193056,0.0636145406852923
4.957928,20.172207769652022,0.0633768402985137
4.960272,20.16341934588065,0.0631461414622747
4.962611999999999,20.153699756549507,0.0629163213444045
4.964955999999999,20.145330641658724,0.0626791779053899
4.967295999999999,20.139243166768072,0.0624344295291997
4.969639999999999,20.133807318183475,0.0621932852206487
4.971983999999999,20.131724044785656,0.0619417672803667
4.97432,20.13257403769403,0.0616860792199673
4.976664,20.13863893690874,0.0614186616180878
4.979004,20.138278225003624,0.0611674454775635
4.981348,20.134053081232526,0.060920742022614
4.983692,20.13075910302121,0.0606732618503681
4.986032,20.13333165742228,0.0604179677618022
4.988376,20.134553737382998,0.0601696947459664
4.990715999999999,20.137777918090123,0.0599179663523743
4.993064,20.14286442991681,0.0596656731964566
4.995407999999999,20.146600467303134,0.0594200969259715
4.997751999999999,20.14446997207708,0.0591819149931813
5.000092,20.138475044985043,0.0589476258563738
5.002435999999999,20.138486420132256,0.0587036474480044
5.004776,20.13728709046598,0.0584642172313989
5.007111999999999,20.13822963117297,0.0582192958329678
5.00946,20.136099135946917,0.0579798795890062
5.011799999999999,20.134620267026907,0.0577442722458411
5.014151999999999,20.12936951403955,0.0575248373194567
5.016495999999999,20.119183393999577,0.0573114570433793
5.018835999999999,20.10508562026539,0.0571162018718506
5.021179999999999,20.08949760246398,0.0569296984506489
5.023516,20.074281671714907,0.0567513774499596
5.025863999999999,20.062650633578087,0.0565729952711927
5.028216,20.05525611435958,0.0563987944361224
5.03056,20.051306718126465,0.0562273955231929
5.0329,20.045075681893216,0.0560632758151299
5.035244,20.040846746406388,0.0558963522772445
5.037588,20.03885222909145,0.0557368086737408
5.039928,20.031223496589597,0.0555936569693988
5.042275999999999,20.0249452385281,0.05544372116393
5.044624,20.023974434571556,0.0552957614572159
5.04696,20.02845085434682,0.055147792713103
5.049303999999999,20.03078540374881,0.0550048191098109
5.051656,20.03740369389735,0.0548524215121603
5.053991999999999,20.046815480725225,0.0546993897178808
5.056331999999999,20.05930030348616,0.0545413121238314
5.058675999999999,20.07192489587395,0.054381426787859
5.061027999999999,20.08403763158254,0.0542153951290062
5.063363999999999,20.10122550397061,0.0540416011930131
5.065708,20.119251994119843,0.053855257778633
5.068056,20.13797733240337,0.0536587098089485
5.070391999999999,20.15153498620881,0.0534575894267798
5.072743999999999,20.164208696282717,0.0532423476298032
5.075087999999999,20.173065196318888,0.0530160287338952
5.077427999999999,20.171818644824363,0.0527896952333335
5.079763999999999,20.165264639224887,0.0525599366257097
5.082108,20.15419457545338,0.0523288674293383
5.084459999999999,20.135954726457364,0.0520947630542662
5.086799999999999,20.114689063356543,0.0518498701167898
5.089143999999999,20.09156106913617,0.0516048107890868
5.091484,20.062194455251053,0.05135633892363
5.093827999999999,20.025518286514576,0.0511064508564262
5.096163999999999,19.984977685912128,0.0508583665928547
5.098508,19.936149143070285,0.0506232390130586
5.100852,19.876518700563444,0.0503968987916366
5.103199999999999,19.80766915025744,0.0501830982644823
5.105543999999999,19.729740261779128,0.0499796361502631
