Time,Force,Position
4.430771999999999,16.291901262606178,0.1338117714435584
4.433119999999999,16.28063662394809,0.1338053740238362
4.435468,16.274819209021814,0.1337733586989431
4.437811999999999,16.281106946372653,0.1336790572249538
4.440156,16.28641629633547,0.1336071872610268
4.442499999999999,16.29931474040338,0.1334934888954835
4.444844,16.316589473016453,0.1333627364163942
4.447184,16.33558676712223,0.1332256714553365
4.449532,16.357749644959675,0.1330819911468821
4.451863999999999,16.386570451342426,0.1329019882963549
4.454211999999998,16.422700812576544,0.1326876663846082
4.456551999999999,16.4657686416097,0.1324315366442641
4.4589,16.509627866575766,0.132174763802674
4.461236,16.558142919340725,0.1318954754125195
4.463579999999999,16.60088398729191,0.1316658249163995
4.465928,16.64520784710893,0.1314336328728851
4.468264,16.68953170692595,0.1312026609340288
4.470616,16.73706837230289,0.1309492104688103
4.472959999999999,16.78581574249333,0.1306864690450845
4.475304,16.82920843675057,0.1304625576793114
4.477639999999999,16.87488277100795,0.1302202576127968
4.479984,16.92013779638475,0.1299884488212492
4.482332,16.964321886574915,0.1297656489040773
4.484675999999999,17.004501775272242,0.1295691606208191
4.487015999999999,17.046683764715986,0.1293607487520253
4.48936,17.087655049346232,0.1291636573282018
4.4917,17.123690966923867,0.1289957023769092
4.494043999999999,17.15879571894172,0.1288323966018505
4.496383999999999,17.19511117577308,0.128658897303941
4.498728,17.229144992604297,0.1285046081097897
4.501071999999999,17.25917460794268,0.1283749905579747
4.503411999999999,17.281567907347732,0.1283006191198483
4.505756,17.304752602685703,0.1282253545481796
4.508099999999999,17.326074966904116,0.128159424646093
4.510439999999999,17.34916711444347,0.1280708979595068
4.512787999999999,17.372538801236548,0.1279767778496324
4.515132,17.395770718402762,0.1278861381097112
4.517484,17.417791930755477,0.1278063644860558
4.519824,17.43552940236164,0.1277557522695006
4.522167999999999,17.459412945833915,0.1276677689152592
4.524507999999999,17.48678883411982,0.1275532876348941
4.526843999999999,17.511510995353255,0.1274485448092252
4.529195999999999,17.53623315658669,0.1273442605309502
4.531535999999999,17.558953217073707,0.1272514782041287
4.53388,17.58409468718772,0.1271393288191788
4.536223999999999,17.60830499174196,0.1270313509046179
4.538563999999999,17.637450663348808,0.1268971351526341
4.540903999999999,17.668458666075214,0.1267549288192381
4.543239999999999,17.69960643842848,0.1266104487855177
4.545587999999999,17.731033750035465,0.1264607278512182
4.547931999999999,17.76246106164245,0.1263111818674491
4.550284,17.80059352362299,0.1261139897251539
4.552627999999999,17.832487365938796,0.1259394394464949
4.554971999999999,17.86009746750805,0.1257927936899928
4.557315999999998,17.888219425756503,0.1256509866202336
4.559664,17.913268348071902,0.1255273896035727
4.562007999999999,17.93845704001416,0.1254014290402625
4.564359999999999,17.96178340083686,0.1252838282036084
4.566699999999999,17.98846233684634,0.1251426022008513
4.569044,18.013558480989982,0.125004668669625
4.571392,18.03329994920043,0.124901931844309
4.573727999999999,18.05783701483663,0.1247767793042962
4.576072,18.081862223793628,0.1246475109469928
4.578415999999999,18.10723790719099,0.1245058875004906
4.58076,18.1278179931626,0.1243874106832003
4.5831,18.14988832320143,0.124253814307632
4.585439999999998,18.16544049432181,0.1241478363215777
4.587795999999999,18.179549643203213,0.1240414211257431
4.590128,18.19221576984564,0.1239345993842166
4.592471999999999,18.200365838316035,0.1238443653312807
4.594816,18.20842335898781,0.1237411699569216
4.597156,18.21196482148757,0.1236547475155466
4.599492,18.22244375178634,0.1235329661402799
4.601832,18.23683433577933,0.1233770437039331
4.60418,18.253925868653045,0.1231971721887996
4.606515999999999,18.272787184847697,0.1229966334686422
4.60886,18.28820337805696,0.1228059028702993
4.611199999999998,18.30739145533357,0.1225848338925131
4.613543999999999,18.323134409624792,0.1223735594897411
4.615879999999999,18.3351527016769,0.1221776012688322
4.6182279999999984,18.34773007223645,0.121970590925734
4.620576,18.356350463131413,0.1217689665924074
4.622916,18.364179458093453,0.1215685994560458
4.625259999999999,18.36777193413718,0.1213783194430832
4.627604,18.36964184868822,0.1211923883071083
4.629951999999999,18.37286223767961,0.120994859747649
4.632292,18.37929543223092,0.1207776459505788
4.634632,18.386008166035943,0.1205550807667896
4.636975999999999,18.39379183502761,0.1203264381479525
4.639332,18.40665064069875,0.1200712235128217
4.641672,18.41950944636989,0.1198163966255752
4.644012,18.43236825204103,0.1195615706015142
4.646363999999998,18.440431460286412,0.1193280657283082
4.648703999999999,18.44463023666583,0.1191117969109259
4.651052,18.44417318524636,0.1189138562847226
4.653391999999998,18.44343659457316,0.1187215411419094
4.655743999999999,18.4437709390866,0.1185226931402272
4.658083999999999,18.439681773226628,0.1183521794664731
4.660428,18.43717539923249,0.1181799384136148
4.662775999999999,18.43774206117141,0.1179915476020954
4.66512,18.43430452161749,0.1178225776419609
4.667463999999999,18.431518608369636,0.1176555691767752
4.669808,18.42873269512177,0.1174886288060182
4.672148,18.43325633672528,0.1172964204455429
4.674491999999999,18.444577676500963,0.1170745425948769
4.676831999999999,18.454688311463137,0.1168623281130067
4.679171999999999,18.46680104717173,0.1166410249857786
4.681519999999999,18.478774013253467,0.1164227517155291
4.683864,18.4907469793352,0.1162050806614984
4.686211999999999,18.49978667911074,0.1160007258463658
4.688552,18.51068871000584,0.1157901556982613
4.690895999999999,18.52559494239377,0.1155613798633916
4.693244,18.545576311461176,0.1153083816555357
4.69558,18.571284443514102,0.1150332295437171
4.697923999999999,18.598994676313453,0.114749048246146
4.700268,18.62898654911294,0.1144511921417421
4.702615999999999,18.661260061912564,0.1141394942115835
4.70496,18.692090552473207,0.1138259515259759
4.707303999999999,18.72483059598165,0.1134914164222042
4.709651999999998,18.757710409116967,0.1131554489770228
4.711983999999999,18.794873962998825,0.1127955795581863
4.714327999999998,18.830175185761128,0.1124423098737679
4.716667999999999,18.86575594777716,0.1120844807691574
4.719016,18.896960421248007,0.1117387391284349
4.721359999999999,18.92485954136033,0.1113994625781488
4.723699999999999,18.9521070351666,0.1110588985986692
4.726047999999999,18.977492197853305,0.1107256069912729
4.728387999999999,19.00101502942045,0.1103985859216567
4.730732,19.02053365949477,0.1100892559662977
4.733072,19.04005228956909,0.1097799575591506
4.735408,19.05756881889699,0.1094802343407532
4.737743999999999,19.06907904598564,0.1092071032802203
4.740087999999998,19.072860409342344,0.1089636053017624
4.742427999999999,19.07491921120635,0.1087242849443721
4.744764,19.076838243443497,0.1084877917726032
4.747103999999998,19.07382190862803,0.1082715042485663
4.749447999999999,19.06959486899906,0.1080636106772136
4.751792,19.069232261236078,0.1078412254401566
4.754128,19.06817080533878,0.1076321860543636
4.756471999999999,19.068040515001265,0.1074207116511014
4.758816,19.06884139022353,0.1072066414035674
4.761159999999999,19.071784135819076,0.1069816431076281
4.763503999999999,19.07551827734753,0.1067566917567861
4.765844,19.080183584435765,0.1065290425139274
4.768184,19.083358647456784,0.10631460485515
4.770527999999999,19.085742314544888,0.1061005715988101
4.772867999999999,19.089616225700208,0.1058739323573323
4.775212,19.097913647228943,0.1056237892571572
4.777555999999999,19.114499010997065,0.105337076031371
4.7799,19.13178322289949,0.1050379233247378
4.78224,19.1477641821898,0.1047342812025636
4.784579999999998,19.17045029185365,0.1043948037344058
4.786919999999999,19.2014243437569,0.1040190189647278
4.789268,19.23188653898095,0.1036395849638517
4.791607999999998,19.26076594233916,0.1032607846544274
4.7939599999999984,19.29234629457809,0.1028616054683359
4.796303999999999,19.323554559764688,0.1024557448398916
4.798644,19.353180033085444,0.1020510659156508
4.800987999999999,19.38285272823444,0.1016327068621799
4.803327999999999,19.407357738905358,0.1012228177271551
4.805675999999998,19.43149066252392,0.1008067125138259
4.808019999999999,19.45418056390352,0.1003886492410732
4.810371999999999,19.47463604711122,0.09996877742366
4.812711999999999,19.496302235132426,0.0995424740706078
4.8150559999999984,19.52038983278063,0.0991020213361371
4.817399999999999,19.545548365615467,0.0986573337232618
4.819744,19.57135852475636,0.0982168923069141
4.822092,19.59609774871062,0.0977831125161494
4.824432,19.612176943373157,0.0973768074686104
4.826771999999998,19.63104963471502,0.0969645569186418
4.829111999999999,19.65271582273622,0.0965459483442792
4.831455999999999,19.66995850038401,0.0961500713787826
4.833796,19.68785280433785,0.0957590782469984
4.836139999999999,19.70639873459775,0.0953716434557471
4.838488,19.73001980153713,0.0949669923266129
4.840836,19.75601505627526,0.0945641099981636
4.843176,19.783453333252364,0.0941649212868129
4.845516,19.81103137985633,0.0937639545900267
4.847864,19.839912679072416,0.0933697454404366
4.850199999999999,19.874101432393445,0.0929681457094965
4.852544,19.904797840900848,0.0925850526410846
4.854883999999998,19.939218911647355,0.0921947788149186
4.857232,19.975502313513417,0.0918011705080508
4.859567999999999,20.007921283513507,0.091418719552698
4.861911999999999,20.039688627207543,0.0910349721401774
4.86426,20.069593639782017,0.0906558405652009
4.866596,20.09433096787841,0.0902822411218285
4.868936,20.11655433854917,0.0899106581742157
4.871279999999999,20.14171097552615,0.0895306690813503
4.873624,20.16500528138356,0.0891559508392262
4.875967999999999,20.183643759442077,0.0887910804758679
4.878311999999999,20.20069944563476,0.0884252753659805
4.880659999999999,20.21151651216272,0.0880690036590839
4.882995999999999,20.21767775089178,0.0877220759457832
4.885339999999999,20.21983478812801,0.0873880432005416
4.88768,20.22040903349841,0.0870537662478507
4.890023999999999,20.21968002625669,0.0867142754063114
4.892359999999998,20.21774031420147,0.0863810624492541
4.894699999999999,20.209282443227806,0.086060109876163
4.897055999999999,20.198450384455384,0.0857378995060864
4.899395999999999,20.193764397549074,0.0853962676261873
4.901739999999998,20.18693654026948,0.0850632220667568
4.904079999999999,20.17675610780312,0.0847441670069551
4.906424,20.16857777608317,0.0844190564321064
4.908759999999999,20.15397383324339,0.0841170579297874
4.911104,20.13909035114989,0.0838191724455538
4.91344,20.12537035204164,0.0835286733753747
4.915783999999999,20.110951504799097,0.0832491635416513
4.918123999999999,20.09746382311633,0.0829679483850718
4.920463999999999,20.080483796619927,0.0827026995531845
4.922808,20.067880058668692,0.0824335943638052
4.925139999999999,20.054996781463743,0.0821684217984326
4.927484,20.041274886497632,0.0819163187528856
4.929824,20.03048625783772,0.0816566602484775
4.932167999999999,20.020349255483858,0.0813999565128634
4.934512,20.00793061312986,0.0811530790271886
4.936855999999999,19.995884057828203,0.0809136984998501
4.939195999999999,19.98476866808632,0.0806725230396804
4.941535999999999,19.97695863170297,0.0804314917212003
4.943876,19.968309977558462,0.0802040045907852
4.946216,19.9536550211747,0.0799923920217128
4.948559999999999,19.937929129604303,0.0797844164328829
4.950904,19.92620743952674,0.079565817612212
4.953244,19.91392667094173,0.0793561106376122
4.955587999999999,19.90737266534226,0.0791348625895869
4.957927999999999,19.902680990862333,0.0789106203279215
4.960275999999999,19.89798931638241,0.0786860764336616
4.962615999999999,19.895159973022054,0.0784585695606836
4.964972,19.8869759537285,0.0782491548682758
4.967312,19.87893170406181,0.0780369611892375
4.969655999999999,19.86688325290228,0.0778348373396522
4.971995999999999,19.856277823981724,0.0776363769312215
4.974331999999999,19.850328222860057,0.0774308412070376
4.97668,19.84274860804432,0.0772378681738695
4.9790199999999984,19.828883151735607,0.0770641523665442
4.981363999999999,19.814598386546315,0.0768969521769785
4.983707999999998,19.79696104617025,0.0767427701859177
4.986047999999999,19.77927648396594,0.0766030419971064
4.988399999999999,19.76052098657499,0.0764667284864307
4.990735999999998,19.74148594993032,0.0763348015323225
4.993084,19.72575626664418,0.0762040751020124
4.995427999999999,19.70639446891754,0.0760908138062565
4.997771999999999,19.687404758243243,0.0759852987204725
5.000115999999999,19.671208544248284,0.0758757143165602
5.002459999999999,19.65659512211916,0.0757680251293716
5.0048,19.64114308222887,0.0756738821990259
5.00714,19.629927561256896,0.0755799746277854
5.009483999999999,19.6160110914042,0.0755021559438252
5.011831999999998,19.611406277149285,0.0754113403761826
5.014171999999999,19.61490241367866,0.0753136384238646
5.016515999999999,19.622914608380068,0.0752118483433187
5.018856,19.634651465320587,0.0751052006787558
5.021191999999999,19.639311084835214,0.0750163267309594
5.023536,19.64741582733524,0.0749269657935862
5.025879999999999,19.66217849838057,0.0748263228330354
5.028227999999999,19.681457227597928,0.0747218327771218
5.030563999999998,19.704460619054405,0.0746123226637688
5.032907999999999,19.73095635532452,0.0744881919384475
5.035255999999999,19.76331862420702,0.0743526259859674
5.037591999999998,19.79675182827616,0.0742137317655603
5.03994,19.83111619790508,0.0740741601653174
5.04228,19.873488970519663,0.0739161001739221
5.044628,19.91213708089514,0.0737632291893209
5.046968,19.94799169459128,0.0736144815831623
5.049311999999999,19.984125847541137,0.0734620473046926
5.051656,20.023752345304636,0.0732955047401078
5.053996,20.05807138896317,0.0731318733043966
5.056348,20.10030628780877,0.0729386746023597
5.058691999999999,20.138304667736055,0.0727456793177209
5.061027999999999,20.16992465837175,0.0725593288694926
5.063364,20.20089302270139,0.0723703992687589
5.065707999999999,20.230278595165192,0.0721800947661338
5.068055999999999,20.267160713935464,0.0719667824544305
5.070392,20.302739580093625,0.0717474850656391
5.072735999999999,20.341950560692275,0.0715130374036165
5.07508,20.377856187932395,0.0712770100582142
5.077423999999999,20.41110808812004,0.0710421471177371
5.079759999999999,20.442357887561265,0.0708125065652848
5.082099999999999,20.47081419032316,0.0705870558766346
5.084447999999998,20.50155213308519,0.0703537521017058
5.086787999999999,20.52884495286183,0.0701205933776707
5.089131999999999,20.5505507792798,0.0698940466828889
5.091472,20.573327540884407,0.0696642842816439
5.093812,20.59689569842193,0.0694358339175704
5.096148,20.61645965446663,0.0692159197757053
5.098488,20.632298948272208,0.0690004599148235
5.10084,20.6506521995034,0.0687862436220567
5.103179999999998,20.66230030036104,0.0685955412575402
5.105523999999999,20.673529092338093,0.0684114448502268
5.107863999999999,20.68568904987493,0.0682265167725575
5.110207999999998,20.69649853297141,0.0680491493398232
5.112544,20.70730801606789,0.0678721826909461
5.114887999999999,20.718629355843568,0.0677013183443952
5.117235999999998,20.729810925992386,0.0675327684305519
5.119584,20.737360381700707,0.0673800738167332
5.121927999999999,20.7475635644615,0.0672271039858371
5.124272,20.76298165352863,0.0670617581679565
5.126612,20.773604145170008,0.0669027138965914
5.128955999999999,20.78287616237103,0.0667510086545217
5.131303999999998,20.787724669198628,0.0666132289593091
5.133652,20.794016198265204,0.0664800203020826
5.135995999999999,20.803240993637974,0.0663423285586281
5.13834,20.81446788975717,0.0662010886376122
5.140683999999999,20.82583455550322,0.0660579116064709
5.143023999999999,20.839203321995694,0.0659110564393096
5.145363999999999,20.85443441960771,0.0657628462461989
5.147711999999999,20.87194715721987,0.0656071585990809
5.150051999999999,20.89202107408589,0.0654397408057037
5.152407999999999,20.912094990951918,0.0652725096118475
5.154748,20.93016680707151,0.0651089389700748
5.157091999999999,20.948518162444834,0.0649414011188874
5.159436,20.964587877818023,0.0647817825960448
5.161776,20.97800386613873,0.0646228010137327
5.164119999999999,20.99221125039237,0.0644653847811557
5.166467999999998,21.00269397240688,0.0643108508903697
5.168804,21.008241327368783,0.0641641286407484
5.171147999999999,21.008294236770634,0.064033531873684
5.173495999999998,21.01621577953129,0.0638911645091836
5.175835999999999,21.019481494493057,0.0637520878030407
5.178175999999999,21.021955813521902,0.0636113819425105
5.180515999999999,21.024709671804477,0.0634666267926447
5.182863999999999,21.026392594900404,0.0633248002694303
5.185203999999999,21.026725043555977,0.0631899644420315
5.187548,21.027057492211547,0.0630552031227809
5.1899,21.02846087605376,0.0629178661577457
5.19224,21.02758261989583,0.0627880702857418
5.194579999999998,21.025493658924407,0.062663245497175
5.196923999999999,21.01912095720643,0.0625491187786229
5.199263999999999,21.013958960301945,0.0624303359747511
5.201604,21.01173022970365,0.0623075830496964
5.203947999999999,21.008570333545592,0.0621854516646884
5.206292,21.003687875894823,0.0620623441299195
5.208632,21.0003882101099,0.0619422063574329
5.210975999999999,20.993224112459007,0.0618264721126014
5.21332,20.99127492111444,0.0616995343548451
5.21566,20.99360947051643,0.0615620085193439
5.218,20.998365429545416,0.0614151046606298
5.220343999999999,20.99604415114851,0.0612806094763275
5.222688,21.00359360685683,0.0611322629707893
5.225028,21.016078429617764,0.0609770232592826
5.227376,21.027632086818915,0.0608224578737715
5.229719999999999,21.04197924069941,0.0606666002586733
5.232055999999998,21.051391027527284,0.0605172755494179
5.234392,21.06080281435516,0.0603681024640475
5.236739999999999,21.065930860436485,0.0602291887366405
5.23908,21.069476114651973,0.060087143650294
5.241415999999999,21.069296706628343,0.0599472015543962
5.24376,21.073121500097557,0.0598010030794057
5.246103999999999,21.0726625528202,0.0596649753658383
5.248443999999999,21.0703412744233,0.0595300593593029
5.250779999999999,21.06988232714595,0.0593941693085127
5.253124,21.0740792076675,0.0592557255592969
5.255464,21.0705472244571,0.0591251893705123
5.257812,21.071159212366396,0.0589864988520591
5.260155999999999,21.06748745952913,0.0588579496733644
5.262495999999999,21.06218569299779,0.0587400735891687
5.26484,21.05418297758573,0.0586351927981547
5.267175999999999,21.04790282366636,0.0585311880221589
5.269523999999999,21.03161216601492,0.0584420547784424
5.271863999999999,21.01238824205727,0.0583563143965718
5.27422,20.993676174778827,0.0582760646044788
5.27656,20.96788687007449,0.058207033528895
5.278903999999999,20.9510371339156,0.0581257030096605
5.281243999999999,20.934699254435916,0.0580499430424878
5.283579999999999,20.92422790756861,0.0579674144190721
5.285927999999998,20.91505981331343,0.0578919008817927
5.288271999999999,20.90961638129736,0.0578145293227663
5.290623999999999,20.903893410027568,0.0577412504188355
5.292964,20.89989300025048,0.0576689873598155
5.295307999999999,20.895333511965937,0.0576047358315278
5.297651999999999,20.886490282934847,0.0575502281095432
5.299987999999999,20.87564495315734,0.0574986081934736
5.302335999999999,20.873180113417835,0.0574430829534221
5.304675999999999,20.86829386405133,0.0573964687113827
5.307027999999999,20.86592157211045,0.0573526083465182
5.309372,20.86569115054284,0.0573039339292034
5.311715999999999,20.87202610972193,0.057238794017376
5.314055999999999,20.880502939274283,0.0571688669835462
5.3164,20.89750002849151,0.0570933082185616
5.318743999999999,20.917150844761217,0.0570187045815913
5.321091999999998,20.937732826590693,0.0569437889369954
5.323435999999999,20.963250175472787,0.0568628172129962
5.32578,20.98397192692912,0.0567861197761384
5.328128,21.000829246519487,0.0567129274078915
5.330463999999999,21.01489306943052,0.0566411103263858
5.332803999999999,21.03538250346138,0.0565553206895319
5.3351479999999984,21.056803103052022,0.0564694371868861
