Time,Force,Position
4.076931999999999,5.879877802552883,0.1696030313329593
4.079272,6.337355490705047,0.1657886758606284
4.081616,6.776589538145459,0.1625750488140432
4.083964,7.1854747925970015,0.1603116710965089
4.086304,7.564802649992591,0.1585111748476704
4.088652,7.917087067757844,0.1569222580772628
4.090992,8.243631298504877,0.1554848924698224
4.09334,8.539592522979689,0.1543274993792975
4.09568,8.80883517304826,0.1533138327578532
4.0980240000000006,9.054757149867738,0.1524065862862557
4.100372,9.279453101983156,0.1516173816883577
4.102708,9.48506489976779,0.1508811270357821
4.105048,9.670381838408144,0.1501927833860718
4.107391999999999,9.832889960478608,0.1495747480071873
4.3932400000000005,9.18485785170382,0.1492718677622609
4.395588,9.195193220660002,0.1491865063119231
4.397931999999999,9.20431788480268,0.149123072004477
4.400271999999999,9.216236045624695,0.1490294800364082
4.402616,9.23267026461874,0.1488925409905746
4.404956,9.2528291458519,0.1487160748009306
4.4072960000000005,9.275362214883817,0.1485295890334776
4.40964,9.298686679848648,0.1483401892116133
4.411987999999999,9.316376929626568,0.148240510493764
4.414327999999999,9.34244766944249,0.1480525030406553
4.416672,9.374105402617085,0.1478062068837627
4.419012,9.412421064336986,0.1474872444280493
4.421348,9.452039978669005,0.147171314657459
4.423691999999999,9.491379353747302,0.1468678093975663
4.426036,9.525643592146126,0.1466319343261344
4.428376,9.55576385942526,0.1464505191966289
4.430719999999999,9.582718542972716,0.146286750466554
4.433064,9.611023700960532,0.146095948222934
4.435404,9.639608398202071,0.1458946293060617
4.437747999999999,9.669403800257108,0.1456723021620072
4.4400960000000005,9.699618511192726,0.1454336489950703
4.44244,9.721033423209755,0.1452997274710291
4.44478,9.744729975226926,0.1451303026938199
4.4471240000000005,9.76856629687096,0.144956645281748
4.449468,9.787327481835517,0.1448476105915822
4.451808,9.807299371613572,0.1447201127708281
4.454143999999999,9.822755203219597,0.1446339791024206
4.456488,9.837419638892705,0.1445520549183615
4.458831999999999,9.855576419379446,0.1444139215175984
4.461176,9.869217141694158,0.1443173855208347
4.463519999999999,9.880064367329537,0.1442489771252551
4.465864,9.88611599553916,0.1442317550955816
4.468211999999999,9.893518098189142,0.1441893041327104
4.470547999999999,9.902130905652626,0.1441272704398419
4.472896,9.911954417929609,0.1440451323031606
4.475239999999999,9.928715398005616,0.1438838928646162
4.477584,9.944777529947324,0.1437498015554334
4.479927999999999,9.96163105782195,0.1436129214197146
4.482272,9.978205046442856,0.1434874410821845
4.484612,9.995710200623542,0.143353907863244
4.486955999999999,10.0158690818567,0.1432009724739883
4.489304000000001,10.04082356051561,0.142998301800227
4.491652,10.063636168801246,0.1428246776234865
4.493992,10.08565738115396,0.1426556143364611
4.496336,10.110100003133674,0.1424474498424909
4.498683999999999,10.129607258060778,0.1422944468415177
4.5010200000000005,10.149905908920797,0.1421376732369463
4.503364,10.171135725340596,0.1419732179242781
4.505708,10.19450741213367,0.1417826386022417
4.508056,10.218810264486525,0.1415838843975914
4.510400000000001,10.24232172090646,0.1413886117932055
4.512744,10.266112716580112,0.1411827695545508
4.5151,10.290183251507491,0.1409682477293485
4.517440000000001,10.312670994569029,0.1407611655555692
4.519784,10.339023169496542,0.1405170700085394
4.522128,10.360579746998305,0.1403208780209591
4.524476,10.385768438940564,0.1400698140039882
4.526812,10.410585043830483,0.1398078942641825
4.529156,10.435681187974126,0.1395365246911153
4.531496000000001,10.461708497677543,0.1392592246801821
4.53384,10.484942310701626,0.1390082786717232
4.536184,10.506313792606155,0.1387741523087215
4.538524000000001,10.532760411190155,0.1384871385446057
4.540868,10.555994224214238,0.1382385741139969
4.543203999999999,10.5801592027981,0.1379835703845925
4.545548,10.604603720635682,0.137717643974301
4.547888,10.63119010884654,0.1374266478791177
4.550243999999999,10.656845331497625,0.1371448733889753
4.552584,10.678496352655872,0.136905609677731
4.554928,10.704151575306952,0.1366279173081327
4.557276,10.730877733144672,0.1363381166769748
4.559612,10.758395286915311,0.136046191437377
4.561959999999999,10.782560265499177,0.1357976130050749
4.564304,10.80923920150865,0.1355374752671226
4.566652,10.834195576025431,0.1352904316718146
4.568996,10.861433590542353,0.1350137459671033
4.5713360000000005,10.886529734685991,0.1347640763304386
4.57368,10.911066800322194,0.134534938297672
4.57602,10.934532930771756,0.1343185671230437
4.578367999999999,10.95641626935548,0.1341088353012587
4.580708,10.976437276819649,0.1339137852482899
4.58306,10.997389449843594,0.1337117070246293
4.5854,11.013266486188067,0.1335620109688275
4.587744000000001,11.034218659212012,0.1333617906553296
4.590088,11.0550310626091,0.1331676914882995
4.592435999999999,11.07849719305866,0.1329572294593361
4.594776,11.098890287575166,0.1327781532029679
4.597123999999999,11.120354317278313,0.1325881474434287
4.599463999999999,11.143540908474154,0.1323885106665569
4.601808,11.160721197430744,0.1322469508008031
4.604156,11.178832651947117,0.1320992173117095
4.606491999999999,11.197735502396402,0.1319497986187988
4.65804,11.385283067492908,0.1319130329279493
4.6603840000000005,11.39701423685982,0.1318851833844312
4.662724000000001,11.413308686227005,0.131803557846683
4.665056,11.43202454522119,0.131690697473621
4.667400000000001,11.453673670521567,0.131554527848858
4.669744,11.477464666195225,0.1313971076690495
4.672096,11.505679172242294,0.1311913175182404
4.674440000000001,11.539248354222558,0.1309322939819215
4.676784,11.5744475498969,0.1306466234623294
4.679131999999999,11.61621212631793,0.1302911176587432
4.681468000000001,11.655462745313349,0.129948901669418
4.683816,11.701930371361517,0.1295415684555018
4.686168,11.749468932596324,0.1291270223064591
4.688508000000001,11.800732156070245,0.1286896545232026
4.690852,11.85613935066386,0.1282137058400492
4.693196,11.910894918951414,0.1277390878662418
4.6955480000000005,11.964859091306051,0.1272672416477543
4.697888000000001,12.01938234216813,0.1267811031818534
4.700236,12.073114197097295,0.1262982016754862
4.702579999999999,12.12312138978734,0.1258428084461511
4.70492,12.17354789135797,0.1253763999543973
4.707264,12.228118364048289,0.1248784730966583
4.709607999999999,12.278824404872635,0.1244123800971814
4.711948,12.328459510510347,0.1239589124245908
4.714292,12.373578557976025,0.1235328942646888
4.716635999999999,12.416975043949009,0.1231170297986477
4.71898,12.456646867682876,0.1227260383951251
4.72132,12.489660762871438,0.1223815429152141
4.723660000000001,12.517739291007384,0.1220748064610664
4.726011999999999,12.543675948770058,0.1217898075869287
4.728356,12.566679340226536,0.1215258330029456
4.7307120000000005,12.582745263883982,0.1213145197760473
4.733052000000001,12.593875820488815,0.1211396349999908
4.735396,12.6009096278022,0.1209766854292433
4.7377400000000005,12.60622087362289,0.120821050125144
4.740084,12.60966978832402,0.1206767502859516
4.742431999999999,12.612187537465374,0.1205378425615114
4.744771999999999,12.611632250673669,0.1204236124194189
4.747112,12.612799525374662,0.1203028296883035
4.775207999999999,12.482460993158004,0.1202077468646501
4.777552,12.473942629351006,0.1201947782622929
4.779895999999999,12.468637071103924,0.1201534135556124
4.78224,12.465845470282458,0.1201040951395038
4.78458,12.466918301326968,0.1200296438320849
4.786916,12.468130901998334,0.1199512064619365
4.7892600000000005,12.47148537304298,0.1198542186249907
4.791600000000001,12.47656240558032,0.1197507806721853
4.793944,12.477914775878547,0.1196683931503437
4.796284,12.480198311736554,0.1195808996320263
4.798627999999999,12.485694653154477,0.1194655537721144
4.800967999999999,12.493984491251735,0.1193337697251837
4.803312,12.499201293415936,0.1192256195421799
4.80566,12.506839505207136,0.1190904215993111
4.808,12.515036795505775,0.1189391170335763
4.810344000000001,12.520440589125078,0.1188039535176214
4.812688,12.531338828304436,0.118618360885103
4.815028,12.545310103416847,0.1184096565480294
4.817372000000001,12.562214644835455,0.1181816954202065
4.819708,12.584706179612736,0.1179232165983264
4.822056,12.605987009576516,0.1176784464737938
4.824400000000001,12.624846429913298,0.117460457963477
4.826744,12.644357476556138,0.1172464007776884
4.829084,12.660655717639065,0.1170600062888916
4.831432,12.6681541598034,0.1169315991207585
4.833772,12.673091422713885,0.1168332441285594
4.836107999999999,12.679751247117062,0.1167292362405491
4.838455999999999,12.68575944521418,0.1166224881860146
4.8408,12.694700909617495,0.1164965868586302
4.843144000000001,12.703642374020813,0.1163711084806104
4.845483999999999,12.713794543237624,0.1162333637200284
4.847828,12.728370222827852,0.1160564648990363
4.850175999999999,12.747089873537774,0.1158475093140178
4.852511999999999,12.768323481673312,0.1156326201132504
4.85486,12.791000112047824,0.1154206268639789
4.857208,12.812466037608838,0.1152208935893872
4.859544,12.830858927236797,0.1150448498153581
4.861888,12.845666924252502,0.114885050523644
4.864228000000001,12.860474921268208,0.1147261838582666
4.866576,12.872768960858298,0.1145749285743746
4.8689160000000005,12.887624179702248,0.1143954748313603
4.87126,12.906483600039028,0.1141899719415773
4.873612,12.922689293323335,0.1139951420862278
4.875947999999999,12.943318496981057,0.1137630324462181
4.878292,12.972887269184223,0.1134736620075669
4.88064,13.009021422134085,0.1131305343689998
4.882975999999999,13.044224409524166,0.1127944398670448
4.88532,13.079706936167964,0.1124515527017385
4.887663999999999,13.117331333185042,0.1120942933953158
4.8900120000000005,13.156957830948537,0.1117265068774097
4.892352000000001,13.195233854271672,0.1113764211831117
4.894696,13.231368007221532,0.1110450398178987
4.897043999999999,13.271646131291089,0.1106880870432545
4.899388,13.308618902002108,0.1103388503839573
4.901731999999999,13.343077715287512,0.1099960711344741
4.904076,13.38475353562567,0.1096065172344541
4.906424,13.42964216152374,0.1091954539937304
4.908768,13.477184514474288,0.1087766175495947
4.9111080000000005,13.524075241118773,0.1083570038190075
4.913452,13.568172471083926,0.1079505359237619
4.915792,13.6101278306758,0.107561779117869
4.9181360000000005,13.647706901722502,0.1071876700760851
4.92048,13.686496677582705,0.1068026430488996
4.922824,13.723563891950208,0.1064249282773472
4.92516,13.7581171488921,0.1060552310709773
4.927508,13.7880145780351,0.1057076516527355
4.929848,13.813815257886649,0.1053660360130505
4.932192000000001,13.840686872924838,0.1050181722620103
4.934536,13.862902660164137,0.1046908410571751
4.93688,13.882744259604678,0.1043660480858592
4.939228,13.902353541619744,0.1040282538145996
4.941568,13.920939110276414,0.1036777030631585
4.943916,13.934217224828132,0.1033446290444079
4.946256,13.95005651863371,0.1029875566402504
4.948599999999999,13.9703193228127,0.1025998406127106
4.950944,13.987276773633162,0.1022191215553406
4.953291999999999,14.000789101468229,0.1018472442036704
4.955640000000001,14.011694924079064,0.1014627634396226
4.957976,14.0232995948242,0.1010625699258316
4.960324,14.03853638000983,0.1006320554566484
4.962667999999999,14.0567536533299,0.1001692600311861
4.965012,14.078603041090467,0.0996768692157053
4.9673560000000005,14.101151276985338,0.0991688454487639
4.969695999999999,14.118252289148396,0.0986769962402172
4.972047999999999,14.133630739818758,0.0981895139508224
4.974392,14.14742639862328,0.0977014131584554
4.976732,14.162432762241304,0.0972026418371048
4.97908,14.174925168433711,0.0967074808293172
4.981415999999999,14.19011852350684,0.096186024438035
4.983763999999999,14.202937690781214,0.0956641827922515
4.986112,14.216315936563031,0.0951301964740761
4.988443999999999,14.229694182344842,0.0945968013373274
4.990779999999999,14.243351967380375,0.0940572892366457
4.993124,14.255938817229271,0.0935259879711243
4.995476,14.26093657297308,0.0930225176015901
4.997812,14.262209666477776,0.0925312165956258
5.0001560000000005,14.262970903303277,0.092032775753708
5.002504,14.26531493199461,0.0915354303802505
5.00484,14.26486546400661,0.0910473099783397
5.0071840000000005,14.26269343452591,0.0905624076462329
5.009523999999999,14.254095793925384,0.0901139709406439
5.011875999999999,14.244147678884495,0.0896787834908546
5.014212000000001,14.237132830149804,0.089233478800666
5.016556,14.237474758094722,0.0887497991915174
5.018908,14.235954354920082,0.0882707843266847
5.0212520000000005,14.240719793238412,0.0877608811613605
5.023596,14.249349663422716,0.0872385905602127
5.02594,14.25811930323388,0.0867127053131006
5.028283999999999,14.265818007858408,0.0861935174906772
5.030619999999999,14.273237173229214,0.0856797643898227
5.032964,14.277862841920683,0.085173588760374
5.035316,14.28048640986574,0.0846749885398784
5.037664,14.28511207855721,0.084169498125227
5.040004,14.286013085009568,0.0836729530289351
5.0423480000000005,14.28970758814126,0.0831678706052326
5.044688000000001,14.29633535757915,0.0826526724954863
5.047032,14.303055674815656,0.0821543366920097
5.0493760000000005,14.309775992052158,0.0816570232305847
5.051715999999999,14.315145834848304,0.0811708084426491
5.05406,14.31888566395037,0.0807026933660231
5.056404000000001,14.326629694545268,0.0802188986580789
5.058743999999999,14.330649062901054,0.0797432971075669
5.061088,14.325309553830811,0.0793089902006196
5.063428,14.314196059946802,0.0789108702894468
5.06578,14.304944897182349,0.078507836756763
5.06812,14.28749833997712,0.0781573022656601
5.070463999999999,14.26548850277162,0.0778338350272983
5.072804,14.246272162245456,0.0775039751490111
5.075148,14.227427908771627,0.0771844912825391
5.077492,14.216172749402888,0.076846773795911
5.079827999999999,14.202868267459486,0.0765348917432286
5.0821760000000005,14.194079843688115,0.0762166094568818
5.084524,14.178586269543192,0.0759340777419392
5.086872,14.16718944468972,0.0756543935124478
5.089212,14.156444246142309,0.0753787171185609
5.091556000000001,14.138854127594485,0.07514140325127
5.0939,14.121403778673518,0.0749005181011603
5.09624,14.100321315312057,0.0746833856202664
5.098584000000001,14.080542104562712,0.0744746953058643
5.100932,14.062485455306062,0.0742652138339979
5.103268,14.043078331609056,0.0740666143370488
5.105612000000001,14.025765856457085,0.0738779087705029
5.10796,14.01217804354422,0.0736813199426909
5.110296,14.001243957683837,0.0734823221556978
5.112639999999999,13.990681958875786,0.0732941650023383
5.114984,13.9826811393216,0.0730859507070383
5.117331999999999,13.975891024580909,0.0728692936002076
5.119667999999999,13.965329025772858,0.0726798908457275
5.122012,13.951274682151174,0.0725110843485059
5.1243680000000005,13.927861461103465,0.0723793402376919
5.126704,13.906962197481366,0.0722486390368962
5.129047999999999,13.87991686199316,0.0721401414291332
5.131392,13.855385483930569,0.0720327187380481
5.133732,13.829783170681337,0.0719298507097123
5.136072,13.804552944484444,0.0718378287149174
5.138415999999999,13.78639995571344,0.0717212574626454
5.140763999999999,13.766896492502076,0.0716155451722445
5.143108,13.745251158917435,0.0715190800107871
5.145448,13.725747695706072,0.0714126967651295
5.147791999999999,13.70596469324099,0.0713125444408186
5.150136,13.684831216335546,0.071223340129892
5.152472,13.66649123610944,0.0711292677407968
5.154816,13.647592177375891,0.0710478659197459
5.157159999999999,13.627342644201985,0.0709775848098969
5.159495999999999,13.60481147102794,0.0709199791921301
5.16184,13.584514716025792,0.0708702955221481
5.1641840000000006,13.564590048075978,0.0708316996671108
5.166523999999999,13.544525610499305,0.0707962822673993
5.1688600000000005,13.526463273669048,0.0707544385799712
5.171204,13.511846059824183,0.0707127734729066
5.173548,13.49736861560618,0.0706677957167865
5.1758880000000005,13.489269560679768,0.0706149703426982
5.178232,13.487316577619463,0.0705397911578887
5.180572,13.482011019372385,0.0704821760365723
5.182924,13.4767054611253,0.0704245472769902
5.185268000000001,13.470049428437862,0.0703782082589081
5.187616,13.465907353176036,0.0703337103450377
5.189968,13.468562976086382,0.0702718320701052
5.192308000000001,13.468936958996588,0.0702228336587451
5.194652,13.468240006720157,0.0701785953875269
5.196996,13.471407486309696,0.070125051863138
5.199339999999999,13.471641699593045,0.0700793544205612
5.20168,13.475368257690029,0.0700128987372727
5.204027999999999,13.47816365022723,0.069947800614976
5.206372,13.48403207869749,0.0698716545300756
5.208715999999999,13.489248880861693,0.0697906470018633
5.211064,13.494325913399033,0.0697129106996329
5.213404000000001,13.501405046682793,0.0696288360933964
5.215756000000001,13.511696985526466,0.0695307722566834
5.2181,13.521337298064084,0.0694276083295862
5.2204440000000005,13.534981812094532,0.0693123827771613
5.222788,13.544901663885868,0.0692032715422387
5.225123999999999,13.548535674184237,0.0691192748888443
5.227468,13.55202991485574,0.0690381019618325
5.22982,13.556455321087023,0.0689555628329449
5.232151999999999,13.561811892878088,0.0688716707482924
5.234496,13.564514737616674,0.0687888523948624
5.236839999999999,13.566286416795482,0.0687077100361236
5.239188,13.56791832634743,0.0686297003544657
5.241528000000001,13.571552336645794,0.0685456306506759
5.243867999999999,13.572113311011105,0.0684723900706568
5.246216,13.570672184629998,0.0684050522316917
5.248556000000001,13.568811749368312,0.0683475128428139
5.250907999999999,13.568162018920123,0.0682819759340965
5.253252,13.567512288471937,0.0682165486494586
5.255592,13.567514184329806,0.0681562436893307
5.257928,13.566864453881616,0.0680908476118728
5.2602720000000005,13.568356593806705,0.068016376999383
5.26262,13.565425223358377,0.0679634864329285
5.264963999999999,13.56263362253691,0.0679073064713379
5.267303999999999,13.554906654662831,0.0678643479464127
5.269648,13.545968981975255,0.0678291227298747
5.271991999999999,13.540523654101316,0.0677736676346226
5.274328000000001,13.542435102906984,0.0676895038910403
5.276672,13.542623990219957,0.0676048440977138
5.279016,13.540019380853597,0.0675241541073233
5.281356000000001,13.540348037793429,0.0674362071882598
5.2837,13.538674593986846,0.0673541529046181
5.286044,13.539003250926678,0.0672662453711865
5.288392,13.536258871933454,0.0671886835248924
5.290732,13.534864967380592,0.0671001166356477
5.293075999999999,13.53947736506698,0.0669940851611195
5.29542,13.544369302007087,0.0668818836287033
5.297772,13.552985901186307,0.066764809147688
5.300115999999999,13.559460629992252,0.0666567488585855
5.30246,13.563002092492,0.0665556633350224
5.3048,13.567334950924666,0.0664564894572556
5.307136,13.567663607864494,0.066368837078407
5.309483999999999,13.570273904804464,0.0662689465944032
5.311828,13.574746532863992,0.0661666144180395
5.314171999999999,13.584294297602993,0.066048679936614
5.316516,13.597334407155628,0.0659110854723613
5.318856,13.60394890558843,0.0657997902730526
5.321199999999999,13.608561303274817,0.0656947803812648
5.323532,13.615967197640538,0.065586330746915
5.32588,13.628168689432012,0.0654689106315209
5.328227999999999,13.63850785010393,0.0653540191473994
5.330572,13.650057715589346,0.0652316665282942
5.33292,13.659885019582063,0.0651086018773196
5.3352640000000005,13.673716525067617,0.0649746138413456
5.337604000000001,13.688479196112947,0.0648398527110079
5.339948,13.700448370478943,0.0647090843181913
5.342295999999999,13.710275674471664,0.064587019332404
5.344644000000001,13.718659956225409,0.0644583577736264
5.346976,13.728534482046372,0.0643161021736863
5.3493200000000005,13.742552978987028,0.0641602130356953
5.351668,13.757782180741184,0.063997298321352
5.354008,13.776084418428397,0.0638250004335331
5.356356,13.795317821675384,0.0636520083783223
5.358696,13.81054702342954,0.0634893607195292
5.361044,13.820840858131085,0.0633385929023988
5.363387999999999,13.83406795913882,0.0631825646217223
5.365727999999999,13.857724872759224,0.0629918249206483
