Time,Force,Position
7.966747999999999,6.958986370234318,0.1503347005918524
7.969092,7.038448932892358,0.149943035521053
7.971436000000001,7.118285478460605,0.1494685909981693
7.97378,7.197425071752416,0.1489276472353137
7.976132,7.274005381648239,0.1483395218723251
7.978472,7.347327560013772,0.1477548061614446
7.98082,7.415249736475739,0.1471985696024864
7.983164,7.481915882153832,0.1466083428121076
7.985516,7.541971321114861,0.1460927719165488
7.987856000000001,7.595788140411161,0.1456568137034475
7.9902,7.647230771908707,0.1452397039266413
7.99254,7.696019676353779,0.1448489355135278
7.994876,7.743924637067316,0.144441338214896
7.997228,7.794390777034709,0.1439792788080428
7.999568,7.84713855700224,0.14347525234241
8.00192,7.890295142118267,0.1431054201256029
8.004264,7.932660331301378,0.1427461821944749
8.006608,7.975444829365068,0.1423681925456886
8.008944,8.02330446410823,0.1419173502109353
8.011284,8.071164098851394,0.1414693540538701
8.013632,8.118092568034777,0.1410341323925111
8.01598,8.159294274232632,0.1406819014423979
8.018316,8.193558512631457,0.140430073384942
8.02066,8.224889484724088,0.1402206552515302
8.023007999999999,8.257011852749637,0.1400096487750559
8.025344,8.286340724095849,0.1398318256083524
8.02768,8.320232875442336,0.1395750562004925
8.030024,8.35133153010949,0.1393518813283673
8.032368,8.381359249590005,0.1391475436974874
8.034704,8.410595573137602,0.1389462346674945
8.037048,8.441182371125555,0.1387178607479736
8.039396,8.4788464065394,0.1383967728522732
8.041732,8.517022298632442,0.1380911578733148
8.04408,8.554639112218045,0.1378149880298257
8.046424,8.592395695430504,0.1375366301909567
8.048767999999999,8.636018811255356,0.1371876975476602
8.051108,8.678059135214372,0.1368489410900296
8.053448,8.718376897680688,0.1365243222849877
8.0558,8.75804303384095,0.1362045152729762
8.058132,8.797197313322012,0.1358777968450987
8.060484,8.837841836870295,0.1355201265738049
8.062828,8.876903568552741,0.1351703512622565
8.065172,8.91559321318285,0.1348043346072636
8.067508,8.954841936320399,0.1344175567959449
8.069852,8.992787406845833,0.1340282757562146
8.072196,9.034225222184904,0.1335869248311542
8.074532,9.07314908009836,0.1331659510354588
8.076876,9.111421311705758,0.1327428798041088
8.07922,9.14866982995476,0.1323045343762552
8.081555999999999,9.18833975783076,0.1318271305136626
8.083892,9.224564562721367,0.1313751315662092
8.086236,9.254410978320388,0.1309819979941776
8.088583999999999,9.279741335747373,0.1306277184817616
8.090916,9.301906109442688,0.1302854662096171
8.09326,9.321696695339249,0.1299534079807148
8.095604,9.337902388623556,0.1296500833048457
8.097944,9.352385520415169,0.1293580871948017
8.10028,9.369290061833777,0.1290284745257304
8.102628,9.378885048401015,0.1287594294189946
8.104968,9.386617703848705,0.1285069036153077
8.107308,9.392627797803694,0.1282660230729267
8.109652,9.396915330265989,0.1280353692246126
8.111996,9.403344733101552,0.1277775960384052
8.114336,9.403907603324734,0.1275791419839208
8.116672,9.400745811308798,0.1274127998262283
8.119012,9.38892399000114,0.1273303457643849
8.121356,9.373237736827503,0.1272855987957145
8.161428,8.947774702039322,0.1272238527898586
8.163808,8.919705653192722,0.1272015450189776
8.166212,8.896571971398732,0.1271268370412069
8.1686,8.87329851997788,0.127058391558976
8.17098,8.845461788556754,0.1270578290708475
8.17338,8.820186236389487,0.1270105120358714
8.175768,8.79383974903558,0.1269767788609628
8.178148,8.768564196868315,0.1269279699565801
8.180544,8.746082141380384,0.1268540069161993
8.182936,8.725462417012007,0.1267630065905207
8.185316,8.704702923016772,0.1266772119744571
8.18772,8.686597156074011,0.1265724075070443
8.190108,8.669282785064167,0.1264646880135864
8.192487999999999,8.657695177039853,0.1263010766608731
8.194884,8.648109669761958,0.1261145655941074
8.197272,8.640293945805002,0.125884042609713
8.199652,8.633409387407825,0.1256443014316619
8.202056,8.632251591996177,0.1253487372657223
8.204444,8.63002286139789,0.1250672856263882
8.206824,8.633940202665714,0.124711679243764
8.20922,8.633573803186986,0.1244124617835857
8.211604,8.63092576370812,0.1241477308844614
8.213988,8.627346558669474,0.1238910220848255
8.216384,8.624978058444325,0.1236130257831981
8.218772,8.623820263032679,0.1233134086698449
8.221152,8.61651639575492,0.123086622726986
8.223548,8.612937190716275,0.1228267858477721
8.225935999999999,8.60814728086413,0.1225870412483246
8.228316,8.603357371011986,0.1223473298595627
8.230716,8.595634194853647,0.122137549149879
8.2331,8.586700313881808,0.1219474833561582
8.235479999999999,8.575904101790414,0.1217732805670603
8.237876,8.56510788969902,0.1215986142539573
8.240264,8.548724684248956,0.1214727832922955
8.24266,8.529128673238976,0.1213894645266974
8.245056,8.510044518908192,0.1213149233598948
8.259384,8.351308280905092,0.1212957966618779
8.261772,8.324262945416885,0.1212722880598907
8.264152,8.30229274660815,0.1211883598341703
8.266548,8.282604187799555,0.1210693514490128
8.268936,8.268130535297288,0.1208851710168188
8.271316,8.248069889436355,0.1207486042273013
8.273716,8.228428552455998,0.1205928676579151
8.276104,8.208275358796447,0.1204256895349055
8.2785,8.193337071443228,0.1201936004845819
8.280896,8.181891128903644,0.1199068090040034
8.283284,8.174589157483753,0.1195696641913235
8.285664,8.166216250877223,0.119245576067321
8.28806,8.161568006509809,0.1188887858323374
8.290448,8.158130466955893,0.1185100281810391
8.292832,8.15161989146892,0.1181671263536879
8.295228,8.147763043034422,0.1178072280104364
8.297616,8.153776928705149,0.117344979552678
8.299996,8.169382009227379,0.1167935540070385
8.302392,8.18470755049589,0.1162556097865159
8.30478,8.203897523630372,0.1156823022084617
8.307164,8.221737022324497,0.1151337442683452
8.30956,8.236875572137903,0.1146370059522147
8.311944,8.249732481951172,0.1141780445965711
8.31434,8.263241018070499,0.1137257262205241
8.316736,8.27539907974947,0.1132994960996654
8.319124,8.294215069973745,0.1128162516880055
8.321504,8.31354291687722,0.1123445701095703
8.3239,8.336176117139228,0.1118653139604238
8.326288,8.354246037400959,0.1114520912892746
8.328672,8.367752677662418,0.111103311918886
8.331068,8.381119548297017,0.1107628738326785
8.333456,8.398490620424448,0.1103834743711173
8.335836,8.418794958858076,0.1099804443546506
8.338232,8.442963729157675,0.109545553054825
8.34062,8.470345305017194,0.1090729963565085
8.343,8.496516176063212,0.1086222216534821
8.345396,8.516680744869978,0.108233362097352
8.347784,8.532049716250993,0.1078871341449515
8.35018,8.545556356512453,0.1075535795295113
8.352576,8.556921126400635,0.1072461689560299
8.35496,8.57215032815479,0.1069077455345965
8.357344,8.588730004349305,0.1065446603263175
8.35974,8.602236644610763,0.1062125025729638
8.362132,8.61653468080514,0.105881822867012
8.364512,8.63469714886549,0.1055219874281514
8.366908,8.648715645806146,0.1052059674867656
8.369296,8.662734142746803,0.1048905198311106
8.37168,8.67046679819449,0.1046405700790126
8.374076,8.681412259202089,0.1043550877969813
8.376464,8.700505892822218,0.1039938703428531
8.378848,8.721182318308184,0.1036349728367914
8.381244,8.742510370100206,0.1032850147340334
8.383632,8.759834220399394,0.102971697120682
8.386016,8.777018301071724,0.1026667507038302
8.388412,8.793131446557414,0.1023744832787684
8.390804,8.810734836110322,0.102056922020783
8.39318,8.830200556782788,0.1017288032303766
8.395584,8.848735111895477,0.1014068084972466
8.397968,8.872344803687637,0.1010425992438999
8.400348,8.899027531412854,0.1006540436897331
8.402744,8.926269337645511,0.1002480932183444
8.405128,8.95616487093064,0.0998332421248043
8.407524,8.990995771268384,0.0993828876396365
8.409928,9.021170843807235,0.0989593149387841
8.412312,9.04855241966675,0.0985546019501443
8.414688,9.078215635526403,0.0981248170003256
8.417084,9.112022822505752,0.0976630287766398
8.419468,9.15346632541843,0.0971255834764704
8.421848,9.19411843239819,0.096590936019297
8.424244,9.22969540269848,0.0961024060568252
8.426628,9.263689581132928,0.0956175963900545
8.429008,9.295169802141764,0.0951403948185443
8.431424,9.32678979277746,0.094658015958714
8.433807999999999,9.35733884822652,0.0941885914752243
8.436188,9.389890004421996,0.0937077111603512
8.438592,9.420299290244191,0.0932493423956372
8.44098,9.448846244946836,0.0928009960175783
8.443356,9.48032646595567,0.0923362417858378
8.44576,9.50966481659123,0.0918946336395268
8.448148,9.536209670547452,0.0914695206487739
8.450528,9.562335215623095,0.0910631407941147
8.452932,9.585946803273126,0.090661253648795
8.455316,9.607044433497542,0.0902649419832764
8.457696,9.634288135588069,0.0898258093804651
8.4601,9.659809276185898,0.089390305870634
8.462488,9.682257380850672,0.0889773596536081
8.464868,9.695765916969998,0.0886206952794463
8.467264,9.703268150850077,0.088304189090756
8.469652,9.71277248547657,0.0879764981449569
8.472032,9.722835898610503,0.0876303297552104
8.474436,9.726893009505188,0.0873207598198653
8.47682,9.730158724466955,0.0870104597300302
8.4792,9.737568410548416,0.0866719467306057
8.481603999999999,9.741672743271344,0.086333872843166
8.483988,9.743914744874717,0.0860043809193956
8.486368,9.746576055358666,0.0856611408190468
8.488771999999999,9.751658775469616,0.0852922335453398
8.49116,9.753156602968312,0.0849334614506792
8.49354,9.752000703414533,0.084580557321439
8.49594,9.750844803860751,0.0842280135909743
8.498328,9.74624378132158,0.0838801309084669
8.500708,9.742573924342183,0.0835287581201265
8.503112,9.737972901803014,0.0831807413621204
8.5055,9.727365577024589,0.0828668526978868
8.50788,9.71969151855236,0.0825381728505796
8.510276,9.712436768960714,0.082194356648423
8.51266,9.71346996160845,0.0817960750736261
8.515044,9.71585362869655,0.0813799257616119
8.51744,9.715304029478457,0.0809789716211792
8.519824,9.714614660633496,0.0805832757788914
8.522204,9.72100252921443,0.0801464516504201
8.524608,9.723246426675672,0.079734084983299
8.526992,9.723208684136772,0.0793439598692645
8.529372,9.725824668650343,0.0789488673728531
8.531768,9.72471599092481,0.0785647195849086
8.534156,9.719323572452716,0.0782100508104629
8.536536,9.713931153980626,0.0778563320432564
8.538931999999999,9.711332232187871,0.0774939867910986
8.54132,9.710735411141536,0.0771210446217496
8.543716,9.707345093415858,0.076755832440164
8.546111999999999,9.702604301249828,0.0764059109359493
8.5485,9.698003278710654,0.0760515991054875
8.55088,9.694333421731262,0.0756945490490274
8.553288,9.693736600684923,0.0753194583192421
8.555672,9.68992697407867,0.0749662142067002
8.558052,9.689702240084667,0.0746074558180605
8.560456,9.684262599784338,0.0742807226493433
8.562844,9.676401549857006,0.0739764627195746
8.565224,9.6676093343699,0.0736739436483628
8.567628,9.653881751830175,0.0733918030176305
8.570012,9.638291838170902,0.0731147553618011
8.572392,9.62563519081782,0.072823970345358
8.574788,9.606460384546288,0.0725488670567909
8.577176,9.585423247155202,0.0722777085769406
8.579556,9.563035635323756,0.07202078967323
8.581956,9.546794095358422,0.0717298069815681
8.58434,9.526408584273394,0.0714614676126856
8.58672,9.504532829121146,0.0712139691851481
8.589116,9.48051520359562,0.0709794385053804
8.591504,9.455426642883456,0.0707500813255137
8.593884,9.43154878698479,0.0705076407540923
8.596288,9.404597895153069,0.0702801679674613
8.598676,9.37550513294807,0.070065427494939
8.601056,9.345341435556437,0.0698563995654801
8.60346,9.31545727741852,0.0696366572424239
8.605844,9.284921492974547,0.0694089235318811
8.608224,9.25159221185124,0.0691856720662714
8.610619999999999,9.22347783703426,0.0689320157690431
8.613008,9.19722579333684,0.0686730686618052
8.615388,9.174698411878534,0.0684042085221158
8.617792,9.148306598554257,0.0681465311032954
8.620176,9.127921087469227,0.0678625696753553
8.62256,9.113402108996588,0.0675555898790798
8.624956,9.096741260150672,0.067260110276769
8.627343999999999,9.089159749477062,0.0669232682016272
8.629724,9.075432166937343,0.0666160381060323
8.63212,9.0626357499574,0.0663053805374999
8.634508,9.047604914805564,0.0659801551733826
8.636887999999999,9.033505245213508,0.0656520349578327
8.63928,9.02527210823384,0.0653028859827379
8.641664,9.020903403120146,0.0649421270979103
8.644048,9.019328194685786,0.0645753222912525
8.64646,9.017473446997707,0.0642167742195573
8.648844,9.015618699309629,0.0638578589578962
8.651224,9.014555347554468,0.0635012948468355
8.65362,9.007997550239253,0.0631808276307553
8.656004,9.009168616655982,0.0628374926591241
8.658384,9.0071268775128,0.0625140088260503
8.660788,9.002151872063422,0.062199138038678
8.663172,8.997968262546962,0.0618873419134594
8.665552,8.998160941575673,0.0615769422934005
8.667964,8.993138714298052,0.0612940382740359
8.670352,8.988907882953349,0.061014936868227
8.672728,8.99375638978095,0.0607007586524113
8.675124,8.99245882474244,0.0604143159922323
8.677508,8.997958957876104,0.0601096238222428
8.679888,9.004530026196402,0.0597985677436623
8.6823,9.012544116755675,0.0594984794081493
8.684688,9.019347502501454,0.0592084125809186
8.687068,9.023077852314175,0.0589321494153623
8.689468,9.021593295820562,0.0586803545943613
8.691856,9.022110840073369,0.0584224573618645
8.694236,9.022768153953034,0.0581589292200509
8.69664,9.024868490071675,0.0579075768870333
8.699024,9.026829056563455,0.0576606373380981
8.701404,9.036006630107988,0.0573831956841972
8.703808,9.039969297346186,0.0571301669944098
8.706192,9.04579429570394,0.0568756032561554
8.708572,9.055064417047088,0.0566263883509882
8.710964,9.064334538390236,0.0563775191401767
8.713352,9.071882098240687,0.0561262018893321
8.715743999999999,9.08064036290464,0.0558649225064987
8.71814,9.086977217941593,0.0556242452857665
8.720528,9.085817526672074,0.0554227333851079
8.722904,9.086659936148973,0.0552147630382481
8.725308,9.0824272089464,0.0550247615683637
8.727696,9.080708439169442,0.054842038070046
8.730076,9.077918734205848,0.0546641298438846
8.73248,9.078481604429026,0.0544656644673184
8.734864,9.07983587058512,0.0542711044453607
8.737244,9.085194338234055,0.0540645053383077
8.739648,9.086548604390153,0.0538699124333413
8.742036,9.090044740919526,0.0536647677027213
8.744412,9.08888504965001,0.0534619868192253
8.746815999999999,9.093871430246605,0.0532386897542362
8.749204,9.092711738977089,0.0530370907669798
8.75158,9.095696018827264,0.052819984449392
8.753988,9.097469593863943,0.0526128672437806
8.756372,9.095658276288368,0.0524027000562171
8.758752,9.093986728339654,0.0521880975411325
8.761156,9.0912442452043,0.0519779265651074
8.763544,9.085288956509032,0.0517820566066069
8.765924,9.077750875947926,0.0515769810925998
8.76832,9.072494435386956,0.0513569780126056
