Time,Force,Position
8.314867999999999,7.769409499500527,0.1427124410829364
8.317255999999999,7.844310678016157,0.1424232792592505
8.319636,7.913579537202746,0.142141133219887
8.32204,7.977216077060289,0.1418575371530056
8.324423999999999,8.037362167962065,0.141540162383352
8.326804,8.086009406922408,0.1413031336632115
8.329203999999999,8.135030628792958,0.1409819480132052
8.331587999999998,8.18628816469327,0.1405571487649401
8.333972,8.232844546824317,0.1401273087070518
8.336367999999998,8.26669137220043,0.1398023600441662
8.338755999999998,8.302494972352587,0.1393902287648799
8.341135999999999,8.336623232840292,0.1389611919594802
8.343532,8.367493361797706,0.1385216350201559
8.345915999999999,8.39440651109053,0.1381043588577303
8.348315999999999,8.422949674077433,0.1376472326712162
8.350712,8.451400289265719,0.1371644227640793
8.3531,8.480689522215165,0.1366477296855516
8.355479999999998,8.50639386255236,0.1361665392866343
8.357876,8.528233771023578,0.1357294494282691
8.360263999999999,8.549933909867939,0.1353027066023964
8.362644,8.564324493860934,0.1349499348953451
8.365039999999999,8.582579509719901,0.1345563628111506
8.367427999999999,8.59776148964581,0.1342031225617753
8.369807999999999,8.620160476624473,0.1337579298342866
8.372203999999998,8.638555262110302,0.133361212577864
8.374592,8.666029385768436,0.1328523194425628
8.376987999999999,8.690430473493514,0.1323866979494742
8.37938,8.709616654912258,0.1319938264529258
8.381768,8.72358793002467,0.1316692181657521
8.384148,8.738490370696862,0.1313332597953121
8.386548,8.747246739502943,0.1310778538283957
8.388936,8.75456008607005,0.1308235165225639
8.391316,8.762664828570072,0.1305670836023493
8.393711999999999,8.767696535137038,0.1303488522656081
8.47974,8.505208153128136,0.1301609428801569
8.482128,8.498644668239312,0.1301603965427901
8.484507999999998,8.506654967082849,0.129972804711407
8.486899999999999,8.517598532232581,0.1297530905211884
8.489287999999998,8.527890471076255,0.1295314075362987
8.491667999999999,8.545818725853259,0.129201340949864
8.494064,8.566028620630401,0.1288366876904225
8.496452,8.585586889101485,0.1284656219007065
8.498831999999998,8.609009589438541,0.1280541277909489
8.501228,8.627496922722985,0.1277000143062067
8.503616,8.64584448638057,0.1273520967055
8.506011999999998,8.662189949291738,0.1270301587356076
8.508408,8.671178635523297,0.1268019040367535
8.510796,8.685102688807465,0.1265198476668606
8.513176,8.700469764330611,0.1262389369289105
8.515576,8.71984104134659,0.1259125395251601
8.517964,8.741354188735848,0.1255548788782269
8.520344,8.75979430019205,0.1252374903562002
8.522739999999999,8.780748369073866,0.1249065906460032
8.525123999999998,8.800491733142184,0.1245948794897992
8.577687999999998,8.536972054343405,0.124580745296646
8.580087999999998,8.521797657848971,0.1245341441421141
8.582476,8.507833966168034,0.12446692351389
8.584855999999998,8.496803540793293,0.1243686841644812
8.587252,8.488985920978468,0.1242272502493017
8.58964,8.482518775604,0.1240594623565833
8.59202,8.474980695042897,0.1239059087986443
8.59442,8.472377981534402,0.1236996560325355
8.596803999999999,8.466562462465996,0.123535105019878
8.599184,8.460607173770727,0.1233760649118204
8.601579999999998,8.45958725212807,0.1231635965772559
8.603967999999998,8.455913603432938,0.1229706995673862
8.606364,8.452239954737806,0.1227767560155765
8.608759999999998,8.454432838655064,0.1225221206866875
8.611144,8.460490154438297,0.1222285094988349
8.613523999999998,8.464545369475113,0.1219575586187179
8.615924,8.470323146004626,0.1216758144135746
8.618307999999999,8.478754649586612,0.1213764905158729
8.620691999999998,8.48611521798196,0.121092905768493
8.623088,8.492125311936949,0.120835197194061
8.625471999999998,8.503722399250606,0.1205301329083112
8.627856,8.51769367436302,0.1202200867479062
8.630247999999998,8.53217680615463,0.1199209608141354
8.632636,8.54824272981208,0.1196192821186075
8.635031999999999,8.56216678309625,0.1193456993002792
8.637427999999998,8.570875930074088,0.1191340523155947
8.639816,8.580376472984842,0.1189211560949728
8.642199999999999,8.585872814402762,0.1187521125160638
8.644604,8.60016895473927,0.1184968401859466
8.646987999999999,8.623404663621224,0.11815306925563
8.649367999999999,8.645289898062819,0.1178365966489445
8.651767999999999,8.665405349183473,0.1175637270566512
8.654152,8.691247563289657,0.1172411104695181
8.656536,8.71387697183593,0.1169606025042788
8.658931999999998,8.736506380382197,0.1166818389922549
8.661319999999998,8.760718580794302,0.11640045005451
8.663699999999999,8.786141486019906,0.1161012629053688
8.666096,8.809702060125954,0.1158179098966321
8.668479999999999,8.831120763858726,0.11556070764864
8.670863999999998,8.854541568337911,0.1152836612961836
8.673259999999999,8.873818401697406,0.1150533263647976
8.675647999999999,8.894305939870396,0.114806944591499
8.678031999999998,8.914141851737334,0.1145570245891422
8.680428,8.931324036551793,0.1143229716374915
8.682815999999999,8.952370653232224,0.1140567900751376
8.685211999999998,8.979563341778768,0.1137258640101308
8.687607999999999,9.00768719588509,0.1133901508050598
8.689995999999999,9.036462676297472,0.1130586548934515
8.692379999999998,9.06137372484388,0.1127643403959729
8.694776,9.077205435217978,0.1125609921218154
8.697163999999999,9.09438762003244,0.1123359323898385
8.699544,9.112920279287255,0.1120883430463914
8.701944,9.12945083779566,0.1118611992310864
8.704327999999999,9.144910461117425,0.1116458037713469
8.706712,9.160090545185463,0.1114421903138569
8.709107999999999,9.175550168507227,0.1112286028230523
8.711495999999999,9.191009791828993,0.1110161564099072
8.71388,9.20940268145695,0.1107806931523954
8.716275999999999,9.2331502470181,0.1104889725052164
8.718663999999999,9.256897812579252,0.1101985170387807
8.721048,9.281995852580764,0.109885531378685
8.723443999999999,9.304300395902938,0.1095932529959462
8.725836,9.328467270344673,0.1092902964731205
8.728216,9.35370507997304,0.1089760129094739
8.730607999999998,9.37815149366849,0.1086658089973801
8.732995999999998,9.401387202550442,0.1083741551075329
8.735375999999999,9.425181989939835,0.1080644442918663
8.737767999999999,9.44897677732923,0.1077547334761998
8.740155999999999,9.470769463972204,0.10746246934693
8.742551999999998,9.497777056921514,0.1071213949890657
8.744947999999999,9.519989052445071,0.1068150394863455
8.747331999999998,9.540338716849073,0.1065209111998363
8.749711999999999,9.560036754947015,0.1062232241040562
8.752116,9.585089468978152,0.1058733823304476
8.754503999999999,9.610841031143588,0.1054998293841975
8.756884,9.638874233309162,0.1051032755744023
8.759279999999999,9.667186974728455,0.1046988995803875
8.761667999999998,9.691914823535496,0.104313415092636
8.764047999999999,9.711287996409345,0.1039824347958179
8.766452,9.731080478163772,0.1036380210402598
8.768835999999999,9.751152499171925,0.1032845190811439
8.77122,9.769362189060516,0.1029413364931082
8.773611999999998,9.78692025264305,0.1025955659034214
8.776,9.806759956225722,0.1022263843741544
8.778395999999999,9.821664292755782,0.1018930945991561
8.780791999999998,9.837919103726202,0.1015416973866882
8.78318,9.848959008390288,0.1012357950140816
8.785559999999998,9.860697761188677,0.1009057823764259
8.787956,9.8759288588007,0.1005373246207597
8.790339999999999,9.885153654173472,0.1002140859982798
8.79272,9.90010521253178,0.0998566939360695
8.795115999999998,9.91812980682314,0.0994759525608298
8.797503999999998,9.93922743704755,0.0990734298896383
8.7999,9.953247829846076,0.0987253566553466
8.802295999999998,9.965126352271325,0.0983973972365958
8.804683999999998,9.97286090357688,0.0981041247538548
8.807063999999999,9.979384750068938,0.0978258804351945
8.809467999999999,9.986979531747632,0.0975384136914796
8.811855999999999,9.996064557493543,0.097227169802285
8.814236,10.003287252119902,0.0969257892699081
8.816631999999998,10.00957878118648,0.0966292586015524
8.819016,10.019874511745892,0.0963055422779493
8.821399999999999,10.026166040812472,0.0960092599665045
8.823796,10.031107095438692,0.0957330557695653
8.826184,10.042194221931023,0.0954117831153865
8.828563999999998,10.053281348423353,0.0950926601878069
8.83096,10.068372676408517,0.0947464368090175
8.833347999999999,10.085977961819298,0.0943988238018881
8.835728,10.101301607229937,0.0940755984145576
8.838131999999998,10.119838058200497,0.0937251774161876
8.840516,10.13264774618552,0.0934052819207875
8.842896,10.142524167864352,0.0931035627285583
8.845299999999998,10.147325452863711,0.0928372195993204
8.847684,10.157481413796264,0.0925274467828222
8.850067999999998,10.169639475475234,0.0922055665799743
8.852464,10.181006141221284,0.091882573208108
8.854852,10.19572538215411,0.0915309577515043
8.857232,10.210584392713796,0.0911757755907953
8.859635999999998,10.22251013696729,0.0908366743147854
8.862023999999998,10.235367046780562,0.0904941131742168
8.864403999999999,10.251157222900028,0.0901366978578616
8.866803999999998,10.262151801593738,0.0898034713060446
8.869191999999998,10.278221516966926,0.0894378145636191
8.871571999999999,10.291917044541355,0.0890702572591631
8.873968,10.301887909876674,0.0887194545221976
8.876356,10.30734271703996,0.0883829915199411
8.878735999999998,10.313216833083828,0.0880342487062655
8.881143999999999,10.316576991702078,0.0876888092451152
8.883527999999998,10.318214588827637,0.0873457542918967
8.885912,10.321854286699608,0.0869923438136644
8.888307999999999,10.329917494945,0.0866025979847006
8.890695999999998,10.336397911324552,0.0862099931194127
8.893075999999999,10.345299737331102,0.0857924872992341
8.895472,10.348195261098397,0.085408904366584
8.89786,10.351230554492556,0.0850221521693131
8.900239999999998,10.35640771825999,0.0846196312904915
8.902636,10.35278508310884,0.0842597835967586
8.905024,10.34809151277105,0.0839076414117278
8.907419999999998,10.346470978366318,0.0835361446457798
8.909816,10.346852544708003,0.0831548607235046
8.912199999999999,10.343090139929991,0.082799908577695
8.914584,10.344263102204591,0.0824203631289776
8.916979999999999,10.343713502986498,0.0820438800700801
8.919363999999998,10.34474669563424,0.0816698040823311
8.921748,10.342706852348924,0.0813124390884298
8.924143999999998,10.344391671302724,0.080942778239738
8.926528,10.340861583950192,0.0806051974157276
8.928908,10.332396129545046,0.0802901615155404
8.931303999999999,10.32365113588618,0.0799829917620643
8.933687999999998,10.308899839988063,0.079706398941529
8.936084,10.291727134462947,0.0794530732975678
8.938479999999998,10.27692861673659,0.0792035259526706
8.940867999999998,10.261571020502789,0.0789714244787658
8.943247999999999,10.24886715132146,0.0787341421278126
8.945647999999998,10.23309024620708,0.0785138709409392
8.948032,10.21624240590606,0.0783003250845687
8.950427999999999,10.207914825269905,0.0780565134347576
8.952824,10.19837653982025,0.0778237325352922
8.955212,10.18748777993024,0.0776067438774097
8.957591999999998,10.172594818547394,0.0774093173633109
8.959995999999999,10.158772792351186,0.0772041420214203
8.962383999999998,10.140946564662142,0.0770182366217223
8.964768,10.12149032327902,0.0768565722927082
8.967163999999999,10.10231362114962,0.0766855973092957
8.969548,10.087932516445967,0.0764965017447043
8.971927999999998,10.070059066928684,0.0763368662795896
8.974327999999998,10.05712098446401,0.0761549370621914
8.976712,10.050701060917785,0.0759545406408561
8.979092,10.045212302931342,0.0757510861622623
8.981492,10.04358797681087,0.0755323206678121
8.983875999999999,10.04168411143668,0.0753221413315821
8.986256,10.038988850129568,0.0751099556360983
8.98866,10.03536242326268,0.0749001597547116
8.991043999999999,10.03587996751548,0.0746676713986456
8.993428,10.036257742141425,0.0744389265644112
8.995823999999999,10.037287143073428,0.0742165937088036
8.998207999999998,10.032310241766178,0.0740222480820694
9.000592,10.030266606765126,0.073816125344512
9.002996,10.031156238070269,0.0735987388624185
9.005384,10.03176633012169,0.0733895311503853
9.007763999999998,10.035169918852448,0.0731736671131192
9.01016,10.038293968329484,0.0729660089794727
9.012548,10.039555686686969,0.0727623444836764
9.014928,10.040258326537003,0.0725766338567383
9.017324,10.03760839120027,0.0724155546480777
9.019711999999998,10.035237995117251,0.0722450151644729
9.022108,10.035661095713571,0.0720685507479931
9.024504,10.034082095563472,0.0719014229976677
9.026891999999998,10.03543636171957,0.0717235053303096
9.029272,10.036650858248809,0.071550129185027
9.031668,10.038936289964685,0.0713701097819937
9.034056,10.044946383919672,0.0711820580821116
9.036435999999998,10.053098348247936,0.0709813434331641
9.038832,10.056966571829651,0.0708071589124849
9.04122,10.062697126530924,0.0706286465731412
9.0436,10.068287911605328,0.0704546328051508
9.046,10.079884998918986,0.0702555590544953
9.048388,10.087338115112953,0.0700775110566384
9.050768,10.091997734627585,0.0699060061094509
9.053164,10.101592721194825,0.0697162427967028
9.055552,10.108254441455871,0.069537217211963
9.057932,10.119711759142673,0.0693444761805121
9.060339999999998,10.137035609441858,0.0691318190801055
9.062724,10.151426193434856,0.0689287217491763
9.065108,10.168889813360902,0.0687111390124352
9.067504,10.19221996589934,0.0684745944142915
9.069892,10.209543816198533,0.0682633681551266
9.072271999999998,10.22686766649772,0.068052548978947
9.074668,10.242329185677352,0.0678464385938572
9.07706,10.258861640043625,0.0676349406781351
9.079439999999998,10.276465029596537,0.0674181185865908
9.081836,10.291135152843248,0.0672119675612954
9.084224,10.302452700903183,0.0670280926099878
9.086619999999998,10.31698305452304,0.066826957460452
9.089016,10.331513408142891,0.0666261691380006
9.091404,10.349396336949525,0.0664047203395955
9.093784,10.362204129076682,0.0662047822384182
9.096188,10.380366597137032,0.0659759781193031
9.098576,10.401182792249855,0.0657472977359042
9.100955999999998,10.418274325123567,0.0655260682089633
9.103356,10.440440994676752,0.0652860634247982
9.105744,10.458091606057904,0.065050348717052
9.108123999999998,10.470806850386449,0.0648310047692723
9.110528,10.490739101767735,0.0645813600805993
9.112915999999998,10.509740187589248,0.0643338676548247
9.115296,10.523526367104424,0.0641110781966184
9.117696,10.540245812925802,0.0638799568349279
9.12008,10.558036193933814,0.0636440502783384
9.122464,10.57461587012833,0.0634178721564274
9.124859999999998,10.589984841509343,0.0632018154788951
9.127248,10.607076374383055,0.0629884008107727
9.129628,10.624167907256767,0.0627753596455878
9.132027999999998,10.643541080130616,0.0625473665602316
9.134415999999998,10.662774483377603,0.0623250249084902
9.136796,10.686012088117428,0.0620910962993161
9.139192,10.705897117670474,0.0618782368483184
9.14158,10.727644478343077,0.0616627122669113
9.143959999999998,10.750834861254658,0.0614587486974926
9.146363999999998,10.774025244166236,0.0612560332386586
9.148751999999998,10.799869354130292,0.0610545727402038
9.151136,10.820638327414876,0.0608719124627983
9.153531999999998,10.846342667752069,0.0606769499157996
9.155919999999998,10.874188878462538,0.0604720770640728
9.1583,10.897891118053318,0.0602847709985986
9.160696,10.925737328763788,0.0600832509434988
9.163084,10.956144718728115,0.0598609808699023
9.165463999999998,10.986691878319304,0.0596359539910249
9.16786,11.017239037910493,0.0594121718294874
9.170248,11.053792499740933,0.0591728081015405
9.172631999999998,11.093698536758149,0.0589170591811773
9.175028,11.131090616349749,0.0586581213291271
9.177416,11.16876223519507,0.0583925480004336
9.179799999999998,11.208156415533088,0.0581303625305568
9.182196,11.243266855124553,0.0578870169714824
9.184584,11.271160287663266,0.0576690272296295
9.186964,11.29826232426906,0.0574482427619576
9.18936,11.325504130501718,0.0572240424910565
9.191748,11.346088008189064,0.0570097472827773
9.194132,11.362947223637304,0.0567989612648645
9.196528,11.375942007219562,0.056595263060974
9.198916,11.388797021174964,0.0563951764771318
9.2013,11.39722852475695,0.0562174982535284
9.203696,11.404449323525435,0.0560480961324506
9.206084,11.410599187107287,0.0558831552863221
9.208464,11.409532043636387,0.0557421898475436
9.210864,11.406834886471406,0.0556207599518168
9.213252,11.400133527813592,0.0555093270738182
9.215632,11.39208169471542,0.0554098097452165
