Time,Force,Position
12.060796,5.062119581696591,0.1665149848236677
12.063184,5.121234375808498,0.1663140821336367
12.065563999999998,5.169316848687795,0.1662074970678545
12.067968,5.208648640334618,0.1661169292294567
12.070356,5.239881377055026,0.1660458086699045
12.07274,5.269812757021188,0.1658082247473384
12.075143999999998,5.289642981314516,0.1656426170104553
12.077528,5.305051591092298,0.16546551126899
12.079912,5.310404371167623,0.1654616060253698
12.082307999999998,5.313150646018715,0.1654550363815723
12.094248,5.326045298370883,0.1653343973050488
12.096643999999998,5.332004378781891,0.1652357215910269
12.099031999999998,5.3408967254990936,0.1650683987521518
12.101412,5.348997676283378,0.1649115958141954
12.103811999999998,5.356958857440802,0.1647673241307811
12.106196,5.369995175277698,0.1644935095653195
12.10858,5.382240097181676,0.164227037522136
12.110976,5.397837594272431,0.1638621385253013
12.11336,5.414925335430403,0.1634308188731366
12.11574,5.431361450282319,0.1629968775490073
12.118136,5.447006169201316,0.1625731533518957
12.120524,5.457715521067701,0.1622700484582807
12.122903999999998,5.470287204053643,0.1619245501784939
12.1253,5.478063289613835,0.161688208168122
12.127688,5.489331719987661,0.1613437386074849
12.130067999999998,5.496456179241792,0.1611109172442177
12.132464,5.498086192935872,0.1610390707999265
12.134852,5.501718307376368,0.1609179535778167
12.137232,5.504279486630225,0.1608263240517491
12.139627999999998,5.512986737750195,0.1605772990964004
12.142015999999998,5.523137011109139,0.160321829256695
12.144412,5.53473030670706,0.1600640057535564
12.146808,5.542971027118203,0.1599054775599694
12.149196,5.553306396074383,0.1597430205726545
12.15158,5.565876183202455,0.159568635115073
12.153976,5.577886891823087,0.1594365722833594
12.15636,5.591852479361892,0.1593085295798451
12.158739999999998,5.6056310754455945,0.1592444501909287
12.161136,5.622715024887831,0.1591395030444828
12.163524,5.6461773636216535,0.1589256656266813
12.165903999999998,5.67215365978109,0.1586812632153102
12.168304,5.703856718926058,0.1583240094135181
12.170687999999998,5.739563979563858,0.157884951941315
12.173088,5.78686453579958,0.1572237737076612
12.175484,5.829601812035026,0.1566956352123394
12.177868,5.875132584949808,0.156116017001349
12.180252,5.926157803424644,0.1553963324885422
12.182648,5.9781141874592585,0.1546707631030397
12.185032,6.038730600785597,0.1537950877577233
12.187411999999998,6.094271877432463,0.1530413223603997
12.18982,6.148742218892692,0.1523155312506863
12.192208,6.200279294046724,0.1516558652044999
12.194588,6.253958239574033,0.1509494631857438
12.196984,6.30391252286223,0.1503053460018574
12.199372,6.351213079097952,0.1497074196363262
12.201752,6.39972434014717,0.1490851093840045
12.204148,6.451588176383168,0.1483892639654364
12.206536,6.500146659260633,0.1477281255868915
12.208916,6.546982580645399,0.1470944166629219
12.211316,6.589022904604414,0.1465561357567474
12.213704,6.628409501510954,0.146056322361926
12.216084,6.66635307617852,0.1455700018234029
12.21848,6.70015267972639,0.1451709242262809
12.220868,6.722638526930061,0.1449546697288805
12.223252,6.747406014133869,0.1446866374211299
12.225648,6.7707304790987,0.144422870579052
12.228036,6.7904228296230364,0.1442509885254476
12.230432,6.808392618654675,0.1441002709203717
12.232827999999998,6.818913083208089,0.1440596442828666
12.235215999999998,6.8298528566420815,0.1439948623688804
12.237596,6.842282874143293,0.1438856717684216
12.239992,6.855271970151946,0.1437454655773993
12.24238,6.870123397280156,0.1435821565766658
12.244764,6.889538104408642,0.1433216026973235
12.24716,6.90709048041757,0.1430861500938257
12.249548,6.920778424560523,0.1429106018968575
12.251928,6.933954512024281,0.142728288898237
12.254328,6.951274570607732,0.1424743930004494
12.256716,6.9700848732584015,0.1421799809076951
12.259096,6.988103779976153,0.141890649124759
12.261492,7.007473161134263,0.1415671401033983
12.26388,7.024700671919097,0.1412851725498012
12.266264,7.042627030838231,0.1409654619359436
12.268667999999998,7.0654887568099785,0.1405696092589303
12.271055999999998,7.085976294982971,0.1401891158928268
12.273436,7.109536869089018,0.1397614324807164
12.275831999999998,7.134075830583088,0.1392806139560199
12.278219999999996,7.155309438718624,0.1388240345358817
12.2806,7.172958154241908,0.1384046652542193
12.282996,7.190095013085994,0.1379750662060078
12.285384,7.205788849691103,0.1375496903931822
12.287768,7.218689189616879,0.137160193877851
12.290171999999998,7.225630449131645,0.1368248249915063
12.292559999999998,7.228055650474382,0.1365419038866217
12.29494,7.230248534391641,0.1362321313581628
12.297335999999998,7.231417704950505,0.1358991994538195
12.299723999999998,7.227139651777558,0.1356296007122181
12.302104,7.216622978939884,0.1354264237411207
12.3045,7.1995881471837615,0.1353043924899379
12.306888,7.179667270949687,0.1351833849555412
12.309272,7.154438940610663,0.1351175024174103
12.349895999999998,6.470729730305491,0.1350838272354866
12.35228,6.430140012016927,0.1350218535610667
12.354684,6.390993315967339,0.1349591384814348
12.357072,6.356642217343504,0.1348239080029132
12.359452,6.320940644279309,0.1347261732476858
12.371403999999998,6.1220377885839605,0.1346852842695033
12.373784,6.084147123318247,0.1346702168525744
12.376188,6.047699480291508,0.1346518550405523
12.378576,6.011763693943967,0.1346475833818974
12.380955999999998,5.982066527261153,0.1345685270973166
12.383356,5.960889620243204,0.1343606614055358
12.385744,5.948512512143843,0.1340079195805181
12.388123999999998,5.939720296656732,0.1336105422556183
12.390524,5.927435736355989,0.1332946912598349
12.392907999999998,5.916082341615023,0.1329651282186125
12.395291999999998,5.906311738739892,0.1326244459147727
12.397688,5.898635784409796,0.1322878260548248
12.400071999999998,5.889469586012481,0.1319986447826352
12.402456,5.8818861794810005,0.1317003400330359
12.404851999999998,5.8725329896285805,0.1314672864597559
12.407239999999998,5.868487253881111,0.1311734374087818
12.409616,5.867746871492173,0.1308544870380369
12.412024,5.87524720951438,0.1304264437549135
12.414412,5.889405476081896,0.1299014553526145
12.416792,5.902213268209053,0.129416228385695
12.419192,5.919257579254518,0.1288915404716633
12.42158,5.935603042165687,0.1284149904962121
12.423963999999998,5.952600131382912,0.1279458200092557
12.42636,5.9762551491454445,0.1273850822124513
12.428748,5.999630627654257,0.1268462207506998
12.431131999999998,6.017511660603018,0.1264252048686267
12.433528,6.0356250109772525,0.1260413785468319
12.435916,6.050246016537853,0.1257349564932549
12.438295999999998,6.06724120989721,0.125417884364676
12.440692,6.082746159189345,0.1251465017850224
12.443079999999998,6.107562764079265,0.1247612558237315
12.445463999999998,6.133030995275242,0.1243843204411469
12.44786,6.161664810202893,0.1239966395601763
12.450247999999998,6.194814683302579,0.1235662318413973
12.452628,6.2318289882682345,0.1230839943236921
12.455023999999998,6.269774458793667,0.1225986349266688
12.457411999999998,6.306509224505603,0.1221448317346897
12.459792,6.3409623502174,0.1217418844322785
12.462191999999998,6.370712426302063,0.1214426642734635
12.464579999999998,6.402696920558621,0.1211431786162558
12.466976,6.439057703360351,0.1208132648259908
12.469372,6.4788636091474725,0.1204625469716342
12.47176,6.52118347236021,0.120102084241599
12.474144,6.559219594826392,0.1198200733412116
12.47654,6.597627804344913,0.119560648201317
12.478928,6.640691841662324,0.1192529281536651
12.481308,6.682545174166236,0.1189745575791043
12.483704,6.731335974469179,0.1186068936618768
12.486092,6.783991206638093,0.1181993745509716
12.488476,6.842093662538819,0.1177443685071145
12.490872,6.89526075138693,0.1173642035281114
12.49326,6.946425739488625,0.117010785367859
12.495639999999998,6.997078870911125,0.1166499823189432
12.49804,7.04321594416159,0.1163340601142668
12.500428,7.088701391105999,0.116018928288134
12.502812,7.13204496767713,0.1157397664850138
12.505208,7.176599249061762,0.1154403291580979
12.507596,7.22357494007339,0.1150989894942806
12.50998,7.272180644779097,0.1147131221015225
12.512376,7.320554032059329,0.1143036408367627
12.514764,7.363480195607749,0.1139448009326207
12.517143999999998,7.4033805450513555,0.1135915231351128
12.519544,7.437833670763154,0.1132830638299921
12.521932,7.469772839049336,0.112984572657809
12.524311999999998,7.500548524350265,0.1126697700931427
12.526712,7.529881187412215,0.1123559163770733
12.5291,7.556699893048553,0.1120532928142262
12.531484,7.578583231632278,0.1118080671770684
12.53388,7.594739807230472,0.1116196687399456
12.536268,7.60614800723116,0.1114410757568142
12.538652,7.616904580925787,0.1112581790086414
12.541048,7.634226535367107,0.1109855378933872
12.543436,7.650477554621789,0.1107287911854779
12.54582,7.667659739436249,0.1104652557466294
12.54822,7.685773089810486,0.1101974187371408
12.550608,7.704165979438445,0.1099177436862345
12.552988,7.719765372387068,0.1096612882738569
12.555384,7.73028962865622,0.1094616357410954
12.557768,7.742024589738869,0.1092434723169003
12.560147999999998,7.75375955082152,0.1090265860300089
12.562552,7.767915921531166,0.108771421474613
12.56494,7.777928321121121,0.1085635136242093
12.56732,7.79115352627099,0.1083151775502526
12.569724,7.807731306607633,0.1080203076504171
12.572112,7.822306986197863,0.1077456445316472
12.574492,7.830224737242784,0.1075267196014186
12.576888,7.839912271608642,0.107262915030068
12.579272,7.849507258175883,0.1069683139087723
12.581651999999998,7.860872028064065,0.1066286589191689
12.584052,7.8720970283253875,0.1062953989888647
12.586436,7.880808071161094,0.1059707590352593
12.588832,7.877646279145161,0.1057625356694225
12.591228,7.871179133770694,0.1055629483328292
12.593616,7.861127095783974,0.1053846748053881
12.595996,7.844836438132527,0.1052421622554114
12.598392,7.8241694919359075,0.1051214059045482
12.60078,7.805923955366286,0.1049604769149562
12.60316,7.789448202117605,0.1047538240062562
12.605563999999998,7.767385455510253,0.1045879846439225
12.607952,7.740806650730871,0.1044496990930354
12.610332,7.707569917406179,0.1043651991832686
12.612728,7.675683658521846,0.1042545858936779
12.615116,7.64114367258504,0.1041567877608704
12.617496,7.603810189968897,0.1040776728093275
12.619899999999998,7.568898116979753,0.1039577566625872
12.622284,7.539061180670078,0.1037834025096028
12.624664,7.506802834733407,0.1036469468783882
12.627067999999998,7.474264949543016,0.103521652475613
12.629455999999998,7.439724963606206,0.1034143481223568
12.63184,7.402251711363203,0.1033335077212465
12.634235999999998,7.364126832814139,0.1032451608399801
12.63662,7.330425464638491,0.1030965419367051
12.639004,7.301939002769177,0.1028849045766453
12.6414,7.276525576832916,0.1026383556727575
12.643788,7.253905647575992,0.1023694905392759
12.646168,7.2343587542521215,0.1020649698569413
12.648564,7.209085097942723,0.101806093600706
12.650952,7.182880276073545,0.1015518847224232
12.653336,7.158677554950785,0.1012755249022535
12.655739999999998,7.141552071253913,0.1009235588508778
12.658124,7.129222184982793,0.1005290642452515
12.660504,7.118103003525172,0.1001129252275165
12.6629,7.108846153187107,0.0996823858652007
12.665288,7.099449533222183,0.0992566592442611
12.667668,7.087911042883982,0.0988566696600419
12.670068,7.074649991053085,0.098461970536323
12.672456,7.061528708849048,0.0980586875427733
12.674836,7.045753699592535,0.0976660290199443
12.677236,7.029047524776245,0.0972775068674086
12.679624,7.0164853210796485,0.0968400202100858
12.682004,7.003643578129332,0.0964132107342371
12.6844,6.98852019517888,0.0960174854364622
12.686788,6.966179805175676,0.0957009007358408
12.689184,6.943187788866417,0.0953751687053087
12.691579999999998,6.919776463676574,0.0950689534998928
12.693967999999998,6.894223268113456,0.0947874413719334
12.696348,6.874117296282148,0.0944720153222377
12.698743999999998,6.855733885943536,0.094148964277697
12.701131999999998,6.839073037097621,0.0938187279762328
12.703516,6.816917742691652,0.0935609867087578
12.705911999999998,6.791829181979488,0.0933273102158094
12.708299999999998,6.766321312386744,0.0931128580910465
12.710684,6.7378801764878045,0.0929222507280359
12.713079999999998,6.710370206148644,0.0927239308447777
12.715467999999998,6.685653732488817,0.0925057354308381
12.717848,6.659307245134911,0.0923273469612361
12.720243999999996,6.638967060020256,0.0920897667737394
12.722632,6.625145033824049,0.0918090467070922
12.725016,6.616630461732792,0.0915063110595065
12.727411999999998,6.606625645574314,0.0912366379509313
12.7298,6.599134786841453,0.0909622445921185
12.73218,6.601235122960095,0.0906168887379964
12.734576,6.608642913183686,0.0902487222748347
12.736964,6.6132099848997,0.0899395154861164
12.739348,6.618987761429211,0.0896105362067618
12.741744,6.630072992063672,0.0892614262439935
12.744135999999996,6.640878683444413,0.0889280864893326
12.746516,6.652196231504352,0.0886113001471328
12.748912,6.664305175497208,0.0882972784454196
12.7513,6.678276450609621,0.0879714367152911
12.753684,6.69355097833415,0.0876602797105079
12.75608,6.711758772364873,0.0873272471250348
12.758468,6.734482624567629,0.0869742346959809
12.760863999999998,6.7609311390094975,0.086602682125732
12.763268,6.785237783078091,0.0862570258241765
12.765652,6.816481894945711,0.0858549988325113
12.768031999999998,6.843022957186197,0.0855266551100954
12.770428,6.866071674613048,0.08525046013557
12.772816,6.883114089800647,0.0850255553687836
12.775195999999998,6.904020936854219,0.08477516533994
12.777592,6.926650345400488,0.0845226383777536
12.779979999999998,6.942202516520869,0.084334672425806
12.782363999999998,6.958825622827887,0.084136507087893
12.78476,6.983317362493713,0.0838808439085181
12.787147999999998,7.009391894025375,0.0836308549383846
12.789531999999998,7.03346432481062,0.0833991356692503
12.791928,7.053392784476172,0.0832048028830773
12.794315999999998,7.073181474514864,0.0830179800899773
12.796699999999998,7.093761560486473,0.0828347649933998
12.799096,7.1131309416445845,0.0826687912897301
12.801479999999998,7.138506625041945,0.0824574555004118
12.803864,7.163602769185587,0.0822617358478231
12.806268,7.188419374075508,0.082080885025211
12.808656,7.212676900457986,0.0819280145115299
12.811039999999998,7.241590254639357,0.0817550502717828
12.813436,7.271155235126785,0.0815948275289418
12.815824,7.303001855614352,0.0814088144383282
12.818203999999998,7.336990346475196,0.0812030434379559
12.8206,7.378195844388788,0.0809391619239268
12.822988,7.4171197023022435,0.0807043456701809
12.825367999999996,7.457254265029197,0.0804566301131863
12.827768,7.500322094062346,0.080191775160943
12.830156,7.5425985271625775,0.0799276812229113
12.832535999999998,7.584083564329891,0.0796681834637061
12.834931999999998,7.625568601497204,0.0794114920103381
12.837319999999998,7.670406213851294,0.0791243191484777
12.839703999999998,7.724323164377688,0.0787770064869025
12.842108,7.780242215650499,0.078419733464112
12.844492,7.840305238043005,0.0780388326813701
12.846871999999998,7.905722936368703,0.0776154275110791
12.849272,7.969418073201704,0.077202105161229
12.85166,8.031902505221208,0.076805674492847
12.854039999999998,8.093455771680931,0.0764147628041814
12.856436,8.15463695108832,0.0760093886607883
12.858823999999998,8.214235338629871,0.0756056304519747
12.861204,8.267595106506693,0.0752170947607658
12.863604,8.31909254326396,0.0748377840480877
12.865992,8.373011389648223,0.0744368670270672
12.868372,8.422506725659073,0.0740786249262864
12.870772,8.473632075364003,0.0736935503420931
12.873155999999998,8.521032762829819,0.0733229071856927
12.875552,8.566571119176077,0.0729599023540271
12.877948,8.610247144402779,0.0726039974613686
12.880336,8.648056637017094,0.0722779166055047
12.882716,8.68293286332521,0.0719662469762363
12.885112,8.712873722580715,0.0716816552291779
12.8875,8.740160854783745,0.071405001134232
12.889879999999998,8.764934029561163,0.0711278085792061
12.892288,8.778113908740659,0.0708975402371858
12.894676,8.786218651240679,0.0706964719240608
12.897056,8.787525695568535,0.0705229908248902
12.899452,8.786598321724494,0.0703364020595533
12.90184,8.785019321574397,0.0701423344114519
12.904224,8.779575889558323,0.0699631249728163
12.90662,8.770268025676279,0.0697985183610437
12.909008,8.76361388884671,0.0696316013607346
12.911388,8.754957651270724,0.0694741114271444
12.913784,8.738293010709068,0.0693552899214547
12.916172,8.720185347908439,0.0692256404958639
12.918556,8.699144418801612,0.0691073783438371
12.920952,8.680245360068064,0.0689739109817915
12.92334,8.657901178349125,0.0688385256720727
12.925719999999998,8.635556996630184,0.0687025265563368
12.928116,8.61363212379182,0.0685503581649162
12.930504,8.594408199834177,0.0683627471155412
12.932883999999998,8.577326146249813,0.0681602243740672
12.935284,8.550513128187085,0.0679932012749489
12.937668,8.518904512698603,0.0678406616306108
12.940048,8.491020559449236,0.067678491375861
12.942443999999998,8.460343109520533,0.0675219757082643
12.944831999999998,8.432598925898027,0.0673527962009096
12.947212,8.406856843021934,0.0671729094159018
12.949607999999998,8.37860080272023,0.0669877443671781
12.951999999999998,8.349273827231885,0.0668088121344989
12.95438,8.3200866213704,0.0666233453085788
12.956775999999998,8.28331032140383,0.06645877047174
12.959163999999998,8.245742625504342,0.0662899051234997
12.961544,8.207103994418214,0.0661274903922169
12.96396,8.169676068145584,0.065950561737741
12.966348,8.131177206686317,0.0657797196879011
12.968728,8.0866720429878,0.0656361534062446
12.971124,8.044960375968618,0.0654844300985615
12.973512,8.003248708949435,0.065331540946889
12.975891999999998,7.957113531556838,0.0652130879832541
12.978288,7.903481807857772,0.065146238856183
12.980676,7.844774947479232,0.0651047005549686
12.983055999999998,7.792865785272863,0.0650365883115436
12.985452,7.746823155678882,0.0649430822248796
12.987839999999998,7.704924497204598,0.0648232609645962
12.990236,7.667309579476865,0.0646713499997926
12.992636,7.628763496189354,0.0645201650921222
12.995024,7.5891464777152065,0.0643746448719271
12.997404,7.549249919987337,0.0642383263235126
12.999803999999996,7.509772671140049,0.0640832929918469
13.002188,7.4721577534123185,0.0639227642092939
13.004572,7.442131929789672,0.063740217638921
13.006968,7.414108206913443,0.0635466948797451
13.009356,7.392090786276466,0.0633236982146241
13.011736,7.369933596012628,0.0631050955184445
13.014139999999998,7.347636636121931,0.0628909781764157
13.016527999999996,7.33306853996318,0.0626501588424532
13.018908,7.3172897389909295,0.0624215692607007
13.021311999999998,7.303652808391956,0.0621775544722901
13.023699999999998,7.296953345592013,0.0619025792678055
13.02608,7.297470889844819,0.0615846456493349
13.028475999999998,7.298779830030543,0.0612680314799913
13.030863999999998,7.297946899842988,0.0609661385192807
13.033244,7.2928302289088816,0.0606941075882357
13.03564,7.28249865166844,0.060453769511288
13.038028,7.271328456666838,0.0602485487103786
13.040412,7.262951758344572,0.0600379984491025
13.042808,7.255226686328364,0.0598372347935677
13.045196,7.252157442111048,0.0596282457892599
13.047576,7.251462385692485,0.059431546316646
13.049976,7.250348020393342,0.0592525825162087
13.05236,7.249093885467339,0.0590800067045428
13.054744,7.2503537079669504,0.0589150287210919
13.05714,7.251473760839701,0.0587564988231566
13.059528,7.255247540764926,0.058600029911505
13.061912,7.264887853302542,0.058424606059654
13.064308,7.271455129907102,0.058265726953738
13.066696,7.283888939124053,0.0580885474737797
13.069076,7.295763669833563,0.0579351510428125
13.071479999999998,7.310711436476128,0.0577686987441753
13.073868,7.323098023864836,0.057633184750548
13.076248,7.3414909134927955,0.0574743271526164
13.078651999999998,7.366681501292922,0.057297890009747
13.081039999999998,7.396527916891941,0.0571156553361001
13.08342,7.428236663610517,0.056930089336063
13.085815999999998,7.460224949582813,0.0567332234247235
