Time,Force,Position
11.966888,4.160890766696501,0.1826676019183908
11.969276,4.2355482526394415,0.1825777642575348
11.971656,4.30378391917829,0.1823261908737051
11.974052,4.359823781499272,0.1822305170438736
11.97644,4.411024616281996,0.1819810592412757
11.97882,4.456035949086107,0.1816427677435601
11.981216,4.496720111031158,0.1811717194666737
11.983604,4.530236383609573,0.1807202637300856
11.985984,4.559518033127546,0.1801876661015741
11.98838,4.584425289958217,0.1795851314858178
11.990768,4.605190471527063,0.1789537304058408
11.993152,4.620183564140006,0.1784037280448351
11.995544,4.633780856342214,0.1778223912042564
11.997932,4.640580450372252,0.1774461802426196
12.000312,4.652594950708621,0.1768997930147763
12.002708,4.669964126978183,0.1761817209935249
12.005096,4.688404238434384,0.1754334711057137
12.00748,4.711872264741813,0.1745898445610285
12.009876,4.741299371460251,0.1736234891122969
12.012264,4.772960896350582,0.172631279229139
12.014644,4.802712868293113,0.1717548531514205
12.017048,4.82711016430245,0.1710645509068167
12.019436,4.852950482550766,0.1703650659423758
12.021816,4.883167089344251,0.1695733227611353
12.024212,4.906818315391048,0.1690042566584719
12.0266,4.930981398117041,0.1684504482754794
12.02898,4.954864941589313,0.167932157109323
12.031376,4.982612916927558,0.1673196813115624
12.033764,5.011012518571862,0.1667151205958317
12.03616,5.042065847268641,0.1660629919965116
12.038556,5.075772903017893,0.1653625993836676
12.040944,5.105615526901173,0.1647648101128616
12.043328,5.129032539664622,0.1643701295034247
12.045724,5.157524689107543,0.1638299342481219
12.048112,5.182012637057631,0.1634100951615341
12.050492,5.199935204261028,0.1632032619154588
12.052888,5.218509397770482,0.1630022146405119
12.055276,5.236943821653076,0.162817191907845
12.05766,5.252165439975754,0.1627263623246011
12.060056,5.271111720537546,0.1625596623784126
12.062444,5.29485359852509,0.1622877978888157
12.064824,5.323902930617583,0.16191966016427
12.06722,5.356537155322327,0.1614940759488996
12.069612,5.384096243347602,0.1611947683346225
12.071992,5.418453029545044,0.1607339314599254
12.074388,5.4526700461156254,0.1602852627409923
12.076772,5.487538688992266,0.1598479680735673
12.079156,5.518123591122352,0.1595336520709535
12.08156,5.548708493252438,0.1592242952341111
12.083948,5.57514942426283,0.1590209711182926
12.086328,5.6037322256465,0.1587710418917938
12.088724,5.637250394082782,0.158414090984195
12.091112,5.675983468825395,0.1579259325846977
12.093492,5.712854212448454,0.1574800613456574
12.095892,5.746279833086119,0.1570811949050183
12.098276,5.778681740365388,0.1566527249536219
12.100656,5.807498755032404,0.1562883566922968
12.103064,5.832730877087168,0.1559875698025626
12.105448,5.861595113582427,0.1555766980527503
12.107828,5.884872356719015,0.1552772731330966
12.110232,5.902842145750657,0.1550680317951365
12.11262,5.9176463510506245,0.1548921745841873
12.115,5.925141001499226,0.1548451475090905
12.117396,5.936407536015183,0.1546788212342554
12.11978,5.945951509038445,0.1545391836316165
12.122164,5.955775021315426,0.1543811718486487
12.124568,5.960151309860597,0.1543153191813556
12.126952,5.966297381726707,0.1541759011943681
12.129336,5.970069265794064,0.1540591853199024
12.14128,5.941769795379853,0.153980800127183
12.143676,5.937302854893935,0.1538673108636412
12.146072,5.934977784781293,0.1537023879553391
12.14846,5.936145059482287,0.1534428153218449
12.150844,5.940944448623778,0.1530804325315905
12.153248,5.938434282913902,0.1528367317921168
12.155632,5.93462086459191,0.1525870283466479
12.158016,5.93015581996386,0.1523340671032313
12.16042,5.921174717163779,0.1521527861601177
12.162804,5.916477355110252,0.1518671149208475
12.165184,5.9089864963773895,0.1516304898132234
12.16758,5.9012633202190505,0.1513630505958102
12.169968,5.891445495515677,0.1510969760185101
12.172348,5.882838375625801,0.1507945075819678
12.174744,5.87250869424323,0.1505148595584093
12.177132,5.862318782487519,0.1502249338385951
12.179512,5.850266539612252,0.1499669638733407
12.181908,5.844639907856815,0.1495528408997957
12.184296,5.836219779422044,0.1491850383005418
12.186676,5.832735018039883,0.1487162069274392
12.189072,5.824175119978251,0.1483563890812606
12.19146,5.809236832625032,0.148100427653765
12.193856,5.792436214152255,0.1478757597158217
12.196252,5.770188371947668,0.1477365765560049
12.198636,5.74207399713069,0.1477111827668572
12.20102,5.719826154926104,0.1475690212363081
12.203412,5.699580413467935,0.1473840507690717
12.2058,5.680405607196403,0.1471719672675737
12.20818,5.668168268723901,0.1468159330610125
12.210576,5.649924628012148,0.1465856003594256
12.21296,5.63354331841995,0.1463213281133578
12.215356,5.618093174387534,0.1460387789220686
12.217752,5.602083951847674,0.1457937673775166
12.22014,5.590218700427511,0.145454087595009
12.22252,5.576211578634069,0.1451644911590002
12.224916,5.563135622400405,0.1448577262265565
12.227304,5.5499198965398815,0.1445596637408758
12.229684,5.535074156985277,0.1443248819136526
12.23208,5.52860890746868,0.1439466268780475
12.234464,5.515578277205388,0.1437300336445199
12.23686,5.506272309181212,0.1434493986273034
12.239256,5.4994802985826485,0.143139406608624
12.24164,5.496412950223199,0.1427661139584301
12.244024,5.496511185595423,0.1423664683485934
12.24642,5.502056644699455,0.141880496732518
12.248804,5.505180694176491,0.1414663228678746
12.2512,5.508816600332724,0.1410656604109203
12.253596,5.512033197608377,0.1406935218697615
12.255984,5.512828385257032,0.1403933893541054
12.258364,5.521212667010775,0.1399585247656023
12.26076,5.531179740630353,0.1395151795481968
12.263148,5.538725404622934,0.1391425035210136
12.265528,5.551206435668129,0.1386768008878885
12.267932,5.560334891526544,0.1382971771456
12.270316,5.573048239997218,0.137866155473115
12.2727,5.585342279587307,0.1374647558806793
12.275092,5.599219111043233,0.1370532577851547
12.27748,5.61202500731252,0.1366655292948321
12.27986,5.620686932462113,0.1363696759458317
12.28226,5.631071419104406,0.1360500003835369
12.284644,5.643038697612532,0.1357218953872841
12.287028,5.656448998359634,0.1353948345832825
12.289424,5.669160450972437,0.1351185051657964
12.291812,5.68638796175727,0.1347845360469659
12.294208,5.702125228474885,0.1345044585957633
12.296604,5.72316994929745,0.1341626216141362
12.298992,5.747520023478545,0.133796814022951
12.301372,5.776386155831672,0.1333758128588289
12.303776,5.807626475983556,0.1329446693035055
12.306164,5.837516321695076,0.13256108657902
12.308544,5.868057793712659,0.1321883598027853
12.31094,5.902835784648552,0.1317801689520491
12.313327999999998,5.936123531517223,0.1314275949376458
12.315708,5.97164569655779,0.1310716111738342
12.318104,6.007539948650695,0.1307402404574481
12.320492,6.046879323728994,0.1303796068811351
12.322871999999998,6.087149864367072,0.1300105519187482
12.325268,6.133938563923599,0.1295621546963443
12.32766,6.180168184972683,0.1291448161184579
12.33004,6.232404108261019,0.1286338760191549
12.332444,6.284360492295634,0.1281452587250799
12.334828,6.333243840397193,0.1277085414676696
12.337212,6.382546497379334,0.1272523897632908
12.339608,6.427844952868639,0.126868268711103
12.341996,6.477147609850779,0.126428114633632
12.344376,6.525658870900002,0.1260041860030498
12.346772,6.573518505643166,0.1255842423939931
12.34916,6.62109860113261,0.1251898331065176
12.35154,6.668027070315994,0.1247960293186959
12.353936,6.714955539499379,0.1244061867617884
12.356324,6.760161447190069,0.124034410094919
12.35872,6.805786663761339,0.1236489138429549
12.361116,6.855416081825443,0.1232172964843693
12.363504,6.907187370262824,0.1227559510845689
12.365888,6.963382169073617,0.1222283367237447
12.368284,7.016131844899019,0.1217299852228475
12.370672,7.068741751097559,0.1212438092475525
12.373056,7.116416290243488,0.1208279815389667
12.375452,7.171447606069025,0.1203105578909399
12.37784,7.220193080401591,0.1198883016562019
12.38022,7.271080425107436,0.1194394206807526
12.38262,7.326111740932975,0.1189333093650339
12.385008,7.3817946830645695,0.1184386656753071
12.387388,7.437617394823026,0.1179378352053408
12.389788,7.488784278782591,0.1174884420557146
12.392172,7.534084630129765,0.1171075848312928
12.394552,7.57845381591716,0.1167405858737722
12.396952,7.62030904427894,0.1163900753269704
12.399336,7.663235207827361,0.1160292585062478
12.40172,7.70737207618928,0.1156512442905539
12.404116,7.758306642723366,0.1152113621566617
12.406504,7.806168173324399,0.1148145166131011
12.408884,7.846300840193483,0.1144993551725486
12.41128,7.887132355196869,0.1141595770273266
12.413668,7.920095236841448,0.1139050230489991
12.416052,7.954268823299526,0.1136312505327804
12.418448,7.990072423451683,0.1133225487807103
12.420836,8.02764580692478,0.1129714130599581
12.423216,8.059120340360009,0.1126612919340065
12.42562,8.095717232302952,0.1122619031312879
12.428008,8.128217374954446,0.1118780981626952
12.430388,8.159554034620685,0.1114826060396966
12.432784,8.186793944995472,0.1110997645986422
12.435172,8.21487247313142,0.1106830111535913
12.437568,8.245372410894365,0.1102306635236521
12.439964,8.279644232724667,0.1097151835752793
12.442352,8.309819305263519,0.1092109953462619
12.444732,8.335897628510919,0.1087163392466271
12.447128,8.358670598399787,0.1082342347631203
12.449516,8.377207049370345,0.1077703797591083
12.4519,8.379913685824668,0.1074226394853117
12.454296,8.379594508174183,0.1070715573961998
12.456684,8.37890324347136,0.1067013325143213
12.459064,8.36969171910367,0.1063985998700042
12.461464,8.363181143616698,0.1060453880068278
12.463848,8.354296380330972,0.1056941779488925
12.466232,8.337542983686438,0.1054145855253424
12.468628,8.314131658496597,0.1051873049741805
12.471016,8.28857846293348,0.1049843702635173
12.4734,8.25822966994461,0.1048189228424996
12.475796,8.226949711395962,0.1046586880849955
12.478184,8.192876256167978,0.104516125838631
12.480564,8.160013505753493,0.1043534890221768
12.48296,8.125288424219454,0.1042015970500403
12.485348,8.08604728451338,0.1040737073722609
12.487732,8.046945914434168,0.1039366207017341
12.490128,8.007844544354956,0.1037982953716704
12.492516,7.972887145395436,0.1036145554518335
12.4949,7.937138350503,0.1034291778166447
12.497296,7.901669094864283,0.1032296774956036
12.499684,7.874068472584375,0.1029603690551134
12.50208,7.84474528881177,0.1026953614369503
12.50448,7.815561874666023,0.1024224633835455
12.506868,7.786518230147134,0.102141197748119
12.509248,7.754681088948913,0.1018770956142821
12.511648,7.721773012564052,0.1016235245528087
12.514031999999998,7.693288446552605,0.1013109299471301
12.516416,7.669879017220633,0.1009448479162821
12.518812,7.643536321582464,0.1006022967954084
12.5212,7.615051755571017,0.1002831865221288
12.52358,7.585775793626652,0.0999618033286423
12.525976,7.557430997242069,0.0996315826730548
12.528364,7.526013164924426,0.0993315008246547
12.530744,7.49180183592745,0.0990482279738805
12.53314,7.456379802116976,0.0987821775436626
12.535528,7.414020300507472,0.098579071828519
12.537908,7.374733834831024,0.0983403124013349
12.540304,7.333957125087356,0.0981311447743084
12.542692,7.29332018497055,0.0979122036069762
12.545076,7.254126267092718,0.0976975280698171
12.547476,7.211859313281831,0.0975128349516478
12.549864,7.173177252083197,0.0973070467175204
12.552244,7.136637061257843,0.0970725332983801
12.554648,7.104752698231379,0.0968042513835582
12.557032,7.073659731137834,0.0965338059521089
12.559416,7.046151656656543,0.096243189330552
12.561812,7.01836404292153,0.095963630732177
12.564196,6.988155019559521,0.0957211526583437
12.56658,6.963952298436761,0.09541988495169
12.568984,6.944405405112893,0.0950864137112629
12.571368,6.928024095520699,0.0947541104072861
12.573752,6.911083707421062,0.0944475098131162
12.576148,6.897728211933679,0.0941217490116945
12.578536,6.88646736499133,0.0938095840523862
12.58092,6.878791410661234,0.0934781606843535
12.583316,6.876422910436088,0.0931209400556486
12.585704,6.874286727636419,0.0927925167079812
12.588088,6.8687979696499735,0.0925080517343981
12.590484,6.864332925021923,0.0922518848646832
12.592868,6.858657175580376,0.0920153027530231
12.595252,6.858428649870636,0.0917484176559791
12.597648,6.857641045653457,0.0915085787305486
12.600036,6.859879255541089,0.0912799615500388
12.602432,6.865422818787255,0.0910498825784584
12.604828,6.874131965765092,0.0908240017048334
12.607216,6.881630407929432,0.0906183263590724
12.609596,6.892294433825443,0.0904178768197731
12.611992,6.9054724171470685,0.0902137157358711
12.61438,6.913016185281781,0.0900848299004903
12.61676,6.92335345009583,0.0899409588421938
12.619155999999998,6.933830484536737,0.0897913508520607
12.621544,6.94710101565698,0.0896258143251672
12.623924,6.964096209016335,0.0894406050556714
12.626324,6.983093503122109,0.0892382092214148
12.628708,7.008097099467132,0.088988691726969
12.631092,7.036965127678129,0.0887148447559049
12.633488,7.065833155889126,0.0884427473678735
12.635876,7.102569817458931,0.0881105048287974
12.63826,7.141308579775152,0.0877633649279496
12.640656,7.179907572464513,0.087421658175896
12.643044,7.217435629967236,0.0870948114278727
12.64544,7.260038824149431,0.0867269945306853
12.64784,7.301850622398707,0.0863628580391693
12.650227999999998,7.338866823222232,0.0860319913493654
12.652608,7.374300232179921,0.0857002492820344
12.655004,7.411735741884026,0.0853551094281772
12.657392,7.446657294162517,0.0850144041275488
12.659776,7.483860486441145,0.0846494949645284
12.662172,7.531213952078717,0.0842034997629558
12.66456,7.571490180290401,0.0838160951401707
12.666944,7.610695473315446,0.0834413091187011
12.66934,7.6480384352209345,0.0830776931812306
12.671732,7.678443929327393,0.0827647005083716
12.674112,7.708709653806993,0.0824592241786523
12.676512,7.730407896793485,0.0822397402452742
12.678896,7.748241707914002,0.0820455669975209
12.68128,7.770079720527354,0.0818254589030794
12.683676,7.787122135714953,0.0816336887250274
12.686068,7.803093615715914,0.0814530185451883
12.688448,7.826002563515903,0.0812286210711217
12.690848,7.851844777622088,0.0809890897131365
12.693236,7.878478387661191,0.0807562531788409
12.69562,7.903249666580738,0.0805327245965117
12.698016,7.929231650313783,0.080294058272831
12.700404,7.955865260352886,0.0800638686838531
12.702788,7.982359100765129,0.0798415864011103
12.705188,8.01071527229693,0.0796136362913951
12.707576,8.033856537522396,0.079427225309621
12.70996,8.048709860508476,0.0793046322226956
12.712356,8.069569485733805,0.0791439793104798
12.71474,8.090289341332275,0.0789890821107676
12.71712,8.111009196930743,0.0788345237587981
12.719524,8.137875124395325,0.0786367373189007
12.721912,8.167162461486903,0.0784120309848183
12.724292,8.19700887708592,0.0781629940469573
12.726688,8.225784357498302,0.0779229115128985
12.729076,8.244968643059178,0.0777299741136586
12.731456,8.26601525973961,0.0775303950292007
12.733852,8.285479084554208,0.0773269927800904
12.736236,8.297633354517437,0.0771476036098041
12.738616,8.304340400748858,0.076983794861516
12.741024,8.302527187315414,0.0768556205434267
12.743412,8.30057420425511,0.0767329505411562
12.745792,8.300623321941222,0.0765986653646606
12.748196,8.302162683694554,0.0764400424301445
12.750584,8.299325756902714,0.076286355439544
12.752964,8.2926243982449,0.0761506807120063
12.75536,8.290486319587362,0.0759699887508773
12.757744,8.29333082981068,0.0757284167841407
12.760124,8.29352161298152,0.0754917076545628
12.762528,8.293340309100024,0.0752364176150034
12.764916,8.294509479658888,0.0749625755131335
12.767296,8.289812117605363,0.0747173227466163
12.769699999999998,8.277246122193027,0.0745110545470835
12.772088,8.264819896407554,0.0742985218355444
12.774468,8.254815080249076,0.0740585363591491
12.776872,8.247743530396795,0.073802628069771
12.77926,8.237087087932261,0.0735524551891791
12.78164,8.225499479907949,0.0733043461686754
12.784044,8.211350692629779,0.0730878625264336
12.786432,8.194780495724611,0.0728980000266426
12.788812,8.180072629938998,0.0727010465158857
12.791208,8.162571267474053,0.072512422114069
12.793596,8.142136638702912,0.0723379100837676
12.795976,8.116626873252297,0.0721939588417388
12.798372,8.093770834854158,0.0720458411643874
12.80076,8.07105456608288,0.0718913935821789
12.80314,8.043263160632128,0.0717670036718891
12.805536,8.009697770367605,0.0717002658670406
12.807924,7.977203315289719,0.0716235996022998
12.810304,7.944569090584972,0.0715510385742008
12.8127,7.907930664387393,0.071499250840824
12.815088,7.87450504374973,0.0714216093052722
12.817468,7.847737351657374,0.071318856948831
12.819868,7.822180364378516,0.0712011506960196
12.822256,7.79075684448727,0.071109454860591
12.824636,7.762126821275358,0.0710089978050948
12.827032,7.737500999556279,0.070885734633659
12.82942,7.71315471709092,0.0707500613281169
12.831804,7.695094276118534,0.0705701771205544
12.8342,7.684530381452618,0.0703324715360544
12.836588,7.676108357159976,0.0700778162813921
12.838968,7.669828203240613,0.0698056379769972
12.841372,7.660614783015054,0.0695452340839448
12.843756,7.652472297976134,0.0692750902079516
12.84614,7.643258877750575,0.0690128500926298
12.848532,7.637909889390991,0.0687348161410953
12.85092,7.635354397710741,0.0684483924923854
12.853304,7.630145178978016,0.0681607314314393
12.8557,7.618138262073123,0.0679008145283848
12.858088,7.60571203628765,0.0676576319741373
12.860468,7.59593953755465,0.0674117824738493
12.862868,7.583885398821514,0.067187718357499
12.865256,7.570108698595681,0.0669629528117271
12.867636,7.556843855049045,0.0667526258630006
12.870036,7.548234839301302,0.0665288894861653
12.87242,7.532688355754529,0.0663385075453589
12.874804,7.514860232207619,0.0661700541758807
12.877208,7.499546066086324,0.0660054392928533
12.879592,7.479156763285557,0.0658693755617273
12.881976,7.4523418493649585,0.0657811978681892
12.884372,7.420172259511166,0.0657335864287071
12.88676,7.389725231150071,0.0656860872019844
12.889144,7.36300286502809,0.0656291749890738
12.89154,7.340005161145221,0.065562502722603
12.893924,7.318218162075853,0.0654811569588803
12.896308,7.29163556558073,0.0654157458149732
12.898704,7.263842264272111,0.0653638682287787
12.901092,7.249923898561549,0.0652460550833851
12.903476,7.24424625326213,0.0651146000221562
12.905872,7.239779312776212,0.0649691238948571
12.90826,7.233450041170736,0.0648274632254239
12.910644,7.230985201431234,0.0646716007877926
12.91304,7.225307556131817,0.0645390349214766
12.915428,7.21869874527262,0.0644083209531158
12.917812,7.214883431092759,0.0642719401505834
12.920204,7.221870016577901,0.0640900190486167
12.922592,7.230718933182598,0.0639043178823482
12.924988,7.239288310533576,0.0637310274394781
12.927384,7.249580249377249,0.063558801966134
12.929772,7.263596850460036,0.0633781635669351
12.932152,7.288694890461546,0.0631411798967005
12.934548,7.313653160836196,0.062911526840402
12.936936,7.3406135319572625,0.0626736546321746
12.939316,7.367434133451469,0.0624438230037743
12.941712,7.394626821998013,0.062236162895879
12.9441,7.427126964649506,0.0620295864136518
12.946484,7.463771078420694,0.061800028163748
12.94888,7.492918645885412,0.061627301838745
12.951268,7.518993177417075,0.0614718517734577
12.953652,7.549863306374489,0.0613048845125992
12.956048,7.585389263130795,0.0611305293903382
12.958436,7.619844284700461,0.060965093195438
12.960832,7.661236774069157,0.0607729876396269
12.963228,7.705422760117188,0.060577162305706
12.965612,7.745604544672386,0.0603999714914529
12.967992,7.7836444588543054,0.0602402908261335
12.970388,7.819542502662949,0.0600945288535807
12.972776,7.857302877591147,0.0599467976412447
12.975156,7.900929785131737,0.0597811164400313
12.97756,7.946698563045604,0.0596035532710033
12.979947999999998,7.988463139466637,0.0594463876178751
12.982328,8.026083744767977,0.0593098814476392
12.984724,8.063424810815595,0.0591854326360154
12.987112,8.101836812049854,0.0590562336828033
12.989496,8.14131974847075,0.058920838409506
12.991892,8.178148957839172,0.0587849844036633
12.99428,8.211346052767096,0.0586848725738298
