Time,Force,Position
12.597584,4.871404996113381,0.1785251809832067
12.599964,5.018487445685235,0.1783471995179966
12.60236,5.153840621748048,0.1781579379091846
12.604748,5.278535459488454,0.1779328184759817
12.607128,5.394713829279737,0.1776307863930122
12.609524,5.499582234442556,0.1773048073649936
12.611911999999998,5.591929970163417,0.1770096550751978
12.614292,5.677623569054707,0.1765722384381082
12.616688,5.751308355183234,0.1761854342789592
12.619076,5.812053162989219,0.1758611216505396
12.621455999999998,5.868098712883808,0.1754069832641815
12.623852,5.915301033747308,0.1749468688656606
12.62624,5.953380586325997,0.1745013194289343
12.628635999999998,5.986853428791904,0.1739673537352598
12.631032,6.017022813757152,0.1733462007179496
12.63342,6.046822007527927,0.1725813405849875
12.6358,6.075924249022271,0.1717398451731543
12.6382,6.093340647120078,0.1711326027669671
12.640588,6.1081033181654085,0.1705819165298036
12.642968,6.1269627385021925,0.169979572098042
12.645364,6.142329814025338,0.1694820550972193
12.647752,6.1609096951084,0.1689061965123672
12.650136,6.186846352871071,0.1681581722815395
12.652532,6.2141334850741,0.1673668094346416
12.65492,6.236764789478238,0.1666662515723695
12.657304,6.2607465683227375,0.1659234180294225
12.6597,6.283285324928258,0.1651846779094077
12.662088,6.305312224854582,0.1644430413764829
12.664472,6.328037972915206,0.1636602677462159
12.666868,6.352533504296772,0.1628091789455844
12.669256,6.3729322863868845,0.1620117270515511
12.671639999999998,6.390025715118466,0.1612536875682753
12.674036,6.403813790491514,0.1605350232813024
12.676428,6.419371649185502,0.1597522503325315
12.678807999999998,6.433626255267373,0.1589683802333827
12.681204,6.442293867990577,0.1582885721682318
12.683592,6.445793796235688,0.1576809038172277
12.685975999999998,6.451854903734659,0.1569948256047056
12.688372,6.454470888248237,0.1563567665100927
12.690764,6.453781519403283,0.1557589553808119
12.693143999999998,6.454582394625548,0.155109434780607
12.695544,6.45030813316834,0.1545662503748733
12.697932,6.436954533538826,0.1542098974754326
12.700311999999998,6.422669768349534,0.1538679402886277
12.702711999999998,6.409036629466301,0.153526347253846
12.7051,6.3929820809560685,0.153250203571873
12.707484,6.377579158751895,0.1529746021550417
12.709879999999998,6.3606859924805015,0.1527484906661011
12.712272,6.340300481395473,0.1526123637596666
12.714652,6.317074251802865,0.1525678586974872
12.717047999999998,6.295570583702954,0.1524991399194347
12.719432,6.277931347469017,0.1523576365182951
12.721812,6.265087708660831,0.152128382383158
12.724208,6.245027062799896,0.1520506453672113
12.726596,6.228039452872018,0.1519065266946399
12.728976,6.210772303690418,0.1517796386974479
12.73138,6.197090047121073,0.1515993000684093
12.733768,6.180334754618671,0.151482019328267
12.736147999999998,6.164650397302906,0.1513397026244383
12.738544,6.146032773680949,0.1512528234748529
12.740932,6.12606467561863,0.1512073775804822
12.743312,6.110752405355203,0.1510839164567934
12.745708,6.100235732517529,0.1508735364917066
12.748096,6.087809506732054,0.1507414019940193
12.750492,6.078316547252776,0.1505529155056668
12.752888,6.072827789266331,0.1502840451936662
12.755276,6.070923923892138,0.1499625542618557
12.757656,6.070602850383783,0.1496285308158859
12.760051999999998,6.072144107994983,0.1492619333379315
12.76244,6.072754200046407,0.1489081733520604
12.76482,6.070942882470833,0.148621367968554
12.767216,6.067781090454898,0.1483778699981564
12.7696,6.060056018438692,0.1482502783108302
12.771996,6.0559158390347365,0.1480690209109944
12.774392,6.049074710750061,0.1479734128545408
12.77678,6.043676604704363,0.1478739869360877
12.77916,6.035065693098751,0.1478483838543539
12.781555999999998,6.029899904478529,0.1477787089474931
12.783943999999998,6.024035267724008,0.1477547182851128
12.786324,6.025759725074575,0.1475965927882163
12.78872,6.030417448731335,0.147383410117586
12.791108,6.034004237201458,0.1471962513250743
12.793487999999998,6.039965213470333,0.1469931052354225
12.795884,6.053934592724876,0.1466376010445801
12.798272,6.069067454964676,0.146300642524615
12.800668,6.081639137950619,0.1460391477415095
12.80306,6.091649641682702,0.1458513355726777
12.805447999999998,6.099378505414649,0.1457184358822469
12.807828,6.10920201769163,0.1455862011600132
12.810236,6.127266250379755,0.1453356109818465
12.81262,6.1498465412399135,0.145022824297109
12.815,6.171727983965768,0.1447530615401348
12.8174,6.197613628184459,0.1444087336249535
12.819788,6.22815510020204,0.1439967129397095
12.822168,6.256414932219484,0.1436352697445735
12.824564,6.284814533863789,0.1432646637273326
12.826952,6.318801128866762,0.1428107865370302
12.829332,6.3546500549892935,0.1423343738215433
12.831732,6.392221542604519,0.1418364146619445
12.834116,6.425229750219471,0.1414520954088897
12.8365,6.456747713767204,0.141119491239812
12.838895999999998,6.48491310212816,0.140860560520729
12.841284,6.509074288996284,0.1406766944433937
12.843664,6.525087303251881,0.1406463377824603
12.84606,6.538586360081862,0.1406404742152283
12.848448,6.5536682087776805,0.1406242067862171
12.850844,6.573173567846913,0.1405142903865688
12.85324,6.596543358782119,0.1403431017352606
12.855628,6.623265724904101,0.1401042020099151
12.858012,6.64612365916011,0.1399311355632194
12.860408,6.669261132669838,0.1397461381468764
12.862792,6.691607210246649,0.1395635741104601
12.865175999999998,6.713533978942879,0.1394072736710793
12.867572,6.733598416519552,0.1392794185078568
12.86996,6.761811026708752,0.1390161949886001
12.872343999999998,6.790815032830871,0.1387490269065751
12.87474,6.816094376713876,0.1385338434843136
12.877128,6.839511389477325,0.1383455405869274
12.879508,6.864278876681135,0.1381239635979292
12.881912,6.891467773511939,0.1378487975563305
12.8843,6.916934108850049,0.1375887034914318
12.886679999999998,6.94854651605427,0.1372276028301178
12.88908,6.979367527325574,0.136868488732534
12.891464,7.013401344156791,0.1364478740194887
12.893847999999998,7.050228657667344,0.1359948289745158
12.896244,7.085612948938919,0.1355436584078296
12.898632,7.117924204277441,0.1351498027481218
12.901012,7.148512898123265,0.1347754334818964
12.903412,7.173514598610418,0.1344745553052527
12.9058,7.197864672791516,0.1341725323382744
12.908184,7.217279379920001,0.1339427367374582
12.91058,7.244982029287873,0.1335839077878264
12.912968,7.272172821976547,0.1332164914902677
12.915348,7.29456801723947,0.1329106657363618
12.917748,7.309374118397306,0.1327033549082066
12.920136,7.328463960301695,0.1324275559130709
12.922516,7.349695672579363,0.1321178008868029
12.924919999999998,7.374791816723003,0.1317633283549608
12.927307999999998,7.40189006161306,0.1313868334274449
12.929688,7.42791737131648,0.1310304285429283
12.932092,7.458228421766453,0.130607616659217
12.93448,7.483883644417536,0.1302387076272708
12.93686,7.509678636695477,0.1298609277231808
12.939256,7.536963873040637,0.1294490974819868
12.941643999999998,7.559593281586908,0.1290880926425153
12.944024,7.581571063827118,0.1287230535119028
12.94642,7.603036989388132,0.1283488039099762
12.948808,7.625993159016366,0.1279405794174749
12.951192,7.652022364577654,0.1274913107369652
12.953588,7.676329008646246,0.1270556311222375
12.955972,7.703057062341835,0.1265719479018326
12.958355999999998,7.722056252305477,0.1261857396686059
12.960752,7.741195211895979,0.1257949090951189
12.96314,7.765688847419673,0.1253230230598417
12.96552,7.792044814062925,0.124830971589247
12.96792,7.8118826217877295,0.1244092033158231
12.970308,7.830929033579615,0.1239934867580172
12.9727,7.840803559400578,0.1236639027810081
12.975096,7.847093192609287,0.1233667095454469
12.977484,7.85301073876566,0.123053022753543
12.979864,7.854272457123139,0.122785001379381
12.982268,7.859678146600314,0.1224630252736792
12.984656,7.8676450153313455,0.1220913817558063
12.987036,7.8734700136891,0.121751940170708
12.989439999999998,7.881856191300711,0.1213622585417152
12.991828,7.892384239285601,0.1209431704349382
12.994208,7.900910186524072,0.1205474151578549
12.996604,7.908365198575904,0.1201692604728227
12.998992,7.910745073948266,0.119852756577613
13.001372,7.91140238782793,0.1195456022336099
13.003772,7.912990867267374,0.119230730249024
13.006156,7.9148588859605375,0.1189025876355099
13.008539999999998,7.916075278347643,0.1185707888074116
13.010936,7.919154001854306,0.1182255973088244
13.013324,7.925725070174604,0.1178265477872746
13.015707999999998,7.932016599241181,0.1174385435726118
13.018104,7.936306027561343,0.1170735642550817
13.020492,7.950326420359867,0.1166103529276038
13.022872,7.962344712411975,0.1161690599009775
13.02528,7.973943695583503,0.1157475729786311
13.027667999999998,7.99126944174056,0.1152750221040278
13.030048,8.003799590471868,0.1148498663114429
13.032448,8.01684159588237,0.1144387267851603
13.034836,8.028021270173316,0.1140423987887422
13.037216,8.038781635583684,0.1136657842930699
13.039611999999998,8.04926246174033,0.113303481643632
13.042,8.061605619016532,0.1129256911883294
13.04438,8.069944574799901,0.1125898873362064
13.046776,8.082707040956686,0.1121927235213536
13.049164,8.099054399725722,0.1117714250609217
13.051544,8.116332924054538,0.1113458171064716
13.05394,8.134123305062548,0.1109317196716175
13.056328,8.148700880510646,0.1105574640211775
13.058708,8.156340988159714,0.1102543990863781
13.061103999999998,8.158626419875592,0.110019410742497
13.063491999999998,8.163984887524522,0.1097504246387866
13.065876,8.171624995173591,0.1094493446266715
13.068272,8.171256699836992,0.1092307664734604
13.070659999999998,8.173681901179728,0.1089908951221976
13.073044,8.177457576962823,0.1087263837654316
13.07544,8.177229051253084,0.1085032770653053
13.077827999999998,8.179654252595821,0.1082655236894222
13.080208,8.178494561326303,0.1080493561933958
13.082604,8.182270237109398,0.1077877746614317
13.084992,8.188979179198688,0.1075015180024221
13.087388,8.194756955728197,0.1072226634487044
13.089784,8.202536833004126,0.1069259088850281
13.092172,8.212179041399613,0.1066145469064826
13.094551999999998,8.222193336847436,0.1063223311863997
13.096952,8.232347401922118,0.1060256383278245
13.099336,8.237566099944189,0.1057729934803086
13.101716,8.24292456759312,0.1055147043051646
13.104112,8.252287236734885,0.1052186436690737
13.1065,8.266725042556123,0.1048731156767703
13.10888,8.283164949123778,0.1045083577366874
13.111275999999998,8.298813459758513,0.1041458417127844
13.113663999999998,8.310969625579613,0.1038319745287601
13.116048,8.328992324013104,0.103469232640491
13.118443999999998,8.346223626513675,0.1031083537196256
13.120828,8.364386094574025,0.1027443765404792
13.123228,8.378823900395261,0.1024036068601587
13.125623999999998,8.39340147584336,0.1020587869486132
13.128008,8.41156394390371,0.1016963532119234
13.130387999999998,8.424651275284589,0.1013827372244685
13.132791999999998,8.433874174799493,0.1011001928208866
13.135179999999998,8.444168009501036,0.1008069559021368
13.13756,8.454322074575717,0.1005215862331614
13.139956,8.469411506703016,0.1001978360756133
13.14234,8.483849312524251,0.0998704353658501
13.144723999999998,8.498798975024688,0.0995560838860157
13.14712,8.520825874951012,0.0991817536124259
13.149504,8.543783940437113,0.098803264825457
13.151888,8.566462466669494,0.0984378657670086
13.154284,8.587790518461519,0.0980971151475629
13.156668,8.610841131746238,0.0977527393539605
13.159064,8.634124062456433,0.0974316950128967
13.161459999999998,8.66234236021924,0.0970740142835294
13.163848,8.685625290929437,0.0967551289534137
13.166227999999998,8.708628682385912,0.0964479872767243
13.168632,8.727348333095835,0.0961843111927779
13.17102,8.752306603470483,0.0958950885076869
13.1734,8.776193938658494,0.0956179534211397
13.175795999999998,8.79807917310009,0.0953579388159232
13.178184,8.826622336086992,0.0950587714990078
13.180568,8.85902993093987,0.0947361936246579
13.182963999999998,8.88822472023283,0.0944450701161253
13.185351999999998,8.915417408779373,0.094170875421314
13.187732,8.935021003220829,0.0939425213302443
13.190128,8.955555763222065,0.0937112790114371
13.192516,8.973716335424546,0.093479373076478
13.1949,8.985451296507197,0.0933092056335415
13.197304,8.996255092030069,0.093144401028262
13.199687999999998,9.008129822739578,0.0929705926112801
13.202072,9.021355027889449,0.0927776397869354
13.204468,9.03285767154662,0.0925895052689931
13.206852,9.045850559271011,0.0923769582686121
13.209231999999998,9.053768310315936,0.0922030661710493
13.211632,9.066621428413464,0.0919968015807061
13.21402,9.079614316137857,0.0917856756741313
13.216399999999998,9.095820009422162,0.091545613789647
13.218796,9.109651514907716,0.0913047522795423
13.221184,9.124274416326188,0.0910652854480108
13.223579999999998,9.14038756181188,0.0908019617449261
13.22598,9.148911613192482,0.0905794477608654
13.228368,9.152640067147331,0.0903841281855348
13.230747999999998,9.160512492221876,0.0901566118009171
13.233152,9.166802125430586,0.0899272010264719
13.23554,9.177887356065048,0.0896709423160316
13.23792,9.184037219646894,0.0894462193747748
13.240315999999998,9.19312034953494,0.0892045555063792
13.242704,9.20569582423662,0.0889248335461805
13.245084,9.21841106856516,0.0886405881708667
13.247483999999998,9.227820959535167,0.0883583950545529
13.249868,9.231224548265926,0.088115878589904
13.252252,9.231834640317349,0.0878851090070955
13.254651999999998,9.229791005316292,0.0876619346899942
13.257039999999998,9.231519254382595,0.087391072990421
13.25942,9.224867013410892,0.087155858727591
13.261819999999998,9.219565246879547,0.0869016957615642
13.264204,9.211330214042013,0.0866642530102063
13.266588,9.201093080458056,0.0864392862674385
13.268984,9.188481759075348,0.0862105856902695
13.271372,9.17372856731936,0.0859994403312758
13.273751999999998,9.159534454070815,0.0857667837828591
13.276148,9.143617779329574,0.0855355356298182
13.278536,9.124116211976077,0.0853142501779078
13.280919999999998,9.105545810182363,0.0850882308146505
13.283316,9.08632378208259,0.0848554415066407
13.285704,9.068312458796312,0.0846075543550127
13.288084,9.046436703644062,0.0843793775148324
13.29048,9.01976535106606,0.0841739857827966
13.292868,8.991371436995362,0.0839698992148204
13.295248,8.964560314790502,0.0837674095872979
13.297648,8.939891062958917,0.0835461523834897
13.300032,8.914290645567556,0.0833273083989194
13.302416,8.887619292989555,0.0831161915068891
13.304811999999998,8.8578749044785,0.0829250852047349
13.3072,8.833717509326114,0.082710548114523
13.309596,8.804345207867396,0.0825341190107994
13.311991999999998,8.776183611222176,0.0823425557336251
13.31438,8.747510157897759,0.0821375856179365
13.31676,8.718417395692759,0.0819472435743832
13.319156,8.687322532741346,0.0817684154046154
13.321544,8.657530922402048,0.0816021698793542
13.323928,8.630532808742084,0.081423770817647
13.326324,8.603255155828402,0.0812548458658036
13.328712,8.575046337354939,0.0810885005505426
13.331091999999998,8.54334517406784,0.0809587367097012
13.333488,8.510852614847824,0.0808259681639659
13.335876,8.478360055627807,0.0806920721651113
13.338256,8.449592158646903,0.080542617515952
13.340664,8.421336118345199,0.0804048105248493
13.343048,8.388936106923799,0.0802970697882446
13.345432,8.357467261062178,0.0801846454679304
13.347828,8.332796113372726,0.0800353636742801
13.350216,8.306122864936857,0.0798976318683551
13.352595999999998,8.280892638739964,0.0797682899096374
13.354995999999998,8.255382873289351,0.0796492562405601
13.357379999999996,8.234668705264486,0.0795065707479968
13.35976,8.212324523545545,0.0793942146912063
13.362163999999998,8.196079191864472,0.0792729356686187
13.364547999999996,8.181975730556676,0.0791333183676548
13.366928,8.169315291487855,0.079002674333178
13.369324,8.157725787605674,0.0788627836714628
13.371712,8.147579305962468,0.0787322181347441
13.374107999999998,8.140226320998597,0.0785910196086876
13.376512,8.134316358273702,0.0784590397816676
13.3789,8.133481532228279,0.0782932727598255
13.38128,8.140747656967141,0.0781087363434704
13.383684,8.151458904691395,0.0779220071825231
13.386068,8.162821778721709,0.0777434830335975
13.388448,8.174044883125159,0.0775700127599493
13.390852,8.191274289767863,0.0773600871443047
13.39324,8.210877884209319,0.0771573413222567
13.39562,8.22913100421042,0.0769763440075411
13.398023999999998,8.2554850749958,0.0767778084662811
13.400411999999998,8.283561707273881,0.0765791112446788
13.402792,8.312569505111739,0.0763779948892727
13.405195999999998,8.343439634069151,0.076172832467621
13.407583999999998,8.38432026675865,0.0759132167502437
13.409964,8.422919259448012,0.0756783050042808
13.412359999999998,8.464823605495905,0.075449537358236
13.414744,8.514876124156325,0.075174569929822
13.417124,8.569584470615638,0.0748888530124383
13.419527999999998,8.628436788194644,0.0745804159563662
13.421915999999998,8.689942832826127,0.0742724280349084
13.424296,8.754382143763802,0.0739529938378387
13.426691999999996,8.814397944328066,0.0736704171330542
13.429076,8.868407442653076,0.0734225134035619
13.431456,8.922137401724369,0.0731863080371967
13.433859999999996,8.975587821541941,0.072960902540447
13.436247999999996,9.03583593953168,0.0727097014282829
13.438624,9.096456144573756,0.0724785458143608
13.44102,9.15800751517561,0.072246861300881
13.443408,9.220490051337244,0.0720154092657441
13.445788,9.281250026006182,0.0717877194178227
13.448192,9.34228953992884,0.0715526810543567
13.450576,9.406122550530831,0.0713130286742386
13.452956,9.468884625946188,0.0710836235626481
13.455352,9.52056526244282,0.0709110125218118
13.457736,9.571734042260251,0.0707278087399647
13.460119999999998,9.619457699092294,0.070546217226312
13.462516,9.660243888125306,0.0703974923121325
13.464899999999998,9.695163544545927,0.0702725838863029
13.467283999999998,9.725008064287076,0.0701737667804664
13.46968,9.75205908734889,0.0700824561420656
13.472063999999998,9.779249880037566,0.0699879231197168
13.47446,9.81272651421921,0.0698588128421768
13.476856,9.847693392468075,0.0697101718026949
13.479244,9.882008644410885,0.0695552630610962
13.481623999999998,9.918745305980686,0.0693796444899401
13.48402,9.948963808632046,0.0692199816742319
13.486408,9.977879058671284,0.0690477553386387
13.488787999999998,10.006422221658188,0.0688616031548423
13.491179999999998,10.033382592779256,0.0686720428666694
13.493567999999998,10.054616200914792,0.0684983906461767
13.495964,10.074918643490548,0.0683276745842258
13.49836,10.090425488640555,0.0681712582791344
13.500744,10.104070002671005,0.0680190381582667
13.503127999999998,10.12213802707487,0.0678375667704439
13.505532,10.138343720359176,0.0676601553715663
13.507916,10.154409644016622,0.0674873443265675
13.510296,10.168613236554512,0.0673179611585388
13.512692,10.18588986502546,0.0671348972519869
13.51508,10.203446032750126,0.0669433992875036
13.517459999999998,10.219279638982098,0.0667514486964267
13.519864,10.231248813348094,0.0665715172170655
13.522252,10.240284721407894,0.0664023159128825
13.524632,10.24717875909442,0.0662452972809133
13.527036,10.253421170474889,0.0660817986806558
13.52942,10.254867984429602,0.0659312347122552
13.5318,10.256175028757454,0.0657847243288968
13.5342,10.256411137898668,0.065644346356632
13.536584,10.251432340733553,0.0655289522406824
13.538968,10.243520277262238,0.0654224593829549
13.541371999999996,10.241894055283897,0.0652852567927365
13.543756,10.23747433662622,0.0651526620332042
13.54614,10.236686732409042,0.0649902389237622
13.548536,10.237249602632222,0.064813904341082
13.550924,10.238743638415182,0.0646367290694138
13.553304,10.240237674198138,0.0644593492227332
13.5557,10.2400091484884,0.0642804549869234
13.558088,10.238709687592024,0.0641064632329556
13.560467999999998,10.231963002963836,0.0639367551882491
13.562872,10.223353987216091,0.0637696232606271
13.56526,10.213813805908568,0.0636034515574258
13.56764,10.205763868668264,0.0634186988486818
13.570036,10.19277856437535,0.0632489957517543
13.572424,10.17779115933602,0.0630858003010804
13.574804,10.158008156870936,0.0629330673909921
