Time,Force,Position
12.644184,4.920389219789572,0.1698817796051104
12.64658,5.046534663200432,0.1689403892753694
12.648968,5.161137824557354,0.167936881780354
12.651352,5.25577099199409,0.1671981260562274
12.653748,5.341468382601118,0.1664250900675246
12.656136,5.415948356378301,0.1657296024103308
12.658516,5.4746476333253655,0.1652355211684497
12.660916,5.522873667547261,0.164817383661102
12.663304,5.568774631656513,0.1642416278984593
12.665684,5.600710008226961,0.1638382611203418
12.66808,5.627619365804047,0.1633822022984894
12.670468,5.647732921066835,0.1629452114913308
12.672848,5.665007653679913,0.1624830293721242
12.675248,5.673482587374403,0.1622188668653693
12.677632,5.684843565546847,0.1619415178213686
12.680016,5.700673380063078,0.161637070601792
12.682412,5.722182735736596,0.1612687234097788
12.6848,5.7451351136490905,0.1609000940706289
12.687184,5.769390744173702,0.160534534062748
12.68958,5.791736821750511,0.1602538480115998
12.691968,5.821252684551828,0.1598533914335846
12.694352,5.860871598883845,0.1592740883008593
12.696748,5.904028183999873,0.1586890117148302
12.69914,5.957008281392882,0.1579412115769574
12.70152,6.008358365091813,0.1572670836591912
12.703916,6.057287039163744,0.1566762898329683
12.706304,6.110871541034568,0.1560061546716192
12.708684,6.1604518414125575,0.1554213526439884
12.71108,6.200952803618241,0.155040566507452
12.713468,6.247599837690036,0.154532400169818
12.715864,6.284096598402887,0.1542401633473547
12.71826,6.32594803504893,0.1538372841652696
12.720648,6.364354348709579,0.1534852507132203
12.723032,6.411048604609617,0.1529597641855046
12.725428,6.458813795696293,0.1524181211444477
12.727816,6.506067130103771,0.1518791186121846
12.730196,6.55360000376497,0.1513386328164959
12.732592,6.6045780004115615,0.1507737975295464
12.734984,6.659140889670407,0.1501677893831327
12.737364,6.716776814862307,0.1495038416101057
12.739764,6.77199133042721,0.1489099808498452
12.742152,6.819988838939363,0.1484608404530126
12.744532,6.870919613757711,0.1479751779240823
12.746928,6.9215708493223405,0.1475200411227155
12.749316,6.972082315260108,0.1470725699981914
12.751696,7.021894933063575,0.1466627690264967
12.754092,7.070496846053543,0.1462891759822782
12.75648,7.126036226842541,0.1458058998127135
12.75886,7.190515176176984,0.1451815462302893
12.761256,7.249918988831955,0.1446546054053936
12.763644,7.31975261409959,0.14393880712133
12.766024,7.380367131568058,0.1433924497699751
12.768424,7.443775145715863,0.1428146237097256
12.770812,7.503318727997694,0.1423080844611497
12.773208,7.564073015093023,0.1417866584647406
12.775604,7.624687532561493,0.1412830716659175
12.777992,7.683299949283546,0.140819796013962
12.780372,7.73497489820657,0.140462506644545
12.782768,7.785206824890618,0.1401143878687257
12.785156,7.835718290828386,0.1397582084438763
12.787536,7.888511396766291,0.1393639548166974
12.789932,7.949312905689863,0.1388611921647663
12.79232,8.007320917934102,0.1384015907064007
12.794704,8.061464498312365,0.1379955000419045
12.7971,8.120822984996964,0.1375183968734097
12.799488,8.183953355748917,0.1369680118630195
12.801868,8.24843420094123,0.1363959430674689
12.804264,8.312542959081204,0.1358248541832248
12.806652,8.372927054982064,0.1353062250642168
12.809048,8.438526057189259,0.1347224616278788
12.811444,8.501052023463398,0.1341914286129108
12.813828,8.56721010417803,0.1335941304901929
12.816212,8.634998198586747,0.1329697068987386
12.818608,8.701203501129624,0.1323557330218948
12.820992,8.763963680687109,0.1317737406737769
12.823376,8.821416406139644,0.1312349684272184
12.825772,8.872490742300592,0.1307504749662564
12.82816,8.923472530662922,0.1302359118952767
12.830544,8.971800591972777,0.129745856744623
12.83294,9.019477026976576,0.1292585299831498
12.835328,9.062777173435205,0.1288061744326085
12.837708,9.09876776504246,0.1284228549384827
12.840108,9.130382068104549,0.128071582990629
12.842496,9.160832888181384,0.1277078222661239
12.844876,9.184765549339769,0.1274074756013468
12.847276,9.20618425307254,0.1271241525140312
12.849664,9.220433171580805,0.1268964876773226
12.852044,9.224671586356983,0.1267813577851656
12.85444,9.224533712587991,0.1266964586106168
12.856828,9.218296988781132,0.1266521521995021
12.859212,9.2101053860561,0.1265977669433202
12.863996,9.18138471090344,0.1265719387219394
12.86638,9.16392867440887,0.1265644564006638
12.868776,9.145029615675323,0.1265553048851314
12.871168,9.128551966568772,0.1265076292957881
12.873548,9.116358058208773,0.1264056960525645
12.875944,9.104723228356216,0.126280714981585
12.878332,9.091505606637826,0.1261599777590663
12.880716,9.075774027493818,0.1260511725497108
12.883112,9.062463857976809,0.1259036045541548
12.885504,9.046779500661046,0.125762157706845
12.887884,9.031514452225863,0.1256031989714028
12.89028,9.016948251924982,0.1254150555868043
12.892668,9.002009964571762,0.1252113904143936
12.895052,8.98255561904651,0.1250407347072884
12.897452,8.967385014267817,0.1248147994409756
12.89984,8.958128163929752,0.124496572718638
12.902224,8.945426190606298,0.1241967670838448
12.904616,8.92913932467059,0.1239218307188483
12.907,8.910198731682405,0.1236640085313639
12.909396,8.887533476455108,0.1234371823212213
12.911792,8.867429400481667,0.1231636561121934
12.91418,8.83973623040314,0.1229594144193045
12.91656,8.80938933327214,0.1227724158532571
12.918964,8.77932197539486,0.1225718278784526
12.921352,8.74995346565188,0.1223398999562374
12.923732,8.720584955908901,0.1221063986055483
12.926128,8.69256692060628,0.1218459169651665
12.928512,8.664828424557381,0.1215721298098584
12.930896,8.633365266269369,0.1213280901330296
12.933292,8.603764439100912,0.1210670643303958
12.93568,8.575234547119093,0.1207907938671946
12.93806,8.545074641443195,0.1205504982383326
12.940456,8.513052404647741,0.120324290029924
12.942844,8.481821563785205,0.1200951925736434
12.94524,8.448309082922531,0.1198982762818123
12.947632,8.411444026873081,0.1197471760947092
12.95002,8.381097129742082,0.1195399005558632
12.9524,8.357128621902667,0.1192821825934319
12.954796,8.332321496302093,0.1190596855620324
12.957184,8.315894860739524,0.1187652542204358
12.959564,8.295696341109599,0.118535695287503
12.961956,8.286811577823872,0.1182046380672273
12.964344,8.283234268643096,0.1178380841944098
12.96674,8.274302283529128,0.1175397115313845
12.969136,8.262110271026998,0.1173174824384587
12.971524,8.252432215950483,0.1170838285848367
12.973904,8.242195082366528,0.1168738967454099
12.9763,8.230327935088495,0.1167014473514957
12.978688,8.221905910795854,0.1165097307120735
12.981068,8.215066678369048,0.1163143680785875
12.983464,8.20873930262144,0.1161293373745356
12.985852,8.203343092433611,0.1159361252259025
12.988248,8.202043631537233,0.1157284569866328
12.990644,8.207402099186163,0.1154618808090276
12.993028,8.214622897954651,0.1151799299994952
12.995412,8.228501625268445,0.1148403361186655
12.997808,8.241169647768743,0.1145217778406543
13.000192,8.250624864709124,0.1142447338812402
13.002576,8.2642240527692,0.1139194619706456
13.004972,8.274889974523079,0.1136254853146034
13.00736,8.292353594449128,0.1132684102720981
13.00974,8.303531372882205,0.1129872658033095
13.012136,8.313638216128645,0.112720969993331
13.014524,8.331194383853312,0.1123973412491433
13.01692,8.351451500458696,0.1120231072122572
13.019316,8.367704415571247,0.1116899507741572
13.021704,8.384608956989855,0.111361426461309
13.024088,8.408171426953771,0.1109798443569985
13.026484,8.431314588037107,0.1106178720172395
13.028872,8.456320080240001,0.1102441274668895
13.031252,8.484119069122228,0.1098526215616413
13.033656,8.514571785056932,0.1094479288346184
13.036044,8.54767822804411,0.1090325053848309
13.038424,8.577432095844511,0.1086646762247834
13.04082,8.60769782032411,0.1083088668247617
13.043208,8.636613070363351,0.107982082108017
13.045592,8.666040177081786,0.10766667329819
13.047988,8.699191946039338,0.1073272776694067
13.050372,8.736859773168922,0.1069676337811979
13.052756,8.773968521791064,0.106632195132543
13.055152,8.811217040040066,0.1062963100039128
13.05754,8.850327889408623,0.1059481794490485
13.059924,8.89116130026988,0.1055968492124961
13.06232,8.931063545571357,0.1052552989466993
13.064708,8.974271144231366,0.1049103754829876
13.067088,9.022134570690268,0.1045373146434552
13.069492,9.07600429938842,0.1041184653210344
13.07188,9.1230763299144,0.1037536673324219
13.07426,9.16707532450733,0.1034155561339488
13.07666,9.211865715033174,0.1030811080973925
13.079044,9.254514235185743,0.102771577658864
13.081428,9.297302524965172,0.1024599309564624
13.083824,9.33557475657257,0.1021726002000962
13.086212,9.375337232247183,0.1018615042763352
13.088592,9.419103909414636,0.1015222831052705
13.090992,9.459006154716112,0.1012111208957309
13.09338,9.502260975204363,0.1008667265002609
13.095764,9.538578327893587,0.100574023139794
13.09816,9.567027047224004,0.1003408255228439
13.100548,9.593892974688584,0.1001078810655411
13.102932,9.61861703177989,0.0998976623939544
13.105328,9.642689462565135,0.0996831128724731
13.107716,9.661174899991709,0.0994996957506723
13.110096,9.679008711112226,0.0993126009521025
13.112492,9.691395298500936,0.0991516430386451
13.11488,9.70112815883717,0.0990015845021214
13.11726,9.702061220254818,0.0989117866280286
13.11966,9.70606731760552,0.0987971315869996
13.122044,9.71850112682247,0.0986092592298981
13.124424,9.729491913800446,0.0984176647191079
13.126824,9.737037577793028,0.0982352163546023
13.129212,9.74472301141247,0.0980490241938224
13.131608,9.756552416151608,0.0978300005494998
13.134004,9.76423784977105,0.0976448888651791
13.136392,9.764334189285403,0.0975025702573987
13.138772,9.76592077286698,0.0973360652503221
13.141168,9.76378269420944,0.0971887386817582
13.143556,9.771143262604788,0.0969619464681375
13.145936,9.782135945440633,0.0966925515803793
13.148336,9.7921974627167,0.0964269849513914
13.15072,9.801747123313568,0.0961521803256151
13.1531,9.811296783910436,0.0958777190313816
13.1555,9.82350017155978,0.0955936912282028
13.157888,9.833561688835845,0.0953287510822446
13.16028,9.844414602044829,0.0950635114646543
13.162676,9.85554705450753,0.0947891407647002
13.165064,9.87031162141073,0.0944718719849802
13.167444,9.88149129570168,0.0941674935851625
13.16984,9.882288379208202,0.0939176992485113
13.172228,9.878010326035255,0.093703929921694
13.174608,9.87573437360873,0.0934757885136393
13.177004,9.870013298196806,0.093255613835633
13.179392,9.860427790918912,0.0930579172669942
13.181772,9.850982053267876,0.0928547388771658
13.184172,9.840884689310782,0.0926450475953347
13.18656,9.82864545498041,0.0924533770045864
13.18894,9.813612723970705,0.0922741564213398
13.19134,9.788849028482636,0.0921520944016427
13.193724,9.76101229706151,0.0920517008762175
13.196108,9.736807680080885,0.0919084803706251
13.198504,9.706456991234145,0.0918097671953419
13.200892,9.673732114588647,0.0917082587860651
13.203288,9.638121193465205,0.0915935798707222
13.205684,9.6042800556627,0.091444007443457
13.208076,9.571277535621354,0.0912638366272828
13.210456,9.536412684460451,0.0910907757141562
13.21286,9.498195258112776,0.0909484693043746
13.215248,9.459977831765098,0.0908052671527068
13.217628,9.424414132469895,0.0906534371270135
13.220028,9.39006113798819,0.090486814848805
13.222416,9.354916747573569,0.0903182527815979
13.224796,9.317350947531947,0.0901771586233339
13.227192,9.278062585997631,0.0900382909646855
13.22958,9.23770328927668,0.0899083337883274
13.23196,9.199997719608202,0.089769971314755
13.234356,9.16350285475322,0.0896161765192839
13.236748,9.12779938583116,0.0894624029892013
13.239128,9.096751744707984,0.0892863214803201
13.241524,9.063702002838395,0.0891230054721777
13.243912,9.026088980968533,0.0890063021456116
13.246292,8.99662413171119,0.0888289281329931
13.248692,8.970604405439246,0.0886437626319099
13.25108,8.95082329883203,0.0884384098599536
13.25346,8.92605960334396,0.0882954246813868
13.25586,8.901388455654507,0.0881782896769003
13.258248,8.876158229457612,0.0880813581926319
13.260628,8.85558383105961,0.087963219776557
13.263024,8.841667361206914,0.0878106261062811
13.265412,8.831335783966473,0.0876466699558582
13.267796,8.82645143045784,0.0874635102163059
13.270196,8.825012199934603,0.0872746416238537
13.272584,8.829159962770031,0.0870614216058521
13.274964,8.835681913404215,0.0868512335166899
13.27736,8.847279000717874,0.0866057850489564
13.279748,8.863811455084143,0.0863319975111876
13.282128,8.878574126129473,0.0860922094887686
13.284524,8.894919589040638,0.0858544563386995
13.286912,8.90856410307109,0.0856549560161814
13.289292,8.928447236766267,0.0854380590921652
13.291688,8.952986198260337,0.0852013696900964
13.294076,8.974963980500547,0.0849998525034864
13.296472,8.997453619419955,0.0848112349929122
13.298868,9.016311143898868,0.0846659219818399
13.301256,9.042385675430532,0.0844681369454614
13.303636,9.06804089808161,0.0842855158326464
13.306032,9.098491718158444,0.0840791191423877
13.30842,9.125729732675362,0.0839000127275805
13.3108,9.150406567938422,0.0837560147561178
13.313196,9.172941532828208,0.0836303521473698
13.315584,9.192123922531213,0.0835365254379548
13.317964,9.209024672234085,0.0834655362269675
13.320368,9.226716817869873,0.0833966989779574
13.322752,9.241056388318883,0.083358208710933
13.327532,9.266056192948168,0.0833548500353557
13.329916,9.282490411942216,0.0833320041561538
13.3323,9.301857897242458,0.0832940539321821
13.334704,9.32751122403567,0.0832106581382229
13.337088,9.350231284522687,0.0831430181709023
13.339468,9.373742740942625,0.0830776691418806
13.341868,9.400839089974813,0.083003910340578
13.344252,9.431520331619252,0.0829226234587696
13.346636,9.462201573263693,0.0828406692416366
13.349032,9.490321635654276,0.0827903135114909
13.35142,9.524308230657253,0.082710963148001
13.353812,9.556804581593006,0.0826544969990591
13.356216,9.591954659581235,0.0825924372387241
13.358604,9.62403170163641,0.0825493407620952
13.360984,9.656760369997643,0.0825121909842273
13.363384,9.69270184391879,0.0824511570762834
13.365772,9.733159376011969,0.0823785842173579
13.368152,9.770683641798955,0.0823210315570578
13.370548,9.817007706504524,0.0822196857640503
13.372936,9.861050131209955,0.0821392295670483
13.403988,10.236978366209035,0.0821325859717518
13.406384,10.257137247442197,0.08210160054663
13.408772,10.278646603115716,0.0820542984907322
13.411152,10.29764200136362,0.0820079844138923
13.413552,10.31081808882738,0.0819611131836075
13.415944,10.32320278035822,0.0819127001715614
13.418324,10.330280017784112,0.0818740665935794
13.42072,10.337124937784523,0.0818164187669465
13.423108,10.33652053330671,0.081782696900797
13.425488,10.339408473642528,0.0817177457126481
13.427892,10.339782456552737,0.0816529719484932
13.43028,10.339924122037466,0.0815691820136535
13.432656,10.336480894909942,0.0814930575845968
13.435056,10.333177437409278,0.0814123893370042
13.43744,10.32936212322942,0.081321387446288
13.439824,10.321682377183585,0.0812466213429847
13.442228,10.316284271137889,0.0811523831942404
13.444616,10.303436840613964,0.0810824692709731
13.446996,10.293522676396234,0.0809987368789338
13.470892,10.029931129616902,0.080953101357846
13.47328,10.001625971629084,0.0809478303644682
13.47566,9.97718524550724,0.0809255466792669
13.478056,9.952604749758535,0.0809072469027984
13.480444,9.930026354756247,0.0808782119368936
13.48284,9.908938203821178,0.0808277514455928
13.485236,9.885847952139692,0.0807876167048614
13.487624,9.86797260676454,0.0807141190347135
13.490008,9.843299563217212,0.0806705994979191
13.492404,9.821420016349222,0.0806179461788745
13.494792,9.799028612802037,0.0805540570770932
13.497172,9.775706043695074,0.0804928154723422
13.499572,9.757458611267586,0.0804022919181866
13.50196,9.741213279586509,0.0803007380373537
13.50434,9.728040983838488,0.0801802860656229
13.506736,9.716358932157688,0.0800376344692839
13.509124,9.69895011749136,0.0799177922450544
13.511504,9.680749906892112,0.0797958499501081
13.5139,9.659476660359807,0.0796923373876246
13.516292,9.6423473849472,0.0795614342238568
13.518668,9.621493447295476,0.0794426256976068
13.521068,9.59542460333742,0.079358040980561
13.523452,9.565770866767112,0.0792804958074709
13.525836,9.53318386389061,0.0792166898226737
13.528232,9.499665695454327,0.0791553976368035
13.53062,9.467078692577823,0.0790897404588387
13.533016,9.433700293768403,0.0790221757446718
13.535412,9.402184226078536,0.0789475806818356
13.5378,9.37746585656084,0.0788416483404854
13.54018,9.353818422229786,0.0787274690450468
13.542576,9.329891448645007,0.0786222060363983
13.544963999999998,9.308106345433506,0.0785007383025898
13.547344,9.284179371848731,0.0783943512605565
13.549748,9.262254499010371,0.0782768320167844
13.552132,9.242191957291569,0.0781529845539256
13.554512,9.225062681878956,0.0780151458784608
13.556907999999998,9.215802039825157,0.0778390337895807
13.559295999999998,9.209334894450688,0.0776536563416072
13.561676,9.206871950569056,0.0774466718558085
13.564068,9.203989697806843,0.077254208952595
13.566456,9.207765373589936,0.0770372564609871
13.568851999999998,9.212611984559668,0.0768110330228606
13.571256,9.217039286648822,0.0765985681883756
13.57364,9.222397754297754,0.0763821590821738
13.576019999999998,9.226545517133188,0.0761778571110735
13.578424,9.227200935154984,0.0760066558242537
13.580808,9.235305677655008,0.0758124797819067
13.583187999999998,9.244062046461089,0.0756261282787991
13.585592,9.248674444147472,0.0754658981351282
13.58798,9.255940568886334,0.0753024036482985
13.59036,9.265069024744754,0.0751335798317523
13.592764,9.271776070976175,0.0749899252436012
13.595148,9.28141638351379,0.0748331652497574
13.597532,9.28905459530499,0.0746866039325143
13.599928,9.293480001536276,0.0745630886275661
13.602312,9.299627969260252,0.0744397654256316
13.604691999999998,9.305915706611096,0.0743125813609767
13.607096,9.31499694064127,0.074178262302753
13.609484,9.323798635417724,0.0740539949862974
13.611864,9.334462661313736,0.0739250666627054
13.61426,9.34340412571705,0.0737978376471064
13.616644,9.362867950531648,0.0736355180471611
13.619027999999998,9.387267142398857,0.0734522306459263
13.62142,9.417532866878457,0.0732463445440849
13.623808,9.453944663224163,0.073008975415021
13.626188,9.49356926512979,0.0727504727943613
13.628592,9.529329435169442,0.0725080328717533
13.630976,9.565369144462815,0.0722585312235581
13.633359999999998,9.605552824875884,0.0719867343428414
13.635764,9.647878375662229,0.0717043711906992
13.638148,9.691926487941268,0.0714242539925529
13.640527999999998,9.7389078665265,0.0711335721250067
13.642924,9.78961390735085,0.0708374785785282
13.645307999999998,9.84604671116073,0.0705255361116998
13.647692,9.905552550903662,0.0701992023309257
13.650087999999998,9.96319605952704,0.0698801004697763
13.652472,10.019209554456337,0.069587416566526
13.654868,10.075362819012494,0.0692940968006319
13.657264,10.131655853195513,0.0689980212315621
13.659652,10.18901982256517,0.06869837099277
13.662031999999998,10.240749576747913,0.0684391072012904
13.664428,10.281677431265653,0.068220877614325
13.666816,10.32167412022362,0.0680067603091513
13.669196,10.359668708435166,0.0678032509300193
13.671592,10.39165699440746,0.0676249912785003
13.673979999999998,10.423505510752896,0.0674518815315964
13.676372,10.457356127844749,0.0672718226266944
13.678768,10.489204644190185,0.0671007861178297
13.681156,10.521984326095398,0.0669299600922374
13.683535999999998,10.550899576134638,0.0667717032222219
13.685932,10.577300868748264,0.0666112673207936
13.68832,10.602119369496055,0.0664467241624371
13.690699999999998,10.620419711325397,0.0662945971140157
13.693104,10.63699749166204,0.0661429761828758
13.695492,10.65078177531935,0.0659965594523884
13.697871999999998,10.66456605897666,0.0658507277234932
13.700268,10.676767550768131,0.0656998453498365
13.702652,10.682962740320356,0.0655705954281072
13.705048,10.68808699468594,0.0654471743757261
13.707451999999998,10.690557521999052,0.0653247126271852
13.709839999999998,10.698802034125936,0.0651623499252906
13.712216,10.714403322932426,0.0649657727754639
