Time,Force,Position
11.961328,4.231779029686697,0.175431803932733
11.963716,4.303278515329442,0.174635023268694
11.966091999999998,4.368308959739849,0.1737782215506307
11.968488,4.428825241836096,0.1728870069228033
11.970871999999998,4.481195247177683,0.1721376899397695
11.973268,4.525978054272054,0.1714445214579901
11.975671999999998,4.5641048286789845,0.1708020519801383
11.978056,4.593805787077535,0.1702921415997475
11.980436,4.618898139505439,0.1698566094789287
11.982839999999998,4.638683037828393,0.1695494443152016
11.985224,4.656605605031791,0.169294740706931
11.987604,4.680115165593858,0.1689035068892543
11.990007999999998,4.702553790969287,0.1685486435446153
11.992395999999998,4.723130085225159,0.1682409173263012
11.994776,4.740401026122497,0.1679952667539257
11.997171999999996,4.758742902206473,0.1677111696644741
11.99956,4.776153612730672,0.1674554667702509
12.001936,4.790631056948676,0.1672851846602589
12.004336,4.800592442994648,0.1672217549176871
12.009104,4.817861488034118,0.1671562934396521
12.011507999999996,4.829824974826506,0.1670369892014347
12.018679999999998,4.85258656956816,0.1669559754402217
12.021063999999996,4.858498428150925,0.1669028246050787
12.023448,4.863898430054492,0.1668391900520029
12.025843999999998,4.868786575278864,0.1667621674763642
12.028231999999996,4.870928445652142,0.1666929334062362
12.030608,4.876190573786718,0.1664725200117603
12.033004,4.883362254869093,0.1661498689332887
12.035392,4.88280507221952,0.1660300396871795
12.037772,4.884529529570087,0.1658320772269879
12.040168,4.890258188413486,0.1655250021367342
12.042552,4.8969180128166645,0.1651957581044628
12.044948,4.905579937966259,0.1648139105792105
12.047344,4.914661171996434,0.164400944681596
12.049728,4.92267147083997,0.1640172651934227
12.052112,4.934825740803201,0.1635138184353688
12.054512,4.944977910020015,0.1630653371636479
12.0569,4.958342884796744,0.1625198806198545
12.05928,4.96770365808064,0.1620854507252415
12.061676,4.979997697670729,0.1615777297290588
12.064064,4.994293838007237,0.1610177364967084
12.066444,5.013525345396355,0.1603339719606807
12.068847999999996,5.032477313531754,0.1596780175993271
12.071236,5.047285310547459,0.1591401185563515
12.073616,5.0643749475633015,0.1585300523572712
12.076019999999998,5.081976441258341,0.1579291755269663
12.078403999999995,5.095433963833687,0.1574468002961961
12.080788,5.1066098464088965,0.157043188057926
12.083183999999996,5.119415742678185,0.1565600296213297
12.085571999999996,5.132640947828054,0.1560513681286857
12.087952,5.1401393899923935,0.1556738958436225
12.090355999999998,5.144704565850538,0.1553651940218005
12.092739999999996,5.145824618723288,0.1551151200183907
12.095124,5.141869534916566,0.15499793900788
12.097519999999998,5.144479831856536,0.154684026798897
12.099904,5.1460191936098685,0.154403322994156
12.102288,5.14904879943042,0.1540591996975042
12.104684,5.152497714131552,0.1536867077046933
12.107072,5.15971851290004,0.1531840011746554
12.109452,5.163494188683134,0.1527360609285098
12.111855999999998,5.166338698906451,0.1523084540301121
12.11424,5.165179007636933,0.1519779278902524
12.11662,5.161365589314941,0.1516914725114345
12.119023999999998,5.1626273076724205,0.1512823393544374
12.121408,5.16346971714932,0.1509069537878924
12.123788,5.166593766626358,0.1504645366916139
12.126184,5.17251131278273,0.1499676571149097
12.128568,5.175775131886627,0.1495119927657066
12.130964,5.178899181363662,0.1490659938124301
12.133359999999998,5.176016928601447,0.1487595187368768
12.135744,5.177558186212647,0.1483267236268513
12.138128,5.185105746063096,0.1477542014625817
12.140527999999998,5.193304932219604,0.1471821604478035
12.142915999999998,5.204577154309166,0.1465271364706845
12.145296,5.209144226025179,0.1460718830006956
12.147691999999996,5.211988736248495,0.145643231057366
12.150079999999996,5.212551606471672,0.1452819122754549
12.195472,5.00509074857255,0.145064037328873
12.197876,4.99894657256431,0.1450513255992822
12.200264,4.993873331742707,0.1450103287915506
12.202643999999998,4.998670825026328,0.1447517359777079
12.20504,5.004259714242867,0.1444889047600487
12.207427999999998,5.01264210013874,0.1441740937342366
12.209808,5.020465407527173,0.1439025378365269
12.212212,5.03229291640844,0.1435474729654038
12.2146,5.043980655662845,0.1432018231112765
12.216979999999998,5.0615349275296415,0.1427294720341369
12.21938,5.076016163463383,0.1423289636407462
12.221768,5.0931511264496,0.1418879004506924
12.224147999999998,5.111496794249316,0.1414140614470038
12.226552,5.131053166862529,0.1409050297592176
12.22894,5.1547535105954365,0.140301927217747
12.231319999999998,5.1807354943284825,0.1396444067572887
12.233716,5.214865650674055,0.138811778705935
12.236104,5.244200209593876,0.1380795694187004
12.238483999999998,5.270881041461222,0.1373931882545179
12.24088,5.295280233328431,0.1367703480259721
12.243268,5.3270362018752495,0.1359734377431816
12.245647999999996,5.35651053042193,0.1352435474526604
12.248043999999998,5.383703218968474,0.1345704413213413
12.250431999999998,5.403818670089128,0.1340561890436349
12.252812,5.420721315649868,0.1336186858825611
12.255207999999998,5.437484191583747,0.1331939860500031
12.257595999999998,5.454107297890765,0.1327787707642083
12.25998,5.463373627518175,0.1325302773356975
12.262371999999996,5.474362518638279,0.1322618030196869
12.26476,5.4898674679304165,0.1319359864197029
12.267144,5.508957309834808,0.1315608455354938
12.269539999999996,5.530700878791673,0.1311581969358507
12.271927999999996,5.55002303812154,0.1308249687039236
12.274323999999998,5.572930090063661,0.1304527994836795
12.27672,5.593555502005644,0.1301414679959649
12.279103999999998,5.608686468387573,0.1299556768756799
12.281484,5.621256255515646,0.1298484241118925
12.283888,5.637271165629112,0.1297076218827399
12.286272,5.652587227608277,0.1296122080661803
12.288651999999995,5.670696786266777,0.1294778097452563
12.291047999999998,5.693741711977888,0.1292711508927395
12.293435999999998,5.721722004741611,0.1289887303262878
12.295816,5.754637664557947,0.1286264039275032
12.298211999999998,5.791697295493976,0.128191178474405
12.300599999999998,5.8349029982961165,0.127653037967241
12.302991999999998,5.882112902591092,0.127061066468328
12.305396,5.935329109125315,0.1263839532319039
12.307784,5.996274179391486,0.1255967262664478
12.310164,6.058941811150355,0.124802856994648
12.312568,6.1166740758566105,0.1241002934665142
12.314952,6.177479376495923,0.1233619314782414
12.317336,6.233489079709484,0.1226934610285738
12.319739999999998,6.293642754042738,0.1219630719514327
12.322124,6.346719190950105,0.1213468090177847
12.324504,6.402077267857607,0.120692663088104
12.326907999999998,6.4614395462579415,0.1199752129830971
12.329295999999998,6.518287867232663,0.1192802938372803
12.331676,6.5744845619013255,0.1185898116607508
12.334079999999998,6.634033831756764,0.1178396913014524
12.336463999999998,6.6935831016122025,0.1170977378252731
12.338848,6.742842328481838,0.1165259885036578
12.341239999999996,6.788237123485501,0.1160120692813983
12.343628,6.832980292183105,0.1155009426063051
12.346008,6.873439720134155,0.1150620323337675
12.348404,6.913107752152287,0.114638383609738
12.350792,6.947840417117807,0.1142825718755439
12.353172,6.977777484657575,0.1139872076987719
12.355575999999996,7.003198494025313,0.1137333843418241
12.357963999999996,7.027456020407794,0.1134647903652899
12.36034,7.051341459737938,0.113177550407563
12.362743999999998,7.068057113843573,0.1129475548619472
12.365131999999996,7.087333947203068,0.1126654998975081
12.367516,7.101443096084472,0.1124155504653593
12.369911999999998,7.120395064219872,0.11207562112814
12.372296,7.135622370116159,0.1117715444917655
12.37468,7.153830164146886,0.111400178336726
12.377083999999998,7.170035857431193,0.1110510676540169
12.379467999999996,7.183448054036168,0.1107275384736977
12.381848,7.199421429895001,0.1103597753155819
12.384251999999998,7.21702481944791,0.1099546114546837
12.386639999999998,7.238539862695036,0.1094715041819659
12.38902,7.260613984449603,0.1089641892510419
12.391424,7.280313918405415,0.108462506604839
12.393812,7.301923405309027,0.1079060141057478
12.396195999999998,7.31673519404047,0.1074179357399644
12.398592,7.331035126092715,0.1069171427580287
12.40098,7.339748064786289,0.1064591084924518
12.403359999999996,7.346878211614028,0.1060020102989641
12.405755999999998,7.351866488068489,0.1055743260988977
12.408143999999998,7.356854764522951,0.10514741073356
12.410524,7.366498868776304,0.1046836500104465
12.412919999999998,7.37400110265638,0.1042490615476401
12.415307999999998,7.380152862096096,0.1038396872223728
12.417688,7.385373455976036,0.1034406430253394
12.420087999999998,7.387940322803499,0.1030544824917963
12.422471999999996,7.385432052951489,0.1027264305496494
12.424856,7.38469356642042,0.1023502694284132
12.42726,7.383582992837014,0.1019533895669929
12.429643999999998,7.372741454775245,0.1016470310576907
12.432028,7.3551022185413055,0.1014018641453336
12.434419999999998,7.333458780814532,0.1011963438139315
12.436807999999996,7.309161616035285,0.1010031268452558
12.439188,7.284584912002318,0.1008216868435709
12.441591999999998,7.260008207969349,0.1006383539290376
12.443979999999998,7.235990582443823,0.1004271550818068
12.44636,7.21132133061224,0.1002076913219278
12.448755999999998,7.194008855460266,0.0998998708297651
12.451143999999998,7.1789780203084295,0.0995574286799356
12.453524,7.163295558850535,0.0992068341501608
12.45592,7.145750766273085,0.0988682758899854
12.458308,7.124760850710241,0.0985415177438887
12.460688,7.105121409587757,0.0981871677667392
12.463084,7.090836644398465,0.0977665612104383
12.465472,7.074549778462755,0.0973647133643267
12.467852,7.0659917762589926,0.0968993635389952
12.470252,7.055291903681954,0.0964576789325464
12.47264,7.045243657410973,0.0960224895770875
12.47502,7.035055641513132,0.0955919416941916
12.477416,7.028592287854404,0.0951338571433296
12.479804,7.025993366061648,0.0946424764418038
12.482183999999998,7.024605149082393,0.0941289184288173
12.484588,7.020935292102999,0.0936446461490967
12.486972,7.017544974377327,0.0931460910470165
12.489351999999998,7.012152555905239,0.0926657792405444
12.491756,7.008342929298985,0.0921849042231961
12.494144,7.005045159371928,0.0917169790222168
12.496524,6.99746364869832,0.0913004712567322
12.498927999999998,6.987740267651433,0.0909083102394549
12.501315999999996,6.978808282537464,0.0905156537570592
12.503696,6.973228872610271,0.0900781953202275
12.506092,6.965367822682941,0.0896696397573146
12.508476,6.959648643128888,0.089237403748713
12.510856,6.948714557268501,0.0888595403716187
12.51326,6.931634399542006,0.0885390919746789
12.515648,6.906825378083563,0.0882756375450975
12.518028,6.883087291811758,0.0879980392549984
12.520431999999998,6.856136399980038,0.0877561653567256
12.522816,6.829045738521456,0.0875191558387012
12.525196,6.797950875570042,0.0873168115639069
12.527592,6.76578507743199,0.0871249482609004
12.52998,6.7350623015329125,0.0869408351628653
12.53236,6.705270691193614,0.0867500222236981
12.534756,6.672126505667539,0.0866022647854268
12.537144,6.637631845701106,0.0864800502229434
12.53954,6.603137185734673,0.0863560028541682
12.541935999999998,6.568782295395099,0.0862233757127699
12.544323999999998,6.533216700242028,0.0861097041229737
12.546704,6.4992338969547925,0.0859973155658627
12.549108,6.466182259227336,0.0858774835205198
12.551491999999998,6.4304296726191605,0.0858083609463641
12.55628,6.359389134253764,0.0857281073893784
12.558663999999998,6.323589325817345,0.0856998168973312
12.561047999999998,6.298731186672789,0.0855755910270351
12.563439999999998,6.276387004953848,0.085448785875649
12.565827999999998,6.25776748547402,0.0852994173292727
12.568211999999995,6.243291937113886,0.0851063480680357
12.570607999999998,6.234543151739283,0.0848746296927413
12.572995999999998,6.233662999723486,0.0845795506865242
12.575376,6.233434474013746,0.0842934596495112
12.577771999999998,6.230132912370952,0.0840360087881281
12.580163999999998,6.233629048900327,0.0837293476958094
12.582544,6.24378311397501,0.0833800678334511
12.584939999999998,6.26166604278164,0.0829785927035092
12.587324,6.278058727521051,0.0826091531252538
12.589708,6.294171873006741,0.0822537685029364
12.592111999999998,6.310145248865571,0.0819019675077682
12.594495999999998,6.323836984724264,0.0815810493870896
12.59688,6.336178246142598,0.0812870450724559
12.599275999999998,6.346377637187656,0.0810157116119539
12.601663999999998,6.356716797859573,0.0807376280495181
12.604044,6.374272965584239,0.0803876958953695
12.606439999999996,6.392201220361242,0.0800636278221448
12.608824,6.404774799205054,0.0798033748835377
12.611219999999998,6.4201418747282,0.0795294383152972
12.613616,6.434298245437847,0.0792770586679978
12.616003999999998,6.450037408013332,0.079032725370945
12.618387999999998,6.461492829842261,0.0788374311562441
12.620784,6.469455906857554,0.0786920185945086
12.623172,6.475416883126432,0.0785621416900542
12.625551999999995,6.487523931261419,0.0783780864863017
12.627947999999998,6.494416073090074,0.078245277630085
12.630335999999998,6.498235178985674,0.078140048183998
12.632719999999996,6.494185651522466,0.0780897994128978
12.635115999999998,6.493348929619174,0.0780061435769284
12.637503999999998,6.494374538835438,0.0779140906367651
12.639884,6.504199946970289,0.0777647386164783
12.642283999999998,6.518309095851691,0.0775718049621754
12.644667999999998,6.53563105029301,0.0773470668089686
12.647048,6.556165810294247,0.0770883631114861
12.649447999999998,6.57763173585526,0.0768271520300948
12.651835999999998,6.593603215856221,0.0766280284864719
12.654216,6.609714465484042,0.0764230826499046
12.656611999999996,6.629829916604696,0.0761899721789383
12.659,6.649153971792433,0.0759561276496643
12.661384,6.665544760673974,0.0757404982735976
12.663779999999996,6.675789477689406,0.0755750864865858
12.666168,6.688176065078113,0.0753894517747246
12.668548,6.70191312690718,0.075180432545526
12.670951999999998,6.717652289482663,0.07495647336118
12.673339999999998,6.73097004243115,0.0747690375310105
12.675724,6.746289896126053,0.0745676352012972
12.678119999999998,6.762960224261317,0.0743435756330782
12.680503999999996,6.782703588329634,0.0740942476460776
12.682899999999998,6.80337811795773,0.0738436051983769
12.685292,6.824332186839546,0.0735817140639129
12.68768,6.8384885575491925,0.0733607633302955
12.690059999999995,6.854367489751537,0.0731425836456364
12.692464,6.867313155647684,0.0729421868735238
12.694848,6.883192087850028,0.0727273954903314
12.697227999999996,6.8998624159852895,0.0725173929054235
12.699632,6.918954153747549,0.0722747056222393
12.70202,6.939116826696448,0.0720243957028246
12.704399999999998,6.952481801473178,0.0718090086898878
12.706796,6.961842574757074,0.0716186095504026
12.709184,6.973205448787385,0.0714150317460437
12.711563999999996,6.99006276837775,0.0711573506746215
12.713968,7.001984720915504,0.0709281959640644
12.716356,7.014046443080117,0.0706941919914093
12.718735999999998,7.03332517229748,0.0704116399577609
12.721132,7.0519522752087855,0.0701204425928865
12.72352,7.068717047000533,0.0698355648186401
12.725903999999998,7.082269013232366,0.0695783472217904
12.7283,7.095541440210478,0.0693339599844423
12.730688,7.1058806008823945,0.0691052427772918
12.733067999999998,7.114077891181036,0.0688951391754125
12.735459999999998,7.125487987039591,0.0686590231921826
12.737847999999998,7.132102485472394,0.0684441636609987
12.740244,7.138437444651478,0.0682412348965926
12.74264,7.141699367897505,0.0680597957450338
12.745028,7.145380600024114,0.0678613903190928
12.747407999999998,7.1470597314043065,0.067673899680778
12.749804,7.144083034985607,0.0674990829648732
12.752188,7.147904036739076,0.0672941191076483
12.754571999999998,7.157871110358656,0.0670500291597765
12.756968,7.167977953605096,0.0668002483649717
12.759351999999998,7.17501176091848,0.0665710424103416
12.761735999999996,7.18511860416492,0.0663216207687642
12.764131999999998,7.191221245918525,0.0660938340979246
12.766519999999998,7.18503174393991,0.0659438340064524
12.768911999999998,7.178842241961294,0.0657937415297773
12.771316,7.173723675169317,0.0656350497501847
12.773704,7.172749079497034,0.0654490747709065
12.776084,7.176197994198165,0.0652253123554978
12.77848,7.186584376698325,0.0649704863492913
12.780868,7.19990402550468,0.0647041024124693
12.783248,7.210662495057178,0.0644727243483524
12.785652,7.21848769830348,0.0642521092985744
12.78804,7.229385937482839,0.0640138753613238
12.79042,7.239073471848698,0.0637892958882711
12.792823999999998,7.244477265468003,0.0635971902344583
12.795208,7.254536886886199,0.0633953377209366
12.797592,7.270043732036206,0.0631876840362226
12.799987999999995,7.2806152101336,0.063002456261891
12.802376,7.284900846738024,0.0628588855416833
12.804756,7.289977879275365,0.0627196480599026
12.807159999999998,7.298779574051819,0.0625734852707142
12.809547999999998,7.311305931067387,0.062421156292103
12.811928,7.328348346254986,0.0622653332225729
12.814323999999996,7.350465898122059,0.0620811079693811
12.816711999999995,7.37230391073541,0.0619090489489774
12.819092,7.39479354965482,0.0617475481445728
12.821488,7.417143418947369,0.0615939437022238
12.823876,7.431065576373669,0.0614956962129167
12.826256,7.432043963761691,0.0614550573573534
12.828656,7.433162120776573,0.0614089438455123
12.83104,7.433768421112257,0.0613471616073883
12.833424,7.440241254060331,0.0612636290669885
12.83582,7.446574317381546,0.0611865146980811
12.838204,7.457470660703034,0.0610691366295312
12.840583999999998,7.473302371077136,0.0609327846171473
12.842992,7.4875512895854,0.0607895596492242
12.845376,7.49914648104119,0.0606462324999457
12.847756,7.515956578803312,0.0604736494859434
12.850152,7.538912748431545,0.0602700561315275
12.85254,7.562148457313498,0.0600566652398656
12.854919999999998,7.581379964702617,0.0598611339987634
12.85732,7.595815874665985,0.0596793990142769
12.859708,7.613744129442989,0.0594685993118543
12.862087999999998,7.630741218660215,0.0592591579520919
12.864484,7.648949012690939,0.0590380363073526
12.866867999999998,7.666365410788745,0.0588131822906162
12.869268,7.681779708140134,0.0585973946893346
12.871663999999996,7.702408911797855,0.0583524693164274
12.874048,7.731046518441245,0.058073071947224
12.876432,7.754329449151442,0.0578276852907974
12.878828,7.77547050948836,0.0575950576887769
12.881212,7.794609469078864,0.0573717021950924
12.883596,7.808952831243614,0.0571600068055139
12.885992,7.817801747848312,0.0569883605031377
12.88838,7.824788333333454,0.0568203193886957
12.890759999999998,7.826560012512262,0.0566796205568818
12.893156,7.82805215243735,0.0565499922253346
12.895544,7.824189616429246,0.0564536661983957
12.89794,7.818324979674726,0.0563653365629047
12.900339999999998,7.813391508479983,0.0562761193989022
12.902723999999996,7.809528972471878,0.0561803371286923
12.905108,7.8036643357173565,0.0560916077889291
12.907503999999998,7.789371987096587,0.0560490156970213
12.909891999999996,7.776290343289316,0.0559941901993615
12.912276,7.762277533922268,0.0559400388933649
12.914668,7.748404494182081,0.0558802188752017
12.917056,7.731458418508836,0.0558338955777206
12.91944,7.713441407648953,0.0557936060444824
12.921835999999995,7.694353461602433,0.0557592839420158
12.924224,7.6775471555560495,0.0557069064793034
12.926604,7.665536446935418,0.0556444259931161
12.929007999999998,7.653665507941645,0.0555762988571102
12.931395999999998,7.647661101560264,0.0554919631028602
12.933776,7.643938335179021,0.0553893721976639
12.936171999999996,7.635000662491445,0.0553126088824484
12.938563999999998,7.632069292043119,0.0552140012083384
12.940944,7.628626064915595,0.055099723099549
12.943339999999996,7.626253772974709,0.0549786859088363
12.945727999999995,7.617875178794573,0.0548788226343007
12.948108,7.603350512748327,0.0548058918644588
12.950511999999998,7.584821645209248,0.0547472384677568
12.952899999999998,7.568294878416584,0.0546809377188285
12.95528,7.552187420504502,0.0545974920902047
12.957675999999998,7.536591819271617,0.0545297866078689
