Time,Force,Position
3.7537759999999993,0.07344938286130294,0.0
3.75612,0.06483099043893643,0.0
3.758464000000001,0.05500189320307119,0.0
3.760808,0.0471748967136228,0.0
3.7631520000000007,0.04069837466453336,0.0
3.765504000000001,0.03422185261544392,0.0
3.7678439999999993,0.027745330566354483,0.0
3.770188,0.020337642957486725,0.0
3.77254,0.01479228646817561,0.0
3.7748839999999992,0.012278329042561069,0.0
3.777228,0.01297717717686212,0.0
3.779572000000001,0.014937641053920165,0.0
3.7819119999999993,0.013256716430582537,0.0
3.784264,0.013256716430582538,0.0
3.786608,0.013354849188083944,0.0
3.788951999999999,0.012982762135746465,0.0
3.7912880000000007,0.009439506392852196,0.0
3.793632,0.008555562661317025,0.0
3.7959799999999992,0.011536050795755346,0.0
3.79832,0.01405559318025423,0.0
3.800664,0.015504200378114587,0.0
3.803004000000001,0.019094677949252,0.0
3.805348,0.02533888257286417,0.0
3.807683999999999,0.03051215200983781,0.0
3.810024,0.03675635663344998,0.0
3.812368,0.04393172681684046,0.0
3.814708,0.051898492933149055,0.0
3.817052,0.05879432386281913,0.0
3.819396,0.0656901547924892,0.0
3.821736000000001,0.07276739221837829,0.0
3.824068,0.0775629896441301,0.0
3.826412,0.08543162300293729,0.0
3.828756,0.09325861949238567,0.0
3.831096,0.1021565511684726,0.0
3.833436,0.10988541490041959,0.0
3.8357800000000006,0.1119800634454535,0.0
3.838120000000001,0.11524377993462734,0.0
3.840456000000001,0.1167793499722204,0.0
3.8427960000000008,0.11337955295720147,0.0
3.84514,0.11105069112882104,0.0
3.84748,0.11179486523349601,0.0
3.849824000000001,0.10839506821847707,0.0
3.852168,0.10248131377784357,0.0
3.854516,0.0976384945238486,0.0
3.8568640000000007,0.09139428990023643,0.0
3.859212,0.0844096002729644,0.0
3.861552000000001,0.07644283415665581,0.0
3.863896,0.06954700322698575,0.0
3.86624,0.06265117229731566,0.0
3.868580000000001,0.054684406181007054,0.0
3.870920000000001,0.04685740969155867,0.0
3.873256000000001,0.03702831245569343,0.0
3.875604,0.02925222689550329,0.0
3.877948000000001,0.02035429521941637,0.0
3.880292,0.012527298729967992,0.0
3.882632,0.013318694662886101,0.0
3.884976000000001,0.015181025782442742,0.0
3.8873279999999992,0.01825406171549812,0.0
3.8896640000000007,0.02346896802183056,0.0
3.892012,0.031477371007497965,0.0
3.894352000000001,0.037623442873608734,0.0
3.896696,0.04456091067263761,0.0
3.899044000000001,0.04828557291175089,0.0
3.9013839999999993,0.05322093996436291,0.0
3.903736,0.05648465645353676,0.0
3.90608,0.058626526826813824,0.0
3.90842,0.060959077756209346,0.0
3.9107720000000006,0.06264000237954696,0.0
3.913108,0.06446069662974481,0.0
3.9154519999999993,0.06521045569330411,0.0
3.9178000000000006,0.06521045569330411,0.0
3.920140000000001,0.06521045569330411,0.0
3.9224799999999993,0.06515954476404585,0.0
3.924824,0.06515954476404585,0.0
3.927176,0.06515954476404585,0.0
3.929516000000001,0.0609646627150937,0.0
3.93186,0.05583861510636321,0.0
3.934212,0.05057279787077252,0.0
3.936552,0.04516721100832161,0.0
3.9388960000000006,0.03696812746653574,0.0
3.94124,0.028629274297889657,0.0
3.943584,0.021501125942742318,0.0
3.945964000000001,0.017446013520650363,0.0
3.948368,0.012180196285059662,0.0
3.950752000000001,0.009619017031201972,0.0
3.953131999999999,0.00784923371026239,0.0
3.955528,0.005516682780866865,0.0
3.957916,0.003835758157529239,0.0
3.960296000000001,0.002015063907331403,0.0
3.9627000000000008,0.0012653048437720978,0.0
3.9650880000000006,0.0012653048437720978,0.0
3.967464000000001,0.0012653048437720978,0.0
3.969872,0.0012653048437720978,0.0
3.97226,0.0012653048437720978,0.0
3.97464,0.0012653048437720978,0.0
3.977036000000001,0.0012653048437720978,0.0
3.9794240000000007,0.0012653048437720978,0.0
3.981804,0.0012653048437720978,0.0
3.984208,0.0012653048437720978,0.0
3.986596,0.0012653048437720978,0.0
3.988976,0.0012653048437720978,0.0
3.9913719999999993,0.0012653048437720978,0.0
3.993760000000001,0.0012653048437720978,0.0
3.99614,0.0012653048437720978,0.0
3.998536000000001,0.0005627676084559439,0.0
4.00092,0.0,0.0
4.003304000000001,0.0,0.0
4.0057,0.0,0.0
4.008088,0.0,0.0
4.010468,0.0,0.0
4.012864,0.0,0.0
4.015251999999999,0.0,0.0
4.017632,0.0,0.0
4.020028000000001,0.0,0.0
4.022416000000001,0.0,0.0
4.0248,0.0,0.0
4.027204,0.0,0.0
4.029588,0.0,0.0
4.031968,0.0,0.0
4.034372,0.0,0.0
4.03676,0.0,0.0
4.039140000000001,0.0,0.0
4.041536,0.0,0.0
4.043924,0.0,0.0
4.046304,0.0,0.0
4.048699999999999,0.0,0.0
4.051088000000001,0.0,0.0
4.053468,0.0,0.0
4.055867999999999,0.0,0.0
4.058252,0.002980385519715912,0.0
4.060636,0.01112655965965188,0.0
4.063032000000001,0.028255732457538235,0.0
4.065416,0.05944304059284719,0.0
4.067796,0.10510779294615942,0.008739205284703719
4.070196,0.15887160022588687,0.01735952000734038
4.072584,0.2199430664991114,0.02593810144538223
4.074979999999999,0.2891135876987512,0.034443080605727615
4.077380000000001,0.36489291975758703,0.04311672495218252
4.0797680000000005,0.45179712084765034,0.05162201828322023
4.082147999999999,0.5463810679835482,0.06017166287466767
4.084548000000001,0.6518575667251962,0.06851233953366989
4.086936000000001,0.7675749907665366,0.07668035075537662
4.089315999999999,0.8893893689878752,0.08494547732971011
4.091716000000001,1.01781255806841,0.0933224721392343
4.094104000000001,1.153635953941059,0.10178000776163162
4.096483999999999,1.3027260892182126,0.11004106746340052
4.098884000000001,1.459775509794921,0.11830431672151029
4.101272000000001,1.6232486456335913,0.12651213147235083
4.103651999999999,1.7942636537491055,0.1345354406336829
4.106056,1.9670466519424121,0.14247655085116256
4.108444,2.143044351553504,0.1501653933174193
4.110824,2.3086160302676695,0.15786246284866826
4.113219999999999,2.4569639899127393,0.1656074280993123
4.115608000000001,2.588460317541052,0.1646502331179168
4.117992,2.7127887558027273,0.16378377835215174
4.120387999999999,2.8313923269367423,0.1629346273626278
4.122772,2.943479635010178,0.162135075792454
4.125152000000001,3.053241872970972,0.16100026052753516
4.1275520000000006,3.1515071548482005,0.15999997482009526
4.12994,3.2414410643735367,0.1589512193799758
4.132320000000001,3.3174093863600675,0.158220384928116
4.134716,3.3837884093529644,0.1576660140036011
4.137104,3.446584435591477,0.1569656463409515
4.139487999999999,3.505844686903849,0.15604703322780197
4.141884,3.558124040304688,0.15500400178557106
4.144272,3.592900135382711,0.15423968357093248
4.146652,3.6195771755343187,0.15348817920229038
4.149052,3.640342357103162,0.15281118333473157
4.151436,3.6550086886341377,0.1523118261295176
4.1538200000000005,3.665718040500523,0.1518838741285208
4.156216,3.6672555063959846,0.1517189836183822
4.158604,3.6694445985975053,0.15155675218511763
4.160988000000001,3.675730440090476,0.15132088414551875
4.163384,3.6839711605016205,0.15109260248012554
4.165772,3.6911409457261266,0.1509073931992773
4.168156000000001,3.6967279390847967,0.1507466134267828
4.170552,3.7008719102044902,0.15059491447452614
4.17294,3.6998009750178524,0.15063583871710645
4.175324000000001,3.70003329244333,0.1506845597314236
4.17772,3.702639797667562,0.15070086151860146
4.180108,3.711392374757904,0.1505040076484303
4.182492000000001,3.7156288936762145,0.15041833141035024
4.1848920000000005,3.7194933255421883,0.15030155043951463
4.187276,3.7202847214751062,0.1502911466839881
4.189672000000001,3.7214482044603616,0.1503143036934623
4.192063999999999,3.727499832669986,0.15025945583830316
4.194448,3.733691230506471,0.15018960458080663
4.196828000000001,3.739510541290618,0.15008621605342432
4.19922,3.7430954339028712,0.14999992528694675
4.201607999999999,3.7458889305822063,0.1499244282601044
4.203988,3.747192183194322,0.1499324245023775
4.20638,3.751149162858912,0.14987890619852728
4.208768,3.755106142523503,0.14982618719963567
4.211148000000001,3.758551265508895,0.14975377835585485
4.21356,3.7612049925613706,0.14969163623843276
4.215944,3.763718949986985,0.14964418123397347
4.218324,3.7670243033455173,0.14958636837381753
4.22074,3.7721919878236063,0.14947749919325315
4.223123999999999,3.7744264059955004,0.14945967522063325
4.225504,3.77400709711492,0.14950401328505264
4.227908,3.770235213047564,0.14968222346653157
4.230296,3.7711191567790996,0.14973442282857916
4.232672,3.770792395697136,0.1498409614584594
4.235080000000001,3.7715365698018113,0.14990751403579766
4.237464,3.7734914487199855,0.1499201248251448
4.23984,3.7760054061456,0.14987547395231168
4.242244,3.7814526298774096,0.14974530194496544
4.244632,3.788762184728776,0.14956939300589647
4.247012000000001,3.798865236259477,0.1493242621070387
4.249403999999999,3.8089682877901785,0.14907913120818092
4.251788,3.8228432233882366,0.1486634387758486
4.254168000000001,3.8369976982400145,0.14822845628969122
4.256571999999999,3.849429611599096,0.1478264998316264
4.258959999999999,3.862792690517956,0.14739960179158107
4.261344,3.8780181005563725,0.14692617094806018
4.2637480000000005,3.8943144457814283,0.1464169037348172
4.266136,3.9056754239538707,0.14604569129062311
4.268516000000001,3.914103135820119,0.14575760785302483
4.270919999999999,3.9256038836194227,0.14536850837851184
4.273304,3.9381755666053646,0.14494019737300506
4.275683999999999,3.94916445772547,0.1445268865949117
4.278088,3.960572657726156,0.14407489548697572
4.280475999999999,3.968116425860869,0.14372989640939454
4.282856,3.9736580932491647,0.14344788737505712
4.28526,3.974264393584849,0.14331471640892113
4.287648,3.9735202194801738,0.1432488239574844
4.290024,3.9669095127631078,0.14335594498781856
4.292424,3.9562946045532095,0.1435880365883785
4.294808000000001,3.9416754948504766,0.14394529348438642
4.297187999999999,3.9290584858941604,0.14423637621099397
4.299596,3.9146716936169055,0.14463327866141798
4.30198,3.8970720957797345,0.14514066999135614
4.30436,3.88119505943526,0.1456142122963792
4.306764,3.8674598934640625,0.14600776848313862
4.309152,3.853584957866005,0.1464123519576988
4.311532000000001,3.8418518926412237,0.14673631313677196
4.313932,3.8365444385362744,0.14684413128705606
4.31632,3.8353809555510185,0.14682050323842924
4.318700000000001,3.834077702938903,0.14681046100866751
4.321103999999999,3.831563745513288,0.14685018524512242
4.323488,3.831983054393869,0.14680906046578593
4.325872,3.832122824020729,0.1467954513853297
4.328264,3.8373377303270613,0.14662986774296977
4.330652,3.840550535886977,0.1465204396725841
4.333032,3.849909413313003,0.1462204989836539
4.335427999999999,3.8594080603658907,0.14590630899987408
4.337815999999999,3.873050678538471,0.14545679918616894
4.340196,3.8919082030173837,0.14484126759882027
4.342592000000001,3.9167720297355477,0.1440546706322848
4.3449800000000005,3.9405649212670726,0.14331494238963946
4.347359999999999,3.9647771216791785,0.14253308477572957
4.349756,3.992202127651199,0.1416478403079965
4.35214,4.019766903250081,0.1407574239633061
4.35452,4.044398412542767,0.139953146727966
4.356936,4.067586899596478,0.13915296759203968
4.359324,4.085979789224435,0.13847951492106658
4.3617,4.103813600344953,0.13787207430568424
4.364104,4.119645310719053,0.13732559762710922
4.366492,4.134965164413957,0.136764473428332
4.3688720000000005,4.152426888482137,0.13613674483481156
4.371276000000001,4.1690972166173985,0.1355207341818992
4.37366,4.186047084006381,0.13488483464125373
4.376043999999999,4.19913251952939,0.13434286079223642
4.378448,4.221437062851566,0.1335582252494842
4.380832000000001,4.23666436874785,0.1329593297860213
4.383216,4.2512400483380794,0.13235363014915222
4.385611999999999,4.262742691995252,0.13183070101640035
4.388000000000001,4.268099263786313,0.1314749995889006
4.390376000000001,4.268660238151623,0.1312299568714618
4.392779999999999,4.266707255091319,0.13101588589099233
4.395164,4.266756372777431,0.13075300671709486
4.397544000000001,4.263592684903628,0.1305834833658039
4.399947999999999,4.2574957307236305,0.1304816492368685
4.402336000000001,4.251259006916771,0.13039228664854427
4.404716,4.246744844602609,0.13027790784812796
4.40712,4.245955344527561,0.13008950048741064
4.409503999999999,4.2453056140793715,0.1298903027090778
4.411888,4.2454472795641,0.12968587120308547
4.414288,4.245961032101167,0.12951320931220242
4.416676,4.2464747846382345,0.12934148130558581
4.419056,4.2485713290411375,0.12916003384887498
4.421460000000001,4.25024856456346,0.1290157290425941
4.423844,4.2575127934444525,0.12877013932973538
4.426224,4.255278375272558,0.12877302407256472
4.428628000000001,4.261843756019249,0.1285904893750124
4.4310160000000005,4.2712026334452755,0.12836008788959544
4.433395999999999,4.286288273856832,0.12802197424547104
4.435796000000001,4.307100677253919,0.12757316691106668
4.438184000000001,4.330706577330341,0.12707845780336957
4.440563999999999,4.356826434832377,0.12655769951698378
4.44296,4.380804421961137,0.12609833359619796
4.445344,4.407064049090033,0.12557257069403854
4.44772,4.437188108084903,0.12497138026618726
4.450116,4.4733184693190235,0.12425247178511785
4.452504,4.509309060926284,0.12355167655738428
4.454884000000001,4.540364285480932,0.1229501136773067
4.4572840000000005,4.569557178916023,0.12238620746306887
4.459672,4.596887741231558,0.1218533478525068
4.462052000000001,4.621564576494618,0.1213529465795718
4.464455999999999,4.647312346944315,0.12083382584624124
4.46684,4.669195685528041,0.12038647237178232
4.469220000000001,4.688565066686152,0.11996085214654259
4.471623999999999,4.701136749672094,0.11966600144882962
4.474011999999999,4.71813194303145,0.11925043084214511
4.476387999999999,4.726327337472221,0.11900828522577978
4.478796,4.730238991166438,0.11887228330292537
4.481179999999999,4.727352946688486,0.1188654041952454
4.48356,4.719811074411642,0.11893399961739161
4.485964,4.708265000641965,0.11908556670956227
4.488352,4.694065199819812,0.11927175211117158
4.490732,4.6820072693709385,0.11940305035934583
4.493128,4.669809569295203,0.11954315672569495
4.495512000000001,4.653887206980355,0.11974155868636938
4.497891999999999,4.630747837612756,0.12009403162800524
4.500292000000001,4.604954741192683,0.12048018368615954
4.502680000000001,4.582234680705667,0.12080437346577615
4.505059999999999,4.557512519472233,0.12117174143495951
4.507464,4.5340010630522976,0.12150187488702055
4.509848000000001,4.517566844058251,0.12167851962669907
4.512228,4.499130524317788,0.12189185333957359
4.514624,4.487119815697157,0.12195080032834646
4.517008,4.480044474129137,0.12191656770337259
4.519388,4.477113103680811,0.12179362153938013
4.521783999999999,4.473250567672706,0.12168458022886217
4.524168,4.476465269090491,0.12143470592742955
4.526548000000001,4.48517441606833,0.12105179095220735
4.5289600000000005,4.499098469352499,0.12055594810926447
4.531344,4.517166493756363,0.11997383939328138
4.533724,4.539378489279922,0.11930455252706677
4.536128000000001,4.564244211855954,0.11860323719104854
4.538516,4.585897128872071,0.11797874600285478
4.540895999999999,4.6056877147686315,0.11738304357797091
4.5433,4.628271797344527,0.11674570472751171
4.545687999999999,4.654348224734059,0.11601144767162153
4.548068,4.6842890839895635,0.11521377396842512
4.550472,4.717302979178123,0.11436498503446675
4.552855999999999,4.754321075859516,0.113442448141946
4.555236,4.7901284677274125,0.11255444454954883
4.55764,4.818858622169419,0.11181445158126048
4.560028,4.847588776611426,0.11107619100677008
4.5624080000000005,4.872174959933738,0.11043518471725816
4.564804,4.8915462369497185,0.10990218469179194
4.567188000000001,4.911988449152336,0.10935400085624718
4.569567999999999,4.934292992474511,0.10878709346128344
4.571972,4.955666370236907,0.10824379207267591
4.57436,4.97289577687961,0.10778274064655967
4.576736,4.990125183522314,0.10732956743960533
4.57914,5.007354590165016,0.10688406320166628
4.581528,5.022861435315023,0.10645494665197526
4.583908,5.037856423785832,0.1060097601170523
4.586312,5.055412591510499,0.10549633113872862
4.5887,5.072968759235165,0.10498122882425998
4.591080000000001,5.088662595840274,0.10448820845539372
4.593483999999999,5.103145727631885,0.10402788257485372
4.595868,5.1137644275575225,0.10361979602177229
4.598248000000001,5.118376825243908,0.1033030611175204
4.600639999999999,5.118845251810602,0.10305619842967009
4.603024,5.1195932176310155,0.10278931698820505
4.605403999999999,5.119410017891651,0.10253032898215196
4.607796,5.117364487032729,0.10229148817093833
4.610183999999999,5.112106150613891,0.10211264000605427
4.612564,5.105125252702358,0.10194422859526639
4.614976,5.092138052551574,0.10187029852193585
4.617363999999999,5.075146650907958,0.10185912944015937
4.619744,5.052940342958006,0.10194180150252724
4.622148,5.031804970194694,0.10200286129504156
4.624531999999999,5.007596561498327,0.10211357291866202
4.626912,4.979244181682267,0.10229520433197099
4.629316,4.949820866679567,0.10249522055134991
4.631704,4.921049177982925,0.1027009641734567
4.6340840000000005,4.88799374853973,0.10298788721456201
4.636484,4.857871585402728,0.10323022999180154
4.638872,4.828820357452367,0.10345138645864847
4.641252000000001,4.798837963942227,0.10368262388055506
4.643652,4.77285977192492,0.1038504215495785
4.64604,4.753679278079783,0.10392562211032626
4.648420000000001,4.73785135942142,0.10393089217404906
4.650823999999999,4.7257481030021715,0.10389451414065262
4.653212000000001,4.715786716956199,0.10381864148770045
4.655592,4.707827431656644,0.1037124075380518
4.657996,4.704663743782841,0.10354587599877309
4.660380000000001,4.711370790014262,0.10324102859917719
4.66276,4.724735764790991,0.10285591119835126
4.665159999999999,4.742104941060553,0.10241196627587765
4.667544,4.761336448449673,0.10194183346682893
4.669924000000001,4.780288416585072,0.10149263090669189
4.672327999999999,4.7969587447203335,0.10108856041081705
4.674712,4.815211864721432,0.1006805559674168
4.677091999999999,4.83197474065531,0.10032013086034333
4.679495999999999,4.846735515842774,0.0999913591168263
4.681883999999999,4.867083284388906,0.09959937362591677
4.684264,4.883287081815344,0.09928041822302651
4.686660000000001,4.90000273592098,0.09898275765267533
4.6890480000000005,4.914576519653338,0.09872286958985377
4.6914240000000005,4.925797728198922,0.0985366875235152
4.693828000000001,4.931292173758974,0.0984246240677143
4.696216000000001,4.9345049793188895,0.09836369774740361
4.698595999999999,4.937717784878806,0.09830420737994616
4.701,4.943444547864336,0.09823528738332356
4.703384000000001,4.948612232342426,0.09820587561087277
4.705763999999999,4.9512659593949,0.09818644233026558
4.708168,4.947773614581264,0.09826327422191747
4.710552000000001,4.939345902715017,0.09840637252579179
4.712932,4.923701183796019,0.09866673360391841
4.715336,4.907265068944103,0.09892979185250443
4.717724,4.893762220398382,0.09915148082500062
4.720104,4.884263573345495,0.09931686149012577
4.722499999999999,4.87546377442691,0.09943303856886732
4.724884,4.871878881814657,0.09946169328761144
4.727264000000001,4.871367025135458,0.09944201528993282
4.729667999999999,4.864057470284092,0.09950910362938771
4.732055999999999,4.856608145805866,0.09958766163788911
4.734436,4.8494383605813605,0.09964596312033713
4.736832000000001,4.848926503902164,0.09962625799101948
4.739216,4.850416747969383,0.09957724343212507
4.741596,4.852418848715801,0.09954759078946418
4.743996,4.8544209494622175,0.09951774220272258
4.746379999999999,4.849206043155884,0.09960768198537058
4.748772,4.841989036103134,0.09972705931162634
4.751180000000001,4.8373332083042415,0.09977639681427014
4.753564,4.834260172371187,0.09982558749482043
4.755944,4.830255970878353,0.09988479741151177
4.75834,4.828393639758796,0.09990467132208067
4.760727999999999,4.836681581998184,0.09976558710757646
4.763108,4.849113495357266,0.09955782794894777
4.7655,4.858612142410153,0.09939143806640889
4.767884,4.867039854276401,0.09924487724978565
4.770264,4.875839653194986,0.0991287001710441
4.772668,4.878493380247461,0.09910956318575773
4.775056,4.879005236926659,0.09912924118343633
4.777436000000001,4.886734100658606,0.09903338541345136
4.779836,4.901959510697023,0.09880556421041096
4.782224,4.9173246903623005,0.09857062271889679
4.784604000000001,4.927242646295768,0.09838296728278377
