Time,Force,Position
3.3020560000000003,0.15032354543292475,0.0
3.304436000000001,0.1420828250217801,0.0
3.306836000000001,0.13076906867758004,0.0
3.3092240000000004,0.12038647789315829,0.0
3.311604000000001,0.11079528304165466,0.0
3.314,0.10413735449634619,0.0
3.316388,0.09654826039125941,0.0
3.318772000000001,0.0943138422193653,0.0
3.3211720000000007,0.09086871923397243,0.0
3.3235600000000005,0.0836989340094663,0.0
3.325940000000001,0.07929781835182698,0.0
3.3283400000000007,0.07182366676113228,0.0
3.330728000000001,0.06635161591685441,0.0
3.333108000000001,0.05701513320660305,0.0
3.335504,0.05047214717568665,0.0
3.337892,0.04486032670454858,0.0
3.340272000000001,0.04111083735296715,0.0
3.342676000000001,0.03722157837452551,0.0
3.3450640000000007,0.033192549769223666,0.0
3.3474439999999994,0.02916352116392181,0.0
3.3498400000000004,0.0269968236781766,0.0
3.352228,0.022688255819154332,0.0
3.3546080000000007,0.019450623146770592,0.0
3.357004,0.01621299047438685,0.0
3.359392,0.013906523361781432,0.0
3.361772,0.01066889068939769,0.0
3.3641760000000005,0.00757102764387416,0.0
3.3665640000000003,0.0032624597848518884,0.0
3.368944000000001,0.00016459673932835842,0.0
3.37134,0.0,0.0
3.373728,0.0,0.0
3.3761080000000003,0.0,0.0
3.3785039999999995,0.0,0.0
3.380892,0.0,0.0
3.3832880000000003,0.0004441359930487788,0.0
3.3856839999999995,0.0016796679190156675,0.0
3.3880719999999998,0.0027754302181223467,0.0
3.390452,0.003731422890368816,0.0
3.3928519999999995,0.005898120376114025,0.0
3.39524,0.008064817861859235,0.0
3.39762,0.012233616094021297,0.0
3.400024,0.015331479139544824,0.0
3.4024079999999994,0.019220738117986462,0.0
3.404788,0.021107896350011254,0.0
3.407188,0.022063889022257723,0.0
3.4095720000000007,0.0238112776274223,0.0
3.4119519999999994,0.025418896605726667,0.0
3.414344,0.02541889660572667,0.0
3.416732,0.027026515584031036,0.0
3.419124,0.03356950161494743,0.0
3.421520000000001,0.040112487645863816,0.0
3.4239040000000003,0.043722207370585034,0.0
3.426288,0.04532982634888941,0.0
3.428692,0.04586651014055621,0.0
3.43108,0.04542237414750744,0.0
3.43346,0.04418684222154055,0.0
3.4358640000000005,0.04309107992243388,0.0
3.438248,0.04309107992243388,0.0
3.440628,0.041600835855214714,0.0
3.4430320000000005,0.039434138369469504,0.0
3.4454200000000004,0.03526534013730744,0.0
3.447800000000001,0.032167477091783914,0.0
3.4502039999999994,0.028278218113342277,0.0
3.452592000000001,0.02639105988131749,0.0
3.454972,0.02543506720907102,0.0
3.4573719999999994,0.023687678603906442,0.0
3.459760000000001,0.022080059625602073,0.0
3.46214,0.022080059625602073,0.0
3.464544,0.020472440647297703,0.0
3.466932,0.013929454616381311,0.0
3.4693120000000004,0.007386468585464919,0.0
3.471708,0.003776748860743699,0.0
3.4740959999999994,0.0021691298824393296,0.0
3.476476,0.0016324460907725176,0.0
3.47888,0.0016324460907725176,0.0
3.481268,0.0016324460907725176,0.0
3.4836480000000005,0.0016324460907725176,0.0
3.486052000000001,0.0006764534185260484,0.0
3.4884400000000007,0.0,0.0
3.49082,0.0,0.0
3.493224,0.0,0.0
3.4956119999999995,0.0,0.0
3.497992,0.0,0.0
3.5003840000000004,0.0,0.0
3.502772,0.0,0.0
3.5051520000000007,0.0,0.0
3.507556000000001,0.0,0.0
3.509944000000001,0.00011737491108618157,0.0
3.512324,0.0023766201954494247,0.0
3.5147200000000005,0.002773534360256026,0.0
3.5171080000000003,0.005312318898338716,0.0
3.519488000000001,0.0059887723168647634,0.0
3.521884,0.009458722414725772,0.0
3.524272,0.010274945460112032,0.0
3.526648,0.01630607481183073,0.0
3.5290560000000006,0.020335103417132586,0.0
3.5314440000000005,0.026366232768851288,0.0
3.533824000000001,0.03132642693393146,0.0
3.53622,0.03307381553909604,0.0
3.538608,0.03361049933076285,0.0
3.5409880000000005,0.03521811830906722,0.0
3.543384,0.03668596766051235,0.0
3.5457719999999995,0.039364521825455245,0.0
3.548152,0.04004097524398129,0.0
3.550548000000001,0.04271952940892419,0.0
3.5529360000000008,0.047260414693423736,0.0
3.55532,0.04979919923150643,0.0
3.5577240000000003,0.052080839231643694,0.0
3.560108,0.04982159394728045,0.0
3.562488,0.049424679782473856,0.0
3.564884000000001,0.04714303978233756,0.0
3.567272000000001,0.04646658636381151,0.0
3.569652,0.0429966362659505,0.0
3.572048000000001,0.04218041322056425,0.0
3.5744360000000004,0.03614928386884554,0.0
3.576816000000001,0.03212025526354369,0.0
3.579212,0.026089125911824985,0.0
3.5816,0.021128931746744812,0.0
3.5839800000000004,0.019381543141580235,0.0
3.586376,0.018844859349913423,0.0
3.5887639999999994,0.017237240371609057,0.0
3.591156,0.015769391020163927,0.0
3.5935520000000007,0.013090836855221024,0.0
3.5959400000000006,0.012414383436694976,0.0
3.5983199999999997,0.009735829271752075,0.0
3.600712,0.005194943987252535,0.0
3.6031,0.0026561594491698454,0.0
3.605496000000001,0.0002571445379463918,0.0
3.607892,0.0002571445379463918,0.0
3.61028,0.0002571445379463918,0.0
3.61266,0.0,0.0
3.615056000000001,0.0,0.0
3.6174440000000008,0.0,0.0
3.619824,0.0,0.0
3.62222,0.0,0.0
3.624608,0.0,0.0
3.6269880000000008,0.0,0.0
3.629388000000001,0.0,0.0
3.631776,0.0,0.0
3.634156000000001,0.0,0.0
3.636552,0.0,0.0
3.63894,0.0030978630455235296,0.0
3.641336000000001,0.0072666612776855904,0.0
3.643732,0.014508495442903033,0.0
3.64612,0.019608459234843414,0.0
3.6485,0.03183098642304776,0.0
3.650896,0.0484751281267972,0.0
3.6532839999999993,0.06949366251784858,0.0
3.655664,0.0995424173950935,0.0
3.6580600000000008,0.1398320975720307,0.0
3.6604480000000006,0.18714989748874455,0.007012708266087765
3.6628279999999993,0.24214744345129302,0.014310112717188725
3.665224,0.30538381396711695,0.021647945708224987
3.667612,0.3751364475435198,0.029110342750777805
3.670008000000001,0.4501946393670031,0.03681383496261283
3.672404,0.5293476846240678,0.04486258372070249
3.674792,0.6206039863003814,0.05260982716422558
3.677172000000001,0.718469098835891,0.06053884189189491
3.679572,0.8235021007380376,0.06851850748478128
3.68196,0.9329094953274861,0.07668599564053598
3.684336,1.0472031392834342,0.08505389810426135
3.686736,1.1635647088140788,0.09355716233235202
3.689124,1.2841609014051654,0.10216120632165925
3.691504,1.4077810122431946,0.11083533619033127
3.6938999999999993,1.5457860195006103,0.11924389531921249
3.696288000000001,1.6759223933992176,0.1278562409183711
3.698672,1.8037318013273138,0.13644922135673018
3.701076000000001,1.9280979821278867,0.14500252426872876
3.703464,2.041571611322709,0.15363569708479055
3.705848,2.1426624448445626,0.1623922432285093
3.708244000000001,2.2376563241864167,0.16409447656144044
3.710632,2.320454399310406,0.1657042082792225
3.713016,2.3911492180151455,0.16747658439304025
3.715416,2.456910565525142,0.1690761638584274
3.7178,2.518017981094118,0.1704327781507061
3.720184,2.5771724136027876,0.1713114097321352
3.7225800000000007,2.6210107841322934,0.17269221411401908
3.724964,2.657728487123405,0.17387128296102627
3.727344,2.6903513366809353,0.17482021032449263
3.729744,2.7181804846705826,0.17564594772148961
3.732128,2.7427061751595674,0.17622552047871493
3.734512000000001,2.7640681777747487,0.17656210233893202
3.736908,2.7810557877026283,0.17675558861001298
3.739296,2.792877609010288,0.1768372254866985
3.741672,2.7935273394584765,0.17712285193552768
3.744068,2.7945038309886283,0.17726588869745602
3.746456,2.790824494719889,0.1776165471633282
3.7488360000000007,2.788076324010928,0.17792142080819123
3.751248,2.785188383675106,0.17825292551423988
3.753636,2.7821606737124247,0.17861366904693113
3.7560160000000007,2.777130863003327,0.17908332207943567
3.758420000000001,2.783554578265289,0.17899180731278336
3.760808000000001,2.796356682818839,0.17861512684604486
3.763188,2.8115801969993863,0.17809126447383805
3.765592,2.825360688940958,0.1775880477988144
3.767976000000001,2.8336467353224766,0.17741417915809524
3.770356,2.851151889503161,0.1767493120115046
3.77276,2.8690291307361835,0.17612337540043393
3.775144000000001,2.8827624008495114,0.17573346948951069
3.777524,2.899848246149616,0.1751489692584019
3.7799200000000006,2.914839442904686,0.17459035703187
3.782308,2.927688769286479,0.1741581232008272
3.784688000000001,2.939467160481633,0.1737869885979897
3.787084,2.949383220557231,0.1734944025314485
3.789472,2.956226244699774,0.17335760146201176
3.791856000000001,2.9665616136559527,0.17300983135818984
3.794252,2.9808086363063473,0.17238189859562508
3.796636,2.993333097464047,0.17182092489487402
3.799016,3.0086510553010806,0.1711366201849132
3.801412000000001,3.030394624257945,0.17010914425458418
3.8038000000000007,3.053628437282029,0.16896129536723367
3.80618,3.0676431425069475,0.16830247676504523
3.808576,3.0804943647466096,0.16763859530421285
3.810964,3.084266248813966,0.16739610666777258
3.8133440000000007,3.0900402336277386,0.16706273871233301
3.81574,3.106244031054177,0.16622928095352948
3.818128,3.1145791951218085,0.1657500545495634
3.820512000000001,3.1249164599358563,0.1651879615259536
3.822908,3.136184890309682,0.164586638949298
3.825292000000001,3.1446598240041728,0.16409796756765113
3.827676,3.157371276616975,0.16350564569474882
3.830088,3.1750180962823897,0.16273152725394813
3.832476,3.1948067863210805,0.16186635568773297
3.8348720000000007,3.2155266419195505,0.1609643991002522
3.837268,3.239971159757133,0.15992910524369383
3.839656,3.260271706475022,0.15908687465727464
3.842036,3.282946440991665,0.15822823841610856
3.844432,3.3073437370010046,0.15733563464679276
3.846820000000001,3.3341624426373415,0.15633830610627958
3.849196000000001,3.3608413786468185,0.1554049232099291
3.8516,3.3889633368952716,0.15447763104868276
3.8539879999999993,3.422719510330638,0.1533054272708244
3.856368,3.4549854396987847,0.15223437407958249
3.858772,3.494468376119681,0.1508654761709132
3.861156,3.534463169219775,0.149539266414174
3.86354,3.5644474585877846,0.1485955851078032
3.865936,3.595502683142433,0.14759622985513707
3.868324,3.6276288428837202,0.14658126963910426
3.870704,3.6601743115055876,0.14552160354338706
3.873100000000001,3.691509075313956,0.14451448837916997
3.875484,3.7172568457636546,0.14367461739357668
3.877868,3.7354155221082657,0.14306500260967758
3.880264,3.750501162519823,0.14256480004132652
3.882648,3.7666577381180177,0.1420274549825562
3.885028,3.780300356290598,0.14153781311545147
3.8874239999999993,3.7943622833437596,0.1409992011084766
3.889812000000001,3.8048393177846678,0.14055460108307366
3.892192,3.8134540211060193,0.14016247187137632
3.894592,3.8208580196138717,0.13983257102810107
3.896976,3.820393384762917,0.1397347350422003
3.89936,3.818857814725324,0.1396750872356891
3.9017560000000007,3.8169029358071507,0.1396577371422834
3.90414,3.8141566609560584,0.13964889122222254
3.906524000000001,3.811130846851246,0.1396671328378004
3.90892,3.807453406440376,0.13967878999037858
3.911304,3.8107134338285347,0.13949839843929931
3.913684,3.816766957896028,0.13925499976810496
3.9161,3.818816280470689,0.13912509642930476
3.918484,3.8233795604709626,0.13896137928302893
3.920864,3.8330179771507096,0.13865755072643945
3.923264,3.8445187249500132,0.13830999080970577
3.925652,3.8600236742421505,0.1378504075929769
3.928032,3.8778102635344247,0.1373093937593157
3.930428000000001,3.8942463783863404,0.136830970175826
3.9328160000000008,3.913196450663871,0.13631941314563228
3.935196,3.9345207107401556,0.13578937575417452
3.937596000000001,3.952632165256524,0.13535451267567966
3.93998,3.970883389399753,0.13490691826758808
3.9423600000000008,3.9871325127965656,0.13451865030623272
3.944756,4.0112502695521846,0.1339262153114128
3.947144,4.032714299255328,0.13337889442339157
3.949524,4.046309695599667,0.13303368332098534
3.951928000000001,4.059765322317143,0.13269839559109567
3.954316,4.072569322728563,0.13236253660408379
3.956696000000001,4.083091683139845,0.13210802767068489
3.959092,4.085885179819179,0.13204623976848906
3.96148,4.086536806125238,0.13205256930005668
3.96386,4.086676575752097,0.1320390964351112
3.966256,4.085093783886261,0.13205293947003277
3.968644,4.079506790527591,0.13217165351254584
3.971028,4.07391979716892,0.13229036755505885
3.973424,4.064980228623475,0.1325220528217685
3.975812,4.05590089045117,0.13276376265266274
3.978192,4.0473806307863045,0.13295313623320096
3.980608,4.036625952949545,0.1331472044256556
3.982996,4.027221749553145,0.13327864293641356
3.985376000000001,4.024103387649715,0.13323213268069017
3.987772,4.020985025746286,0.13318545912337318
3.99016,4.017075267909939,0.13314479398438284
3.99254,4.0071592078343405,0.1332542371252911
3.99494,3.9984538525722413,0.13332052270860698
3.997328,3.9966859651091706,0.13321576453910663
3.999708,3.9971997176462377,0.1330338959584328
4.002104000000001,3.9934297294367505,0.1329804221454595
4.004492000000001,3.990079050107844,0.13288785504349493
4.006872,3.992455133764467,0.13266396595865557
4.0092680000000005,3.9929688863015342,0.13247832931022446
4.011656,3.9979986970106327,0.13220797285483438
4.01404,3.9991640758537574,0.1320288696513249
4.016436000000001,3.998606893204186,0.13187560261262177
4.018824,3.9981894801814746,0.13170904902623815
4.021204000000001,4.000984872718679,0.13144163636387132
4.023604000000001,4.003780265255884,0.13117613538988518
4.0259920000000005,4.008158449658924,0.13089969700646154
4.028372000000001,4.012908721114302,0.13065607907843446
4.030772000000001,4.013794560703706,0.1305051242039425
4.0331600000000005,4.010396659546557,0.13048334278584234
4.035540000000001,4.0079299239491855,0.13044235678483265
4.037940000000001,4.0031815483516775,0.1304794171321361
4.040324,3.9995041079408074,0.13048477971504086
4.042707999999999,3.997269689768913,0.13049056646633012
4.045104,3.9931729404774625,0.13053455748477732
4.047492,3.9909385223055684,0.13053918163803963
4.049872000000001,3.994989945626645,0.13036648511162105
4.052272,4.002254174507637,0.13010120308481005
4.05466,4.005514201895796,0.12993567927807148
4.057040000000001,4.013057970030509,0.129645354986571
4.059436,4.012593335179554,0.1295534415101565
4.061824,4.0159931321945725,0.12937295147642902
4.064204,4.023117591448705,0.12911782164482888
4.066604,4.030893677008895,0.12887082378724027
4.068992,4.037598827382446,0.12865652818479134
4.071372,4.041230941822942,0.1285231476307088
4.073772,4.042349098837824,0.12842017904686534
4.076156000000001,4.046680061412622,0.1282253661568104
4.078536,4.0505917151068385,0.12806757763953047
4.080936,4.053711972868137,0.1279136845790981
4.083323999999999,4.054830129883018,0.12781013700947444
4.085704,4.061163193204233,0.12756078518436
4.088100000000001,4.07164022764514,0.1272015066065778
4.090491999999999,4.0836075061532675,0.12677775731525348
4.092872,4.094224310221036,0.12640871467714415
4.095268000000001,4.103770179102166,0.12607790506714103
4.097656000000001,4.108240911303823,0.1258748483286245
4.10004,4.110290233878484,0.1257581202625903
4.102436000000001,4.1174146931326145,0.12551898026257743
4.104828,4.12211774275975,0.1253651680258108
4.107208,4.135108734626273,0.12499924348309575
4.109604000000001,4.148891122425714,0.12463326768436353
4.111996,4.159088617612902,0.12432361801249457
4.114376,4.16970542168067,0.12397998276136316
4.116772000000001,4.180601765002159,0.12361284689692867
4.119164,4.195781849070202,0.12313209039894202
4.121544,4.21361566019072,0.12261788535663475
4.123939999999999,4.228516205005042,0.12217114018301202
4.126332,4.246909094633001,0.12161892889278567
4.128712,4.267304085007375,0.12101946017589163
4.131107999999999,4.290772111314805,0.12035170664379288
4.133496000000001,4.311167101689181,0.11975942309078158
4.13588,4.327557890570722,0.11925998559775856
4.138275999999999,4.341667039452126,0.11883142718810111
4.140664000000001,4.359268533147167,0.11830075303902046
4.143048,4.373005594976234,0.11784301855156686
4.145444,4.389675923111496,0.11732708210772237
4.147836,4.407417186433396,0.1167866546041369
4.150220000000001,4.419291917142907,0.11636098920943028
4.152616,4.431446187106136,0.11591201563106615
4.155004,4.440667190763173,0.11552493410044477
4.157384,4.445511905875037,0.11518754407744503
4.15978,4.453801743972294,0.11481537863604807
4.162172,4.462231351696412,0.11443557187340436
4.1645520000000005,4.472523290540084,0.11403107510134972
4.166948,4.481604524570259,0.11366788030619815
4.16934,4.486029930801543,0.11337325408410748
4.1717200000000005,4.487661840353492,0.11311842793751604
4.174116,4.486080944345526,0.11293952128797087
4.176504,4.487712853897474,0.11268797425660339
4.178888000000001,4.487342662703005,0.11247545488770543
4.181284,4.487112241135397,0.11225102434473164
4.183672,4.48567111475429,0.11206107412968136
4.186056000000001,4.487442793933099,0.1117992693241913
4.188452,4.487352141992351,0.1115653317587519
4.19084,4.487401259678464,0.11131843836939333
4.193224000000001,4.487590146991437,0.11106178277792657
4.1956240000000005,4.4839146024384355,0.11086738438983003
4.198012,4.4841034897514085,0.11060873857253628
4.200392000000001,4.482290276317963,0.11038666965733186
4.202804,4.480197523630798,0.11018694235454589
4.205192,4.481410124302166,0.10996713440141125
4.207572000000001,4.4787582931075605,0.1098115005042334
4.2099720000000005,4.471822721166402,0.10975360011010368
4.21236,4.459812012545769,0.10979623446927363
4.214740000000001,4.446870138365359,0.10985103833609257
4.2171400000000006,4.438723861610701,0.10982795409579528
4.219524,4.435373182281795,0.10972730177814728
4.221908000000001,4.433093438139526,0.10960201629314562
4.224304,4.427461118810482,0.1095606339456865
4.226692,4.419686929108161,0.1095679108142069
4.229076000000001,4.414846005712036,0.10952446287469667
4.231472,4.413078118248967,0.10941981900935228
4.23386,4.405164158919785,0.10943727102690876
4.236244000000001,4.394828789963606,0.10952563877006342
4.23864,4.391291119179597,0.10950033287098807
4.241024,4.386542743582088,0.10950951428780693
4.2434080000000005,4.38631042615661,0.10946673818500871
4.245804,4.387149043917772,0.10940081929826549
4.248192,4.392131632798627,0.10925272325506259
4.250572,4.4000474879856775,0.10905869151952718
4.252972,4.406380551306891,0.10886725708987534
4.25536,4.4168575857478,0.10859474035976409
4.25774,4.432130217614459,0.10824879327200819
4.260136000000001,4.4524779861605905,0.10780770033814081
4.262524000000001,4.471615049893224,0.10739949629103762
4.264904,4.48847047362572,0.10705186814658675
4.267303999999999,4.501973322171441,0.10678546777981464
4.269692000000001,4.51626756665008,0.1065191473327707
4.272072,4.528419940755441,0.10629639028302358
4.274468000000001,4.539501379674164,0.1060921324720879
4.276856,4.548161408965888,0.10595826465934956
4.27924,4.55868376937717,0.10580257698231516
4.281636000000001,4.572139396094647,0.10559664801281964
4.2840240000000005,4.588668058745179,0.10533056387198401
4.286408,4.595977613596546,0.10524273735586573
4.288808,4.6032871684479115,0.10515491083974744
4.291195999999999,4.607942996246805,0.10509329652358637
4.293576,4.612459054418836,0.10504390333851286
4.295972000000001,4.615624638150509,0.10503952632891299
4.298360000000001,4.613063458896652,0.10511670218519692
4.300744,4.613435545948989,0.10514772354579643
4.303140000000001,4.610734597068271,0.1052346763905957
4.305528000000001,4.61017551856083,0.1052765703330307
4.307912,4.606403634493473,0.1053832098216003
4.310308000000001,4.603702685612755,0.10546854639798724
4.3127,4.602212441545536,0.10552154524929123
4.31508,4.602212441545537,0.10552154524929122
4.31748,4.601421045612619,0.10552227967187261
4.319868,4.604913390426254,0.105436528200581
4.322252000000001,4.616693677479279,0.10520072568393887
4.324648,4.629964208599521,0.1049131555833613
4.327036,4.638439142294011,0.10469197577996449
4.329420000000001,4.649707572667838,0.10444021038914289
4.331816,4.657902967108608,0.10424086750444689
4.334204,4.670521871922794,0.10394270371301112
4.336588000000001,4.682209611177201,0.10365476911658364
4.338984,4.6951080552451065,0.10333469581734153
4.341372,4.7030711322604,0.1030903585894951
4.343756000000001,4.709963274089056,0.10286799903880736
4.346152,4.7195091429701845,0.10262023619461262
4.34854,4.728775472597595,0.10239673434981277
4.350924000000001,4.738833198157921,0.10217159597998145
