Time,Force,Position
3.70206,0.058749804265312344,0.0
3.704396,0.0722748880020726,0.0
3.70674,0.08659136767175096,0.0
3.709088,0.0991852858487329,0.0
3.711424,0.11177920402571484,0.0
3.713772,0.124512891829557,0.0
3.716112,0.13696704037967872,0.0
3.71846,0.1515630593030775,0.0
3.720804,0.16201510710678238,0.0
3.723144,0.17246715491048725,0.0
3.725488,0.18170849790069338,0.0
3.727816,0.18813410902052455,0.0
3.73016,0.19069528827438226,0.0
3.732504,0.1913941364086833,0.0
3.734848,0.1902306534234277,0.0
3.737188,0.188275774505254,0.0
3.739528,0.18762414819919612,0.0
3.741876,0.18576181707963949,0.0
3.744212,0.1856220474527793,0.0
3.746556,0.1826887811465841,0.0
3.7489,0.17603085260127566,0.0
3.751248,0.17030408961574556,0.0
3.753584,0.16392570032415751,0.0
3.755928,0.16192359957774066,0.0
3.758276,0.16192359957774066,0.0
3.76062,0.15871079401782506,0.0
3.762964,0.15484636215185155,0.0
3.765304,0.148840059912601,0.0
3.767648,0.14884005991260102,0.0
3.769984,0.14576702397954563,0.0
3.772328,0.14511539767348772,0.0
3.774676,0.14325306655393108,0.0
3.77702,0.14218213136729255,0.0
3.779364,0.14432400174056959,0.0
3.781704,0.1491195991663214,0.0
3.784048,0.15736031957746607,0.0
3.786384,0.16187637774949745,0.0
3.788732,0.16252800405555537,0.0
3.791072,0.16010659442855785,0.0
3.793424,0.15954751592111702,0.0
3.795768,0.1607109989063726,0.0
3.798112,0.16080354670498967,0.0
3.800452,0.16075632487674657,0.0
3.802788,0.16019724636930574,0.0
3.805136,0.1565651319288095,0.0
3.80748,0.15893931972756384,0.0
3.809832,0.16396723457879292,0.0
3.812172,0.16699304868360515,0.0
3.81452,0.1702984020421378,0.0
3.816864,0.17788749614722457,0.0
3.819208,0.18780355622282252,0.0
3.821552,0.20498194932154368,0.0
3.823896,0.22728080507011097,0.0
3.826236,0.2525110312670052,0.0
3.82858,0.2778791312328903,0.0
3.83092,0.31083442944599304,0.006187969819866411
3.83326,0.3548220488917061,0.012581881939499374
3.835608,0.4117043206895863,0.01895740266463558
3.837952,0.4791070570408791,0.025386003300199782
3.8403,0.5536776827588089,0.031967480271186975
3.842644,0.635136658589655,0.03873376822036894
3.844984,0.7219011926675815,0.04568728121511323
3.847332,0.8147626809255064,0.052831705737358126
3.849668,0.9114394833632923,0.06017084655241503
3.852016,1.0170067366604116,0.06760093527615146
3.85436,1.1278795482046113,0.07504294398798758
3.856704,1.2443374572496115,0.08253155597056368
3.859048,1.373829788273639,0.08992634441277497
3.861392,1.5080685990373057,0.09742001262552726
3.86374,1.6501269254736672,0.1049069991587871
3.866076,1.795071296387981,0.11236905110445519
3.868416,1.941738228794991,0.11978708499855607
3.87076,2.0864030604555843,0.12726067209643133
3.873104,2.229672091705444,0.134736362942755
3.87544,2.3770397681046234,0.14207497825030194
3.877784,2.5129558143906117,0.14330755791118663
3.880136,2.639841640190406,0.14433419527230476
3.882476,2.7546242095709523,0.14542093066121903
3.88482,2.860236788838445,0.14643913692021743
3.88716,2.9585417091124393,0.1472935577251656
3.889504,3.0468852433404634,0.14804733812348586
3.891844,3.130854384881184,0.1485604915531884
3.894188,3.2096577378016855,0.1488564479028044
3.896536,3.2834350717288268,0.14893167363119034
3.898876,3.3464596236770783,0.14901033461887558
3.90122,3.399103480698777,0.1491627837701805
3.903564,3.4453708442867574,0.14924119040639627
3.9059,3.4795349514554883,0.14945666486339562
3.908232,3.5078816436979414,0.14953001526943516
3.910576,3.5259874106407025,0.1496691218988438
3.912912,3.534596426388446,0.14995029563994244
3.915256,3.5371538139265652,0.1502917216279096
3.917596,3.537943314001614,0.1505164909734526
3.91994,3.5391993447854864,0.15060781874592075
3.922284,3.533565129598573,0.15084788143257735
3.92462,3.5299330151580772,0.15102178981496728
3.92696,3.5264406703444413,0.15117991832841962
3.929312,3.522156929597887,0.15135188796861532
3.93166,3.5146603832914174,0.15165757650496667
3.934,3.5055810451191114,0.1519870910439372
3.936344,3.4999940517604418,0.1521542687612625
3.938696,3.4914737920955767,0.15242016334477387
3.94104,3.4810912013111555,0.1527417057871281
3.943388,3.4680548834742586,0.1531322347756618
3.945728,3.4622355726901115,0.15324590659970383
3.948072,3.462702103398936,0.15311591281497158
3.950416,3.4643793389212583,0.15292943877061188
3.95276,3.467127509630219,0.1526997204458334
3.9551,3.468013349219623,0.15252396275649616
3.957448,3.47411409511536,0.15215625411810188
3.959796,3.4872920784369863,0.15154428122863559
3.962144,3.4996786658256944,0.15093998761321933
3.96448,3.5119254835875413,0.1503582897131594
3.966824,3.5206799565357536,0.14993714018626217
3.969164,3.531156990976662,0.14948056608341567
3.971504,3.542844730231068,0.14897024816100674
3.973844,3.554392699858615,0.14847571010753532
3.976192,3.565800899859301,0.14798735344518377
3.97854,3.5821444669125997,0.14733343343348873
3.98088,3.6012815306452333,0.14660597685324359
3.983224,3.621070220683924,0.14589733793435938
3.985572,3.6420696155361143,0.14512933880343165
3.987904,3.668144147067776,0.1442036524789245
3.990248,3.6959412400921345,0.14323499393665587
3.992592,3.7193148227430792,0.14246246441873178
3.994936,3.739335830207248,0.14184034108004648
3.99728,3.753350535432166,0.14140221563771704
3.99962,3.767644779910804,0.14093622910124032
4.001968,3.781659485135722,0.14049550530977764
4.004304,3.7908785929348885,0.14019584339578092
4.006648,3.793439772188746,0.14007687545659087
4.008992,3.796932117002382,0.13993399404804946
4.011332,3.7982825914427414,0.13986703011957236
4.013672,3.796979338830625,0.13985621415041777
4.016016,3.7936739854720924,0.13990811247826543
4.018372,3.789297696926921,0.139997974756738
4.020708,3.783990242821972,0.1401123001669241
4.023048,3.7854804868891914,0.14003056415275572
4.025392,3.787250270210131,0.13992150758645555
4.027732,3.785155621665097,0.13991882960268823
4.030068,3.7811986420005064,0.13996110489407862
4.032416,3.7772416623359155,0.1400030516429659
4.034764,3.765927905991716,0.1402871561374749
4.037104,3.7586183511403495,0.14044889711573288
4.039448,3.7483755299827877,0.1406955603937129
4.041792,3.736410147332529,0.1409735611382064
4.04414,3.7303112972946617,0.1410896429461237
4.046476,3.723932908003074,0.1412335858481883
4.04882,3.719696389084763,0.14130393114753012
4.051164,3.7113158990467583,0.1415138522947142
4.053504,3.7073116975539246,0.14163662055934378
4.055848,3.7035870353148113,0.14172998788842017
4.058188,3.702004243448975,0.14174767582352854
4.060532,3.7065675234492503,0.14156780739455688
4.062876,3.709920098636026,0.14143782132042992
4.065224,3.71434360900944,0.14127032772714296
4.067568,3.720769220129271,0.1410412903093216
4.069912,3.721468068263573,0.14096931350010022
4.072252,3.7220271467710133,0.1409125614692492
4.074596,3.7252399523309285,0.14080192303136113
4.07694,3.725239952330928,0.14080192303136113
4.07928,3.7280334490102627,0.14073414530913933
4.081628,3.7371127871825687,0.1404590621984209
4.083972,3.739254657555846,0.14038572354346038
4.086312,3.746751203862316,0.1401282411789932
4.088656,3.7543875197956464,0.13985464985122537
4.091,3.7598819653556985,0.1396568240889755
4.093352,3.7641657061022533,0.1395088915797039
4.095688,3.767378511662168,0.13939857757311855
4.098036,3.7815329865139464,0.13897113028472166
4.100384,3.791031633566833,0.1386537559789643
4.10272,3.802113072485555,0.1383236068615219
4.105064,3.8090505402845842,0.13812304163295747
4.107408,3.811704267337059,0.1380704294541122
4.109756,3.818921274389808,0.13784409212601725
4.112092,3.821994310322863,0.13774815193084794
4.114436,3.8218545406960036,0.13776241633983657
4.116788,3.8214352318154226,0.13780553782222518
4.11912,3.815940786255371,0.13800782412289744
4.121464,3.80979471438926,0.138203526294109
4.123812,3.809794714389259,0.13820352629410904
4.126156,3.8047195777097875,0.13836135068593283
4.1285,3.79657140509726,0.13861264760795405
4.130844,3.7892146284176507,0.13886201051415334
4.133192,3.7794364421110433,0.1392117900711188
4.135536,3.7712410476702725,0.1395443625128019
4.137876,3.7610435524830845,0.13994207185930596
4.140228,3.7549900284155915,0.14020137804016758
4.142572,3.750938605094514,0.14039838815529757
4.144916,3.7379476132279916,0.14085131580050464
4.14726,3.728821053227443,0.14120351159513192
4.1496,3.71569029173406,0.14167649014788652
4.151936,3.706563731733511,0.14203346781909437
4.15428,3.6985081069196,0.14235469029680412
4.156628,3.6891020076653307,0.14273636985896232
4.158972,3.68677314583695,0.1429010815840983
4.161312,3.6884484855014037,0.14294676476468424
4.163656,3.6926850044197144,0.14287604889082128
4.166008,3.7030675952041365,0.1426122363904634
4.168348,3.7133104163616983,0.14236313552862856
4.1707,3.7183383312129275,0.14228467222339747
4.173048,3.7256478860642934,0.14211659538114524
4.175392,3.7320262753558815,0.14197057722361747
4.177736,3.7446905061404405,0.1416191765024305
4.18008,3.75749450655186,0.14125292551243016
4.182428,3.768575945470583,0.14091739164531109
4.184764,3.7839411251358595,0.14043356856064781
4.187116,3.795581642562023,0.14004550577047858
4.189464,3.8041491240551313,0.13975434287750277
4.191808,3.8173724333471304,0.13934829748578292
4.194152,3.83059574263913,0.138945792070022
4.196496,3.8471716271179055,0.13841746058630275
4.198844,3.8660291515968193,0.1378146263657062
4.201188,3.8868887768221487,0.137160281874449
4.203532,3.9081677109280597,0.13647303003258268
4.20588,3.925582213167996,0.13589710029427762
4.208216,3.9423450891018748,0.1353232373256771
4.21056,3.957757490595395,0.13481418800271758
4.212908,3.9702366257827197,0.13438582545140057
4.215244,3.9857887969031007,0.13387870569169127
4.217584,4.003622608023618,0.1332880272217239
4.219928,4.021316649517276,0.13271128943059166
4.222272,4.039802086943851,0.13212487315527258
4.224616,4.055074718810511,0.13164886158057576
4.22696,4.069416185117392,0.13119038094523094
4.229308,4.086830687357329,0.13065132512983485
4.23164,4.101032384037351,0.13021103972382814
4.233984,4.11602547665029,0.12976350393599156
4.236328,4.133300209263367,0.1292396052231083
4.238676,4.147269588517911,0.1287539108232738
4.241012,4.1625894422128145,0.12821821950004805
4.243356,4.176698591094218,0.12772974723389163
4.245704,4.187734704042567,0.12732834446173474
4.248048,4.193975219565164,0.12702927358791297
4.250392,4.198865260647402,0.12678754667819236
4.252732,4.2037553017296405,0.12654627726669246
4.255076,4.20757440762524,0.12633656344231597
4.25742,4.211533283147699,0.12611458365408135
4.25976,4.216423324229938,0.12587615986753548
4.262104,4.2163779982595635,0.12575030035149884
4.264456,4.219265938595385,0.12556214007504682
4.2668,4.223364583744704,0.1253335684585311
4.269144,4.228953472961245,0.1250407755083569
4.271492,4.232680031058227,0.12478146799153306
4.273828,4.238688229155347,0.12445311380496689
4.276176,4.243625492065828,0.12415675172189146
4.278528,4.253917430909501,0.12372391717336571
4.280868,4.264349139380036,0.12327963060656955
4.283212,4.273570143037071,0.12287710313335821
4.285556,4.285444873746582,0.12243869182890547
4.287896,4.294246568523035,0.12207414274269379
4.290228,4.302256867366571,0.121712772054801
4.29258,4.307985526209972,0.12141624793120467
4.294916,4.319580717665763,0.12100158837325693
4.297256,4.331175909121552,0.12058692881530925
4.2996,4.3449129709506185,0.12012195615848578
4.301944,4.3586500327796855,0.11965802651991352
4.304284,4.374528964982029,0.11914516532617338
4.30662,4.389616501251455,0.11863924747327191
4.308968,4.40484380714774,0.11811571302112395
4.311312,4.416346450804913,0.11765826891090247
4.313656,4.42491582815589,0.11725765816273662
4.315996,4.431343335133592,0.11691153628177174
4.31834,4.439121316551651,0.11651558076597915
4.32068,4.447550924275768,0.11613261004701668
4.323028,4.45304726569369,0.11580430145938778
4.325376,4.45346847043214,0.11558542090519408
4.327724,4.457242250357366,0.1152815944498879
4.330068,4.465439540656006,0.11487175668371942
4.332408,4.474195909462087,0.11442196399971413
4.33476,4.486165083828084,0.11390271954753173
4.337096,4.500136358940496,0.11334766170073496
4.339436,4.520673014799602,0.11264317175753402
4.34178,4.536553842859815,0.11200758065281763
4.344128,4.554716310920165,0.11131957124063613
4.346464,4.56980574304746,0.11069479281578128
4.348808,4.587037045548032,0.11002964885152311
4.351164,4.60026414655577,0.10943671832740222
4.3535,4.611489146817091,0.10887709841861609
4.355844,4.627789283757885,0.10822929928992234
4.358188,4.6458119821913755,0.10756985784443232
4.360528,4.6678388821176995,0.10684421225698866
4.362872,4.6900055516708825,0.10610610280190287
4.365216,4.713103386783845,0.10536261624782584
4.367564,4.73554959559075,0.10461883432889268
4.369908,4.761068840330711,0.10381902455272508
4.372252,4.789661121003726,0.10296955541703745
4.374596,4.810756855370272,0.10227271377763245
4.37694,4.823704417124289,0.10172016747794563
4.379276,4.834742425930506,0.10125339812979109
4.38162,4.843359025109726,0.10085292478166666
4.383968,4.854908890595142,0.10041728240725926
4.386312,4.862314784960864,0.10005894966722748
4.388656,4.871443240819281,0.09968935049603102
4.391,4.875217020744508,0.09941989103775223
4.393352,4.876848930296457,0.09918877963790855
4.395684,4.876338969475129,0.09899931106593995
4.398032,4.880484836452692,0.09876000148683488
4.400384,4.885422099363174,0.09851906749798897
4.40274,4.886727247833158,0.09836985946243633
4.405084,4.88295725962367,0.09830032383686127
4.407428,4.877836796973824,0.09827054048487763
4.409776,4.878163558055788,0.09819176133623765
4.41212,4.878071010257171,0.09814270432565152
4.414464,4.876627988018196,0.09813247361348174
4.416812,4.872111929846165,0.09817014565048739
4.419148,4.862380965367802,0.09829423107449017
4.421492,4.858796072755548,0.09832262943263523
4.423844,4.858656303128687,0.09833252651133673
4.426188,4.859867007942185,0.0983030400309827
4.428544,4.861217482382545,0.09826371124984006
4.430884,4.856421884956792,0.09832146525378578
4.433236,4.850275813090682,0.09841843127993521
4.43558,4.844921137157489,0.09851520337456995
4.437924,4.842919036411073,0.09854438372473158
4.440276,4.848925338650322,0.09845769499386757
4.442616,4.854931640889573,0.0983712977989987
4.44496,4.854140244956655,0.09837099729927899
4.447304,4.858284216076351,0.09830421463872305
4.449652,4.864989366449902,0.09817081591806867
4.452,4.880913624622619,0.0978969369819323
4.454348,4.897908817981976,0.09760711991933903
4.456692,4.905173046862968,0.09743709520936107
4.45904,4.911506110184182,0.09727660460114988
4.461384,4.915697303132118,0.09715260828648363
4.463724,4.921750827199612,0.0970094707921079
4.46606,4.930737617573301,0.09682708058428303
4.468404,4.938653472760351,0.09666582268743766
4.470748,4.945917701641343,0.09649358390278072
4.473092,4.953181930522336,0.09632264883821123
4.475444,4.95909568496297,0.09618935364462412
4.477788,4.9691534105232975,0.09599028539498218
4.480132,4.983355107203319,0.09572709424041735
4.482468,4.999838443883478,0.09542137879182411
4.484808,5.017904572429472,0.09511944205971447
4.487156,5.031035333922855,0.09488534129578591
4.489504,5.04295539060274,0.09467799360634149
4.49184,5.06367524620121,0.09436602449324917
4.49418,5.080390900306845,0.09411098647587751
4.496524,5.092683044039066,0.09393629784939142
4.498868,5.100970986278453,0.09381689925563975
4.501212,5.1020419214650925,0.09379948309643885
4.503552,5.108048223704343,0.09372108651484097
4.5059,5.113123360383816,0.09365089855820993
4.508244,5.120619906690284,0.09352583130136354
4.510584,5.131329258556669,0.09334937097823963
4.512932,5.145251415982971,0.0931227718725205
4.515276,5.158242407849492,0.09290559817601574
4.517616,5.176308536395489,0.09262354369151923
4.51996,5.194234895314623,0.09235253201977109
4.522308,5.214582663860755,0.09202923890569216
4.524648,5.230926230914053,0.09175671763719351
4.526992,5.241123726101241,0.09156794028799124
4.52934,5.2468977109150154,0.0914567516556334
4.531676,5.250017968676314,0.09136029852996937
4.534016,5.250996356064334,0.09129711013135139
4.53636,5.252254282706076,0.0912155379400297
4.538704,5.247785446362289,0.09119000646551205
4.54104,5.241454278898944,0.09118005385310733
4.54338,5.237544521062596,0.0911184095256768
4.545736,5.23242405841275,0.09108251590683904
4.548076,5.238012947629289,0.09087909825872825
4.55042,5.247745807965523,0.0906208175955452
4.55276,5.257618437928616,0.09035260841616619
4.5551,5.268282463824627,0.09008713045704361
4.557444,5.274802518600944,0.08987998307151751
4.559788,5.2771786022575675,0.0897299606093815
4.562136,5.281417017033748,0.089566241037568
4.564476,5.282722165503733,0.08943449245975085
4.566824,5.282304752481021,0.08930811782810534
4.569164,5.28202710908517,0.08917368754777052
4.571516,5.283751566435735,0.08901640275457001
4.573856,5.288037203040159,0.08880052590934967
4.576208,5.292881918152023,0.08854882185378778
4.578556,5.29679546770411,0.0883029572747911
4.5809,5.302850887629472,0.08802424626819093
4.58324,5.31183957386103,0.08771669535928961
4.585584,5.3178949937863935,0.08743638077739838
4.587936,5.326092284085034,0.08712312100919785
4.590272,5.335360509570313,0.08679571996104965
4.59262,5.344768504682451,0.08645971024419358
4.594968,5.344957391995424,0.08624087133092229
4.597304,5.342352782629062,0.08604433784634649
4.599644,5.338677238076061,0.08586233098805146
4.601988,5.333139362403503,0.0856936737015112
4.604332,5.329743357104222,0.08549418685052713
4.606684,5.3274182869915805,0.08527900030704216
4.609024,5.318295518706769,0.08512742455011274
4.611372,5.307170649675542,0.08499763337938092
4.613712,5.294043679897898,0.08488968087604327
4.616052,5.27649319974684,0.08485298943890981
4.6184,5.258011554036002,0.08482266770948921
4.62074,5.240972930564141,0.08480455411536598
4.623088,5.225796638211837,0.08477198057243124
4.625428,5.214484777725506,0.08470341648322241
4.627776,5.202241751679398,0.08464111848814507
4.63012,5.186925689700233,0.08461562151225478
4.63246,5.177476160333459,0.08453296976788201
4.634816,5.167886861339824,0.08445872098151079
4.637152,5.15787825346561,0.08441037955422644
4.639496,5.147729875964534,0.08437064679564998
4.641836,5.1453103621954055,0.0842623498104667
4.644176,5.138746877306583,0.08420535061758766
4.646508,5.137910155403291,0.08410192319359877
4.648852,5.1418690309257515,0.08395958577304384
4.651196,5.146619302381129,0.08382099523694472
4.65354,5.150298638649868,0.08369688997153826
4.65588,5.161706838650554,0.08350615272567395
4.65822,5.172975269024381,0.08332339889423868
4.660564,5.190389771264319,0.08307045009201733
4.662904,5.213158949437448,0.08274324019228872
4.665244,5.23965278984969,0.08239444129583266
4.667592,5.260419867276403,0.08208700211078995
4.669936,5.275972038396784,0.08184319483032705
4.67228,5.290593043957385,0.08160856073185352
4.67462,5.308147315824183,0.08134883629243969
4.676964,5.328774623624034,0.08105540921378669
4.679304,5.34726006105061,0.08079320967432611
4.681648,5.363603628103909,0.08055871155742186
4.683988,5.375151597731456,0.08036054390040827
4.686336,5.385768401799224,0.08016786279312366
4.688676,5.389447738067964,0.0800433463005313
4.69102,5.396851736575816,0.0798944538261149
4.69336,5.399599907284777,0.0797762482684192
4.6957,5.398623415754624,0.07968214333665136
4.698044,5.392991096425581,0.07961638718141455
4.700384,5.388709251536896,0.07951898483389745
4.702732,5.381773679595736,0.07942999674396148
4.705072,5.375769273214355,0.07933534858579351
4.707416,5.362547859780224,0.07932185858097339
4.709764,5.3470448063459575,0.0793439081282827
4.712104,5.326885925112798,0.07939236781418114
4.714452,5.317668713171502,0.07933855804279753
4.716792,5.316739443469592,0.07919151230323929
4.719144,5.312597368207767,0.07908546273859149
4.721484,5.306453192199524,0.07899842538767136
4.723824,5.299377850631505,0.0789164834140543
4.726164,5.290300408317068,0.07885316080187389
4.728496,5.286437872308963,0.07873073146597315
4.730844,5.289652573726749,0.07853901307687638
4.733184,5.295148915144671,0.07831249749963513
4.735536,5.3066515588018435,0.0780308281220859
4.737876,5.315500475406542,0.07775566464284124
4.74022,5.325420327197879,0.07746720006477054
