Time,Force,Position
6.3042240000000005,0.12899445122390782,0.0
6.306632,0.11851372768198466,0.0
6.309016000000001,0.11003510488647837,0.0
6.3114,0.09941461171769504,0.0
6.313804,0.08972528410869,0.0
6.316188,0.07710269019348982,0.0
6.318568,0.06340916109165108,0.0
6.320972,0.051717732736229205,0.0
6.32336,0.03881559956730858,0.0
6.325740000000001,0.027124171211886698,0.0
6.328136,0.015572512483325028,0.0
6.330524,0.01030669524773433,0.0
6.332904,0.004109712452365314,0.0
6.335304,0.0011255352169118877,0.0
6.337687999999999,0.0004229979815957336,0.0
6.340072,0.0,0.0
6.342467999999999,0.0,0.0
6.344852,0.0,0.0
6.347236,0.0,0.0
6.349632000000001,5.091092925825395e-05,0.0
6.352016,5.0910929258253935e-05,0.0
6.354396,5.0910929258253935e-05,0.0
6.356804,5.091092925825395e-05,0.0
6.3591880000000005,0.0021039226049333593,0.0
6.361567999999999,0.002154833534191613,0.0
6.363972,0.00742065076978231,0.0
6.366359999999999,0.013617633565151326,0.0
6.36874,0.022096256360657613,0.0
6.371136000000001,0.029643713596385582,0.0
6.373524000000001,0.039053501951670185,0.0
6.375903999999999,0.04753212474717648,0.0
6.3783,0.05694191310246109,0.0
6.380688,0.06742263664438423,0.0
6.383068000000001,0.07776359055944716,0.0
6.385464,0.08689383966101136,0.0
6.387852,0.09602408876257554,0.0
6.390248000000001,0.10222107155794455,0.0
6.392644,0.10627618398003649,0.0
6.395032,0.11140223158876698,0.0
6.397412,0.11475480677554278,0.0
6.399816,0.12002062401113348,0.0
6.4022,0.12728854199314102,0.0
6.40458,0.13748972628134373,0.0
6.406975999999999,0.14391533740117493,0.0
6.409363999999999,0.1532742148272013,0.0
6.411748,0.15434515001383983,0.0
6.414143999999999,0.1535537540809217,0.0
6.416531999999999,0.15234304926742295,0.0
6.418912,0.1508528052002038,0.0
6.421312,0.1476399996402882,0.0
6.423699999999999,0.147500230013428,0.0
6.42608,0.147500230013428,0.0
6.428476000000001,0.14428742445351242,0.0
6.43086,0.14121438852045703,0.0
6.433243999999999,0.14042299258753893,0.0
6.43564,0.14056276221439915,0.0
6.438024,0.14442719408037263,0.0
6.4404200000000005,0.15243559706604,0.0
6.442816,0.1593730648650689,0.0
6.445204,0.165099827850599,0.0
6.447584,0.16710192859701586,0.0
6.449988,0.16617076303723755,0.0
6.452376,0.16123539598462552,0.0
6.454756000000001,0.15788282079784974,0.0
6.457152,0.15560118079771246,0.0
6.45954,0.1563925767306306,0.0
6.46192,0.1571839726635487,0.0
6.464324,0.15304000154385478,0.0
6.466712,0.14731323855832465,0.0
6.469092000000001,0.1411162557629556,0.0
6.471495999999999,0.13277740259430956,0.0
6.473883999999999,0.12336761423902497,0.0
6.476264,0.11609969625701742,0.0
6.4786600000000005,0.10883177827500988,0.0
6.481048,0.1004929251063638,0.0
6.483427999999999,0.09122290637793941,0.0
6.485828000000001,0.08116149171659688,0.0
6.488212,0.06909797630883752,0.0
6.490592,0.05703446090107816,0.0
6.492988,0.04790421179951397,0.0
6.495375999999999,0.04063629381750642,0.0
6.49776,0.034299541395277196,0.0
6.500156,0.029033724159686494,0.0
6.502540000000001,0.023907676550956006,0.0
6.504919999999999,0.016779528195808666,0.0
6.507324,0.009651379840661327,0.0
6.509712,0.0034543970452923104,0.0
6.512092,0.0003304501829786742,0.0
6.514492,0.0,0.0
6.51688,0.002145559474292163,0.0
6.51926,0.007364154881639709,0.0
6.521664,0.012582750288987254,0.0
6.524052,0.018872280882973328,0.0
6.526432000000001,0.02288017147682213,0.0
6.528828,0.026096666137752824,0.0
6.531216,0.03052386561218226,0.0
6.533596,0.036161769900110434,0.0
6.535996,0.04193944381489882,0.0
6.538379999999999,0.04892782254318595,0.0
6.540764,0.05898923720452846,0.0
6.543159999999999,0.06825925593295286,0.0
6.5455440000000005,0.07752927466137725,0.0
6.547944,0.08493696227024501,0.0
6.550339999999999,0.09127371469247424,0.0
6.552727999999999,0.0994727982342601,0.0
6.555108,0.10753211214918576,0.0
6.557504000000001,0.11838492274344638,0.0
6.5598920000000005,0.1293775029645672,0.0
6.562271999999999,0.1386475216929916,0.0
6.564668,0.14470104576048531,0.0
6.567056,0.14581920277536697,0.0
6.5694360000000005,0.14479548941697162,0.0
6.571840000000001,0.1427008408719377,0.0
6.574228000000001,0.14209643639412295,0.0
6.576607999999999,0.1461478597151998,0.0
6.579012,0.14698647747636107,0.0
6.5814,0.14447252005074654,0.0
6.58378,0.14302949781177055,0.0
6.586175999999999,0.13930483557265724,0.0
6.588564000000001,0.13050503665407173,0.0
6.590948,0.12249663366840433,0.0
6.593343999999999,0.11322661493997993,0.0
6.595732000000001,0.10581892733111217,0.0
6.598112,0.09948217490888295,0.0
6.600511999999999,0.09128309136709707,0.0
6.602896,0.08322377745217141,0.0
6.605276000000001,0.07237096685791079,0.0
6.6076760000000005,0.06137838663678998,0.0
6.61006,0.05210836790836559,0.0
6.612443999999999,0.04600951787049797,0.0
6.61484,0.04070206376554847,0.0
6.617228,0.03846764559365435,0.0
6.619608,0.03609345779490002,0.0
6.622008,0.035302061861981905,0.0
6.624396,0.028034143879974355,0.0
6.626791999999999,0.02295900720050212,0.0
6.629188,0.019835060338188482,0.0
6.631576,0.015500408662376106,0.0
6.633956,0.01223669217320226,0.0
6.636356,0.010975076430445267,0.0
6.638744,0.009713460687688271,0.0
6.6411240000000005,0.009713460687688271,0.0
6.64352,0.010695537176724846,0.0
6.645908,0.010695537176724845,0.0
6.648288,0.010695537176724845,0.0
6.650692,0.010695537176724848,0.0
6.65308,0.010695537176724848,0.0
6.655460000000001,0.010695537176724848,0.0
6.657856,0.010695537176724848,0.0
6.660244,0.008595303672806592,0.0
6.662628000000001,0.007566005355526866,0.0
6.665024,0.0056055414784688205,0.0
6.667412,0.003784847228270984,0.0
6.669792,0.0011727570451550383,0.0
6.672192,0.0011727570451550383,0.0
6.67458,0.0009820764890365744,0.0
6.67696,0.0009820764890365744,0.0
6.67936,0.0013125266720152486,0.0
6.681743999999999,0.005507408720967415,0.0
6.684124,0.00770019002350273,0.0
6.686524,0.008030640206481404,0.0
6.688911999999999,0.008030640206481404,0.0
6.691292,0.007379013900423504,0.0
6.693688000000001,0.0077094640834021785,0.0
6.696079999999999,0.008039914266380852,0.0
6.69846,0.008370364449359525,0.0
6.700856000000001,0.008370364449359527,0.0
6.703244000000001,0.008370364449359527,0.0
6.705628,0.008370364449359527,0.0
6.708023999999999,0.008370364449359527,0.0
6.710412000000001,0.008370364449359527,0.0
6.712796,0.008744244744843834,0.0
6.715191999999999,0.012888113249815331,0.0
6.717580000000001,0.02517825850944521,0.0
6.719964,0.04319327089673599,0.0
6.722359999999999,0.06786431597146597,0.0
6.724747999999999,0.1010537248531918,0.0
6.727144,0.13977732030646003,0.0
6.729539999999999,0.18236345176783253,0.009112180793360583
6.731928000000001,0.234259342969119,0.01811078693026253
6.734312,0.2990498865225724,0.026650278762805187
6.736707999999999,0.37040760406586315,0.03528314352577956
6.739095999999999,0.44860276079281214,0.04391950897152144
6.74148,0.5351765116998968,0.05242480230255915
6.74388,0.6305481656676977,0.06073171986850531
6.746263999999999,0.7292232771361619,0.06931629398369384
6.748639999999999,0.8375385985275189,0.07774652744929691
6.751036,0.9534411181660933,0.08611693774998135
6.753419999999999,1.0762792097458276,0.09443300189651134
6.755812,1.2046098510277452,0.10271874850120268
6.758208000000001,1.3379211853326487,0.11095317065103484
6.760592,1.4727662964319987,0.11930175310170758
6.762972,1.60831025566565,0.12757702267024415
6.765376000000001,1.739664917809233,0.1357615361611041
6.767764000000001,1.8648754039445743,0.14400580126762075
6.770143999999999,1.9823589222058384,0.15230848727231355
6.772548,2.092395011846745,0.1605527523788302
6.774932000000001,2.1954955295464917,0.16885543838352307
6.777316,2.2876562738122455,0.16822660984809723
6.77972,2.37330075501742,0.16769151813122096
6.782104,2.4471215190570663,0.16763537855661303
6.784484,2.5159162641033523,0.16740413174501173
6.786888,2.5788935942233606,0.16706875521226913
6.789272,2.6334923301632327,0.16686445079423068
6.791652,2.6788738541618082,0.16691952705185875
6.794056,2.724676582898834,0.16654354617595288
6.796444,2.759167451149529,0.16641768031903784
6.798824000000001,2.784069020406589,0.16645013563803962
6.801227999999999,2.804176888095767,0.16641836575481136
6.803616000000001,2.8198631412694,0.16635895031170386
6.805996,2.8314998669798253,0.16631341767235794
6.808392,2.8450933674662933,0.16598961092539338
6.81078,2.8562201323553897,0.1656508686271536
6.813156,2.8625985216469783,0.16541847498583231
6.8155600000000005,2.8715380901924235,0.16502128684629774
6.817948,2.8854130257904815,0.16441762072059227
6.820327999999999,2.898868652507958,0.1638764187891885
6.822731999999999,2.9160489414645485,0.16320126837101337
6.825116,2.935231331167556,0.16241134374167354
6.8275,2.9557641953109224,0.16154498094443595
6.829904,2.9770884553872063,0.1606587803092892
6.832287999999999,2.997062241023132,0.15987161630514027
6.834668,3.015545782591838,0.1592024138955989
6.837072,3.032818619347045,0.1585988655171241
6.83946,3.0505107649828336,0.15793431222807439
6.84184,3.0646180180063687,0.15740563717413936
6.844236,3.0819380765898194,0.1567157235126754
6.846623999999999,3.100329070359909,0.1559578236853043
6.849004,3.114436323383444,0.15541607980281694
6.851404,3.126401706033702,0.1549820963032555
6.853791999999999,3.1350145134971843,0.15472385351400636
6.856172,3.1386919539080544,0.15468198327534977
6.858576,3.1383651928260905,0.15481624447674414
6.86096,3.1369674965574887,0.15500599455772204
6.86334,3.1315655987960525,0.15537367293693852
6.865744,3.1210885643551443,0.15596587617683572
6.868132,3.1099599036081784,0.15655403612060736
6.870515999999999,3.0940356454354605,0.15733424344440164
6.872912,3.0833262935690753,0.15785758887934492
6.875296,3.0696836753964942,0.15849467706802997
6.877676,3.0543184957312173,0.15918703971978798
6.880071999999999,3.041234956066078,0.1597484833125174
6.882459999999999,3.0321556178937725,0.1601310912028731
6.88484,3.0253579197216034,0.16039502017286275
6.887236000000001,3.0164183511761586,0.16076575689873218
6.889624,3.0076185522575734,0.1611162265815371
6.892003999999999,2.99667688296571,0.1615673158722856
6.894407999999999,2.9875975447934042,0.16195273794812304
6.8967920000000005,2.9803805377406554,0.16227836482770272
6.899176,2.9760967969941006,0.16248458495783344
6.901568,2.980240768113795,0.16230032580193782
6.903956,2.985595444046987,0.1620461233263596
6.9063360000000005,2.9940231559132355,0.16165525304001604
6.908732,3.0031024940855415,0.16125977067484096
6.911116000000001,3.0177688256165176,0.16066800072233434
6.913495999999999,3.034996336401351,0.15991874700552305
6.915904,3.051292681626406,0.15919908782572337
6.918288,3.074154407598152,0.15816381082316547
6.920668,3.089287269837952,0.1574334888169555
6.923072,3.1042803624508917,0.15671501726770548
6.92546,3.121787412489446,0.155928918027736
6.927840000000001,3.1348709521545857,0.15536747443500656
6.930243999999999,3.1411567936475566,0.15507787594853395
6.932628,3.1475824047673875,0.15477478321449578
6.935008000000001,3.158431526260633,0.15425203120546835
6.937404,3.1699322740599367,0.15373741159953888
6.939787999999999,3.186228619284992,0.1530557727642645
6.942168,3.202664734136907,0.15236495832137145
6.944567999999999,3.2255264601086546,0.15141315275449588
6.946955999999999,3.247736559774343,0.15047460376495597
6.949352,3.2650112923874195,0.14974802147224414
6.951747999999999,3.2784215931345226,0.14913964336938212
6.954132,3.292763059441404,0.14851368421394756
6.956516,3.313250597614396,0.14766936152836543
6.958912000000001,3.3301532431751357,0.14693344986260284
6.9613000000000005,3.3435635439222393,0.14635632616795932
6.963679999999999,3.358184549482841,0.14571920977295333
6.966076,3.366379943923612,0.1453449636936951
6.968464,3.3801623317230525,0.14480814721442972
6.9708440000000005,3.3967382162018285,0.14419444383196597
6.973248000000001,3.413314100680604,0.14358459805080803
6.975636000000001,3.432451164413237,0.14283390004134858
6.978015999999999,3.4538698681460076,0.14196626594474784
6.980412,3.471004831132224,0.14126650057645418
6.9828,3.4867893196780817,0.14065552286916647
6.985183999999999,3.5027135778507996,0.14003532618853962
6.98758,3.51090897229157,0.13965883501446333
6.989968,3.5160313307992856,0.13939233575110505
6.992348000000001,3.5100722503882777,0.13951193198837158
6.994744,3.503973400350411,0.13964482655745813
6.997132,3.4958724495661264,0.1398446895016015
6.999512,3.4944294273271503,0.13984870988134032
7.0019160000000005,3.4901929084088392,0.13992913330936185
7.004304,3.482371496878275,0.14008791761079092
7.006684000000001,3.4714770494146556,0.14035558536927428
7.009087999999999,3.4640749467646716,0.1404710954289671
7.011475999999999,3.4583954056073853,0.1405501478094651
7.013856,3.4556491307562927,0.14054040046563748
7.01626,3.4511802944125045,0.14056361249917743
7.018648,3.4431265654564633,0.14066869853960287
7.021031999999999,3.434700749448085,0.14073499846991622
7.023428,3.4258556245591256,0.14084684644241083
7.025816,3.4184535219091416,0.14095606722548304
7.028196,3.4171974911252696,0.14085993257916402
7.030592,3.416220999595117,0.14073377003807153
7.032979999999999,3.4153842776918255,0.1405931329363814
7.035364,3.4184119876545065,0.14034065418766561
7.03776,3.425443899110022,0.1399622658644256
7.040147999999999,3.4355488464985924,0.1394662313790243
7.042528,3.447516125006719,0.1389310397408807
7.044932,3.459623173141707,0.13837650841605312
7.04732,3.4740118612768316,0.13775211066816792
7.049703999999999,3.4871898445984577,0.13717396759358114
7.0521,3.497946418293086,0.13670522772013316
7.054484,3.512846963107408,0.13609232892042225
7.056864,3.52732819904115,0.13553276182421528
7.059259999999999,3.53687406792228,0.13511844289946245
7.061644,3.5456285408704913,0.1347145729022971
7.064039999999999,3.5554539490053414,0.13427593189710132
7.066432,3.5690040193793044,0.13374677801410745
7.068815999999999,3.5850680471788823,0.13318982655139244
7.071196,3.6035534846054578,0.1325363091666694
7.0735920000000005,3.622458230912614,0.1318455220761261
7.075976,3.6395006461002137,0.13121283819164153
7.078352,3.655611895728035,0.13060732157642013
7.080768,3.6702329012886366,0.1300820799678927
7.083151999999999,3.688066712409154,0.12946203951220034
7.085532,3.7071112283431704,0.12881052919718164
7.087936,3.731370650583519,0.12801235034068634
7.090319999999999,3.7477614394650605,0.12740637696975954
7.0927,3.764152228346602,0.12679732694791607
7.095096000000001,3.772255074988755,0.1264331790692647
7.09748,3.7834309575639646,0.1259814695776879
7.0998600000000005,3.793815444206256,0.1255299332917812
7.102272,3.802989226035048,0.12512866362691308
7.104655999999999,3.8112318423040623,0.12474844797783118
7.107036,3.827203322305023,0.12418800231637676
7.10944,3.844105967865763,0.12361202643663703
7.111824,3.8638021101058366,0.12299435794691965
7.114204,3.8824273171592725,0.12241670391609384
7.116596,3.895185991600318,0.12197590569440465
7.11898,3.9085962923474216,0.12155416217523347
7.121364000000001,3.9227979890274427,0.12113458705017498
7.123776,3.9395136431330777,0.12069900468831071
7.126164,3.9576723194776893,0.12027220233879592
7.128544000000001,3.97718147026266,0.1197916230815738
7.130947999999999,3.994269211420633,0.11940296901933772
7.133336000000001,4.00800437739183,0.11911791063775846
7.135716,4.0241137311617825,0.11883627615728926
7.138115999999999,4.04930242310404,0.11835587906318548
7.140503999999999,4.078215777285412,0.11782053029549239
7.142884,4.111412872213337,0.11717057565341399
7.145288,4.145680902327901,0.11650488098944176
7.147671999999999,4.18288219874866,0.11577996849070303
7.150052,4.221014660729198,0.1150428201441902
7.152456,4.257145021963318,0.11434108235015537
7.154844,4.288759325025407,0.11371951789808865
7.15722,4.320094088833776,0.11312655181342045
7.159624,4.343280680029617,0.11270866308168823
7.162012,4.366746810479178,0.11227223700903377
7.164392,4.395288077608211,0.11172728839600894
7.166796000000001,4.419964912871271,0.11125650136767415
7.16918,4.440637546641498,0.11086609771915014
7.17156,4.453721086306637,0.11060045676443925
7.173964000000001,4.464011129292443,0.11037748323262626
7.1763520000000005,4.47215930190497,0.11020612493597108
7.178731999999999,4.476862351532104,0.11006719805369401
7.181136,4.483986810786237,0.10985485057712709
7.183520000000001,4.479517974442449,0.10984651481603261
7.185899999999999,4.469974001419188,0.109941251886951
7.188304,4.454563495783537,0.1101422797627883
7.190691999999999,4.437802515707528,0.11039021779761234
7.193072,4.419691061191159,0.11068232112616563
7.195476,4.402510772234569,0.11095639208010881
7.19786,4.38467885697192,0.11121905574423188
7.20024,4.371922078388744,0.11138055033918713
7.202644,4.356883659805431,0.1116034266155444
7.205032,4.34133338454292,0.11180438506175581
7.207408,4.3322087204002395,0.11185980940595927
7.209803999999999,4.320011020324504,0.1119774841381943
7.212191999999999,4.307673550621908,0.11210285919491551
7.214571999999999,4.29733818166573,0.11219087202403188
7.216976,4.2910070142023855,0.11220491334595867
7.219359999999999,4.288819817858735,0.11213349630186314
7.22174,4.286772391141944,0.1120506221829273
7.224144,4.285144273305733,0.11193338838913879
7.226532,4.286309652148858,0.1117752313692761
7.228912,4.283051520618569,0.11172794549881034
7.231316,4.286591087260448,0.11156129663386222
7.2337,4.292132754648743,0.11135572981813113
7.23608,4.2995367531565964,0.11111909932226145
7.238484000000001,4.30722029091817,0.11085901417190742
7.240872,4.31145870569435,0.11063039336430824
7.243251999999999,4.311692918977697,0.11048197970201
7.245648,4.311647593007323,0.11035720917730599
7.248036,4.307458295917255,0.11032387448598657
7.250416,4.30834413550666,0.11018614507207938
7.252812,4.310812766961901,0.11004503343813761
7.255196000000001,4.309928823230366,0.10999135441020087
7.257575999999999,4.312769541737944,0.1098834606264605
7.259968,4.31095443244663,0.10984323243218935
7.262351999999999,4.304995352035623,0.1098926587564774
7.264731999999999,4.29610300531842,0.10999406305685182
7.267136,4.288002054534135,0.1100922107225915
7.269519999999999,4.2780387726302935,0.1102196852196116
7.2719,4.2708689874057875,0.11030470341717402
7.274296,4.265701302927698,0.11035008410194272
7.27668,4.263886193636386,0.11030943760399427
7.27906,4.2634215587854305,0.11022138020578519
7.281452000000001,4.25988388800142,0.11019557761049673
7.28384,4.259559022777325,0.11009611499539382
7.286216,4.258163222366593,0.11002102774166593
7.288632000000001,4.261283480127893,0.10989155618957794
7.291016,4.266545608262468,0.1097117512394865
7.293396,4.271667966770183,0.10954327962141158
7.295792,4.279071965278035,0.10931387461710976
7.298179999999999,4.280609431173498,0.10918728603749553
7.30056,4.277630838896928,0.1091150554045483
7.302972,4.276794116993636,0.10899331654622363
7.305359999999999,4.2751659991574265,0.10887389716914024
7.30774,4.277122773933469,0.10871309758778444
7.310144,4.285505159829343,0.10840525881586642
7.312527999999999,4.2941670849789375,0.10807317373967783
7.314908,4.303899945315171,0.10772073365076663
7.317303999999999,4.320710043077294,0.10723610797280263
7.319692000000001,4.335518040092999,0.10679276468443112
7.322088,4.346042296362151,0.1064447576236814
7.324483999999999,4.355495617444663,0.10612256149543468
7.326868,4.359873801847702,0.10589585464867039
7.329248000000001,4.36746479181066,0.10559788469871484
7.331651999999999,4.376126716960254,0.10528249067148607
7.334036,4.385999346923347,0.10493266153074662
7.336419999999999,4.393358019460826,0.1045980706618536
7.338824,4.400716691998305,0.10426405987697886
7.341207999999999,4.408634443043225,0.10388653624358132
7.343588,4.4136189277819495,0.10355516176593686
7.345992,4.422467844386647,0.10316406924770566
7.34838,4.435181192857319,0.1027133953552387
7.35076,4.446311749462153,0.10226588912490489
7.353164,4.453577874201015,0.10187462525105814
7.355552,4.457910732633681,0.10152874568418899
7.357931999999999,4.456888915133155,0.1012984509718439
7.360335999999999,4.457449889498465,0.1010671487910049
7.362723999999999,4.452935727184302,0.10092708912896833
7.365104,4.442927119310087,0.1009108650122886
