Time,Force,Position
5.928296,0.13845178155457152,0.0
5.930632,0.14576133640593786,0.0
5.932976,0.15293112163044403,0.0
5.935316,0.15916974129517186,0.0
5.937664,0.16834162726609483,0.0
5.940004,0.17658234767723952,0.0
5.942348,0.17867699622227343,0.0
5.944692,0.18184257995394587,0.0
5.947028,0.18249420626000376,0.0
5.949371999999999,0.1810039621927846,0.0
5.951716,0.1775116173791486,0.0
5.954052,0.17765138700600883,0.0
5.956396,0.1767202214462305,0.0
5.95874,0.1760685951401726,0.0
5.961084,0.1706213714083629,0.0
5.963428,0.1591678454373026,0.0
5.965772,0.14541044427506505,0.0
5.968116,0.13272397829946608,0.0
5.97046,0.12234138751504435,0.0
5.972804,0.10979469116630554,0.0
5.975148,0.09897055631026318,0.0
5.977492,0.09072983589911854,0.0
5.979828,0.08111640585657491,0.0
5.982176,0.07136320618717108,0.0
5.98452,0.06067884095798897,0.0
5.986864,0.05108764610648534,0.0
5.989208,0.04736298386737206,0.0
5.991548,0.03963412013542507,0.0
5.993892,0.034698753082813054,0.0
5.996232,0.0286702156525225,0.0
5.99858,0.023712613408870487,0.0
6.00092,0.018475471911498058,0.0
6.00326,0.012307164854347307,0.0
6.0056,0.006930253730114662,0.0
6.007944,0.0035554433522988725,0.0
6.010284,0.004579156710694252,0.0
6.012624,0.004579156710694251,0.0
6.014972,0.004579156710694251,0.0
6.01732,0.004137612639073632,0.0
6.019656,0.004137612639073632,0.0
6.022,0.004137612639073632,0.0
6.024348,0.0036960685674530137,0.0
6.026684,0.0036960685674530137,0.0
6.029028,0.0036960685674530137,0.0
6.031372,0.0036960685674530137,0.0
6.03372,0.003534063749552815,0.0
6.03606,0.0015097278120959753,0.0
6.038404,0.0014874926210559868,0.0
6.04076,0.0014652574300159983,0.0
6.043092,0.0014652574300159983,0.0
6.045444,0.0014652574300159985,0.0
6.047788,0.0014652574300159985,0.0
6.050132,0.0014652574300159985,0.0
6.052468,0.0014652574300159985,0.0
6.054812,0.0014652574300159985,0.0
6.05716,0.0,0.0
6.0595,0.0,0.0
6.061844000000001,0.0,0.0
6.064183999999999,0.0,0.0
6.066523999999999,0.0,0.0
6.068868,0.0,0.0
6.071208,0.0,0.0
6.073548000000001,0.0,0.0
6.075887999999999,0.0,0.0
6.078232,0.0,0.0
6.080572,0.0,0.0
6.082912,0.0,0.0
6.085248,0.0,0.0
6.087588,0.0,0.0
6.089931999999999,0.0,0.0
6.092272,0.0,0.0
6.094616,0.0,0.0
6.0969560000000005,0.0,0.0
6.099296000000001,0.0,0.0
6.10164,0.0,0.0
6.10398,0.0,0.0
6.10632,0.0,0.0
6.10866,0.0,0.0
6.111000000000001,0.0,0.0
6.113344,0.0008136311239580991,0.0
6.1156880000000005,0.0036293629943330488,0.0
6.118024,0.004442994118291147,0.0
6.120364,0.00926082673508295,0.0
6.122707999999999,0.011145393045679578,0.0
6.125048,0.013029959356276207,0.0
6.127392,0.013052194547316195,0.0
6.129732000000001,0.013074429738356184,0.0
6.132076,0.013074429738356184,0.0
6.134411999999999,0.015890161608731135,0.0
6.136756,0.017495188665607342,0.0
6.139096,0.020171150909122085,0.0
6.141439999999999,0.024057817966135566,0.0
6.14378,0.025802614649871984,0.0
6.146124,0.027547411333608402,0.0
6.148464000000001,0.02808150320384608,0.0
6.150803999999999,0.02808150320384608,0.0
6.153148,0.02808150320384608,0.0
6.155488,0.02808150320384608,0.0
6.15784,0.02808150320384608,0.0
6.160183999999999,0.02726787207988798,0.0
6.162528,0.02445214020951303,0.0
6.164871999999999,0.02363850908555493,0.0
6.1672080000000005,0.01882067646876313,0.0
6.169556,0.0169361101581665,0.0
6.171899999999999,0.015051543847569876,0.0
6.174244,0.015029308656529888,0.0
6.176584,0.0150070734654899,0.0
6.178927999999999,0.0150070734654899,0.0
6.181272,0.01219134159511495,0.0
6.183608,0.01058631453823874,0.0
6.185955999999999,0.007910352294724,0.0
6.188295999999999,0.004023685237710518,0.0
6.19064,0.002278888553974098,0.0
6.192988,0.0005340918702376788,0.0
6.1953320000000005,0.0003943222433774678,0.0
6.197676,0.00039432224337746777,0.0
6.20002,0.002139118927113887,0.0
6.202368,0.002139118927113887,0.0
6.20472,0.002139118927113887,0.0
6.207051999999999,0.002673210797351566,0.0
6.209396,0.006280338600644625,0.0
6.211744,0.010958401590576216,0.0
6.214079999999999,0.014705299020729486,0.0
6.216424,0.018312426824022544,0.0
6.218767999999999,0.022710950560233714,0.0
6.221116,0.024967603923167825,0.0
6.223452,0.0261533220994634,0.0
6.225795999999999,0.02640787471598066,0.0
6.228144,0.02640787471598066,0.0
6.230487999999999,0.02640787471598066,0.0
6.232832,0.02640787471598066,0.0
6.235175999999999,0.02640787471598066,0.0
6.237527999999999,0.02640787471598066,0.0
6.239863999999999,0.02640787471598066,0.0
6.242212,0.02640787471598066,0.0
6.24456,0.029875232892413513,0.0
6.2469,0.03159779438510994,0.0
6.24924,0.038277958121458386,0.0
6.251580000000001,0.044958121857806836,0.0
6.253928,0.05031279779099949,0.0
6.256268,0.05566747372419214,0.0
6.258608000000001,0.05808888335118962,0.0
6.260956,0.06465426409788101,0.0
6.263299999999999,0.07243034965807114,0.0
6.265644,0.07862364335242505,0.0
6.267984,0.08602764186027771,0.0
6.2703240000000005,0.0935714099949906,0.0
6.272668,0.1031172788761203,0.0
6.275012,0.1139886355604058,0.0
6.277355999999999,0.12285789149827445,0.0
6.279707999999999,0.1306562122495046,0.0
6.282048,0.13631266262745767,0.0
6.284388,0.14103794744563242,0.0
6.286724,0.14548369301008673,0.0
6.289059999999999,0.14874372039824546,0.0
6.2914080000000006,0.14972210778626693,0.0
6.293747999999999,0.1507004951742884,0.0
6.296099999999999,0.1446016451364208,0.0
6.298439999999999,0.14036512621810981,0.0
6.300784,0.139061873605994,0.0
6.303124,0.13054161394112893,0.0
6.305467999999999,0.12495462058245899,0.0
6.307812,0.11464234240561433,0.0
6.310155999999999,0.10325912904213114,0.0
6.312507999999999,0.09266731161156604,0.0
6.314848,0.08300665974077927,0.0
6.317188,0.07427717342977083,0.0
6.319532000000001,0.06477852637688428,0.0
6.321871999999999,0.0551401096971375,0.0
6.32422,0.0485747289504461,0.0
6.326563999999999,0.04429098820389198,0.0
6.328908,0.04429098820389197,0.0
6.331251999999999,0.04629308895030883,0.0
6.333600000000001,0.05085636895058337,0.0
6.335927999999999,0.051275677831164004,0.0
6.338267999999999,0.04797032447263135,0.0
6.340612,0.043873575181180596,0.0
6.34296,0.04443265368862144,0.0
6.3453,0.04198900887058397,0.0
6.347643999999999,0.037403493679269435,0.0
6.349992,0.03696194960764882,0.0
6.352328,0.03645009292845113,0.0
6.354668,0.04145491700034629,0.0
6.357008,0.05260581293835222,0.0
6.359356,0.0665502055556931,0.0
6.361699999999999,0.07863226705347735,0.0
6.364039999999999,0.09257665967081824,0.0
6.366388000000001,0.10435694672384208,0.0
6.368727999999999,0.11720816896350444,0.0
6.371067999999999,0.13113032638980535,0.0
6.373412,0.14649550605508224,0.0
6.37576,0.15771671460066528,0.0
6.3781,0.1677272183327495,0.0
6.38044,0.17545608206469648,0.0
6.382792,0.19291591027500735,0.0
6.3851320000000005,0.21437993997815186,0.0
6.387472000000001,0.23956863192040964,0.0
6.389816,0.26810989904944327,0.0
6.392156,0.3007248246905937,0.0
6.394499999999999,0.332548354398826,0.0
6.396844,0.36157838742772336,0.0
6.399184,0.38839709306406056,0.0
6.401532,0.406276230154952,0.0
6.403872,0.41614696426017606,0.0
6.406216000000001,0.4204307050067302,0.0
6.40856,0.42415536724584346,0.0
6.410912,0.425226302432482,0.0
6.4132560000000005,0.4260176983654001,0.0
6.4156,0.42001139612614957,0.0
6.41794,0.41051274907326296,0.0
6.42028,0.3947754823556485,0.0
6.422623999999999,0.3839735826906462,0.0
6.424963999999999,0.37438238783914257,0.0
6.427304,0.36465142336077877,0.0
6.429651999999999,0.34626042959068964,0.0
6.431996,0.3247963998875451,0.0
6.434336,0.30147003906484393,0.0
6.436679999999999,0.2718578367491718,0.0
6.439019999999999,0.23924291110802132,0.0
6.441364,0.20748883841907212,0.0
6.443704,0.17845880539017475,0.0
6.446052,0.15063947717477613,0.0
6.448396000000001,0.13047870008374746,0.0
6.45074,0.10945707004051751,0.0
6.4530840000000005,0.09122893667662248,0.0
6.455428,0.07735400107856473,0.0
6.457768,0.062338673274585296,0.0
6.460115999999999,0.05139700398272272,0.0
6.462464000000001,0.0471132632361686,0.0
6.464808,0.04632186730325048,0.0
6.4671520000000005,0.04897559435572523,0.0
6.469492000000001,0.047625119915366276,0.0
6.47184,0.04292207028823152,0.0
6.474176,0.03756739435503888,0.0
6.476516,0.03887064696715468,0.0
6.478859999999999,0.04310716588546565,0.0
6.4812080000000005,0.046132979990277885,0.0
6.483544,0.04822762853531179,0.0
6.485884,0.048249863726351774,0.0
6.488232,0.04818040670706864,0.0
6.490572,0.04927357708474716,0.0
6.4929120000000005,0.051297913022203996,0.0
6.495252000000001,0.0485747289504461,0.0
6.4976,0.04976044712674168,0.0
6.499936,0.04982800828815558,0.0
6.502279999999999,0.04884772504226487,0.0
6.504628,0.05198642627886588,0.0
6.506964,0.053750522026198705,0.0
6.509316,0.05420946930354648,0.0
6.511656,0.05587722553652377,0.0
6.513999999999999,0.059684956284908885,0.0
6.51634,0.0709401156536513,0.0
6.518684,0.09257596994894621,0.0
6.521032,0.12324204473043468,0.0
6.523372,0.15725879884082972,0.0
6.525715999999999,0.1955573978399096,0.011568887060335894
6.528055999999999,0.2377185328470938,0.023279904018100858
6.530396,0.29240223315410746,0.034125989819152505
6.532731999999999,0.3551849883875363,0.04495180027136665
6.535072,0.42729973855191916,0.05525645757812858
6.537416,0.5013924584138096,0.06572746974041171
6.539759999999999,0.5836314550303584,0.07569264324206579
6.542104,0.6741787332194659,0.08547124906348853
6.544444,0.7716865699869362,0.09495129584236987
6.546787999999999,0.8756653438446115,0.10436166045325676
6.549128,0.9859752851656317,0.11359283961155484
6.551472,1.1036420031662604,0.12236877593654295
6.553815999999999,1.2229859566892116,0.1310953351978421
6.556156,1.344286684988206,0.13972773686511014
6.5585,1.462608821010631,0.14840664047139135
6.560840000000001,1.5863800766227352,0.1567347433719906
6.563179999999999,1.7045662347340385,0.16504310112067835
6.565519999999999,1.8170747475459241,0.1731868265932312
6.56786,1.9219035143119754,0.18124751856615742
6.570204,2.020588105069785,0.18930821053908364
6.57254,2.1136403764985507,0.1858622269158061
6.57488,2.2017591767325735,0.1823554232011063
6.577223999999999,2.2824305483462393,0.1796141579342887
6.579564,2.358355440220265,0.17681389905146466
6.581916,2.4251103419812376,0.17451441136916124
6.584263999999999,2.4897252692268026,0.17201122172008382
6.586604,2.5411187830382365,0.17022921272602615
6.588948,2.585809042333988,0.16869704814333866
6.5912880000000005,2.6200713848749433,0.1676099239790946
6.593632,2.648841177713716,0.1666141795052664
6.595972,2.6709549378650492,0.16571110324756755
6.598312,2.680870997940647,0.16536801819409064
6.600655999999999,2.691485906150546,0.16492657464170404
6.603,2.7022405839873054,0.1644796706224782
6.605352,2.7124834051448667,0.16400721506721838
6.607692,2.7148575929436207,0.16394867027679474
6.610035999999999,2.716719924063178,0.16386775403515422
6.612375999999999,2.715369449622819,0.16397046980133662
6.614711999999999,2.711457795928603,0.1642594419679352
6.61706,2.706475207047747,0.16461210500995177
6.619400000000001,2.7047054237268076,0.16477804574146415
6.621744,2.706939841898702,0.16474321579317494
6.624088,2.707172159324179,0.1648077785537169
6.626431999999999,2.708615181563155,0.16479358914592823
6.628779999999999,2.7131312397351866,0.16463124243381805
6.631124,2.7156451971608013,0.1645615770644467
6.633471999999999,2.723094521639028,0.1642604356471569
6.635819999999999,2.731754550930753,0.16388006091066606
6.638156,2.7467004217154494,0.163177528741438
6.640499999999999,2.767000968433338,0.16221965644438358
6.642847999999999,2.78488010552423,0.16141058700281016
6.64518,2.8063441352273744,0.1604654358297435
6.647516,2.8218018626912684,0.15980032596700217
6.64986,2.836328424595384,0.1591887489815859
6.652208,2.8527173176190566,0.15851117712560564
6.654539999999999,2.867942727657473,0.15779721006783054
6.656879999999999,2.8831681376958898,0.1570888020198092
6.659228000000001,2.8922474758681957,0.15665005277062682
6.66156,2.9021182099734197,0.1561824117214086
6.6639,2.9135717359444797,0.15567422891818583
6.666243999999999,2.9190189596762894,0.15546024404233502
6.668588,2.9267478234082365,0.1551255348853824
6.6709320000000005,2.9327541256474867,0.15484175193717484
6.673271999999999,2.934476687140183,0.1547880124077473
6.675623999999999,2.928982241580131,0.1550939004371121
6.677960000000001,2.9252103575127744,0.15534691179638932
6.680304,2.923440574191835,0.15550234751478398
6.682648,2.923952430871032,0.15552542633168323
6.684996,2.9178063590049215,0.1558125585243565
6.687336,2.9036518841531436,0.15644549503488517
6.689679999999999,2.891359740420922,0.1570161459263923
6.692036,2.87892782706184,0.15760052450285275
6.694384,2.872082907061428,0.15798106656654187
6.696728,2.8635154255683197,0.1584076938137763
6.699071999999999,2.852573756276457,0.15887627954385042
6.701412,2.8425632525443723,0.1593150359010667
6.703747999999999,2.830271108812151,0.15988568679257378
6.706092,2.831062504745069,0.1598702687268711
6.708432,2.835858102170821,0.15967863608197377
6.71078,2.839210677357597,0.159497385137899
6.71312,2.848197467731286,0.1590053978368634
6.715463999999999,2.8474532936266113,0.15892037940440518
6.717808,2.849642385828132,0.1587120318881437
6.720144,2.854624974708987,0.15839819342506903
6.722491999999999,2.863471995455816,0.1579121920072509
6.724843999999999,2.8767425265760584,0.15720734566490896
6.727183999999999,2.8884302658304652,0.1565495546453621
6.729528,2.8933203069127034,0.15616435648721366
6.731871999999999,2.9019350102340553,0.15564082460416806
6.7342200000000005,2.9152055413542985,0.15494327942291555
6.736556,2.9254030365414856,0.154376029326331
6.738904,2.935600531728673,0.1538129702843651
6.741244,2.9455657094903835,0.15320456154378523
6.743587999999999,2.956462052811872,0.15256579105382398
6.745932,2.9681497920662787,0.15191224880127605
6.748276000000001,2.9824912583731606,0.15118490177517044
6.75062,3.001768091732654,0.1502590459952776
6.752955999999999,3.0138279180393983,0.14967607882665054
6.7553,3.023234017293668,0.14917772742183671
6.757643999999999,3.035852922107853,0.14853888455037353
6.759995999999999,3.047121352481679,0.14799712628432274
6.76234,3.063976776214175,0.14726182882465352
6.764683999999999,3.0784107903196736,0.14665927026517078
6.767023999999999,3.092705034798312,0.14607989821879583
6.769372000000001,3.107278818530671,0.14546488727899887
6.771711999999999,3.113983968904223,0.14514820222655345
6.77406,3.1176160833447195,0.1449544207053369
6.776396,3.1269749607707453,0.14456306010281894
6.778739999999999,3.1351231333832734,0.14423870645610629
6.781088,3.141408974876244,0.14397620439515002
6.783424,3.1547720537951047,0.14344167949514908
6.785772,3.166552340848128,0.14293039115820916
6.788112,3.176330527154735,0.14250281545168106
6.79046,3.183454986408867,0.14214192490941505
6.792804,3.191510611222778,0.14175567663096078
6.7951440000000005,3.1962136608499123,0.14152315148173666
6.797492,3.1991941489843505,0.14133362489909998
6.799828,3.203245572305427,0.1410986201318802
6.802175999999999,3.2063658300667264,0.1408907176853139
6.804516,3.2039916422679715,0.1409224973250352
6.806863999999999,3.201337915215497,0.14098754230726004
6.809200000000001,3.1988239577898816,0.14103479874300623
6.811544,3.1965895396179875,0.14104917819458443
6.813896,3.192912099207118,0.14106729377013058
6.816243999999999,3.1900260547291657,0.14107458937577194
6.818584,3.1907249028634665,0.1409896359843567
6.820928,3.193146312490464,0.140865364397861
6.8232680000000006,3.1964988876772393,0.1407173413021361
6.825612,3.1998514628640153,0.1405688372536016
6.827956,3.202412642117873,0.1404301615880538
6.830296000000001,3.2020405550655355,0.14039027466493512
6.832644,3.201388928759478,0.1403835048117123
6.834987999999999,3.2012491591326175,0.1404000744087496
6.837332,3.205904986931509,0.14027015157400938
6.839672,3.2114919802901785,0.14011756013078855
6.842015999999999,3.218708987342928,0.13985635338812846
6.844364000000001,3.2217820232759835,0.13974587518558532
6.846716000000001,3.227788325515234,0.1395448416892089
6.84906,3.236448354806959,0.139285785080804
6.8514040000000005,3.2544672615247108,0.1386955882787828
6.853748,3.2747678082426,0.13802201089993218
6.856088,3.297070455706906,0.13730208554043763
6.858423999999999,3.324448239850684,0.13643356352851585
6.860771999999999,3.3544797510469375,0.13551987794211134
6.863116,3.385582197429829,0.13458310874344961
6.865456,3.416033017506662,0.13364313248159507
6.867804,3.4498364127702716,0.13259269398577783
6.870148,3.477121649115432,0.13169693487153072
6.872488000000001,3.5069680647144503,0.1306956006520672
6.874824,3.5365349410597484,0.12971527888184228
6.877176,3.565962047778186,0.12876033709950865
6.879519999999999,3.6006040608029566,0.12765501121533568
6.881855999999999,3.6335235123350302,0.1265761855636878
6.884195999999999,3.6645806327475476,0.12556502726820945
6.88654,3.6924249476001494,0.12466225472545912
6.88888,3.724925090251643,0.12368423417154047
6.891220000000001,3.764222931075305,0.12254113555689902
6.893568,3.80151867115255,0.12147346443913916
6.895916,3.83574137529674,0.12049378404544717
6.898251999999999,3.863957777201679,0.11970017671733477
6.900596,3.885376480934451,0.11906284332603528
6.902944,3.9006491128011107,0.11859027559793073
6.905276000000001,3.9116380039212157,0.1182517150019813
6.907627999999999,3.9206247942949046,0.11796486400464662
6.909967999999999,3.9248159872428414,0.11777886962232627
6.912319999999999,3.9280760146310008,0.11761029607316807
6.914655999999999,3.929054402019022,0.11751825930510648
6.917,3.93748211388527,0.11728943908391573
6.919344000000001,3.942557250564742,0.11716591059758621
6.92168,3.9508451928041297,0.11695375936954358
6.924032,3.9594126742972384,0.11671817350832217
6.926375999999999,3.959180356871761,0.11667004215261155
6.928723999999999,3.9589480394462835,0.11662170034531141
6.93106,3.955502916460891,0.11666240750231797
6.933404,3.953548037542717,0.1166343375996708
6.935751999999999,3.945866395639013,0.11671700944681186
6.938091999999999,3.9324579907497794,0.11690828020910014
6.940436,3.916395858808071,0.11713595182490306
6.942779999999999,3.898890704627386,0.11736331207941388
6.945124,3.8824564856333397,0.11755801834302977
6.947455999999999,3.8706780944381856,0.11767304301442738
6.9498,3.864906005482281,0.11764951407562073
6.95214,3.85862205984718,0.11760343650283642
6.954488,3.853409049398717,0.11752742895438602
6.956832,3.8549937371224225,0.11731038100463545
6.959175999999999,3.8601633174583814,0.11704265287880115
6.961523999999999,3.863470566674783,0.11680736425781431
6.963868,3.859980117719016,0.1167113751019835
6.966215999999999,3.8586315391365265,0.11655745758032979
6.968564000000001,3.856072255740538,0.11644565373899404
6.970908,3.850439936411494,0.11640633002602122
6.973248,3.8554697471205923,0.11615696803971547
6.975592000000001,3.8626414282029677,0.11585173543978158
6.977943999999999,3.8710238140988413,0.11550219282658217
6.9802800000000005,3.879126660740995,0.11517892561230916
6.982628,3.8870897377562885,0.11486665502941175
6.984971999999999,3.8981258507046377,0.11448093417152114
6.987311999999999,3.9150284962653763,0.11398095856325453
6.989660000000001,3.9388686096251444,0.11334047546370454
6.992004,3.9594959174249973,0.11278312706148784
6.994356,3.9793318292919317,0.11223143021786999
6.996696,3.995582848546613,0.111733991932338
6.999039999999999,4.012485494107352,0.11124623276009549
7.001391999999999,4.026454873361896,0.11081516872048386
7.003728000000001,4.037630755937106,0.11043765325770159
7.006072,4.044150810713423,0.11013366961809198
7.008424,4.052812735863018,0.10977693244243683
7.0107680000000006,4.068412128811642,0.10928467526966867
7.013120000000001,4.0798675506405715,0.10888439628762744
7.015464,4.092673446909859,0.10843879737031724
7.017804,4.107341674298704,0.1079617119818794
7.020147999999999,4.1141412683287415,0.1076401942469884
7.022492,4.1187989919855035,0.10737102796192832
7.024839999999999,4.127460917135098,0.10702620188551404
7.02718,4.137193777471331,0.10665739929375129
7.029524,4.145855702620925,0.10631042514027991
7.031867999999999,4.156379958890076,0.10594258378253998
7.034208,4.160106516987059,0.10569298338311715
