Time,Force,Position
7.980372000000001,0.3341238726143915,0.0
7.982760000000001,0.3242078125387926,0.0
7.985139999999999,0.3153626876498322,0.0
7.987540000000001,0.3043756923875947,0.0
7.989928000000001,0.2927370708192994,0.0
7.992307999999999,0.2780254133179486,0.0
7.994704,0.26131165507018106,0.0
7.997096000000001,0.24632045831511082,0.0
7.999476,0.23184111823923834,0.0
8.001872,0.2169424692827852,0.0
8.00426,0.19990194995305502,0.0
8.006639999999999,0.1842119050636838,0.0
8.009036,0.1709184426888409,0.0
8.011424,0.15855614587377634,0.0
8.013808,0.14603168471607755,0.0
8.016204,0.13378676281209922,0.0
8.018592,0.11928259562375755,0.0
8.020976,0.10077422694258321,0.0
8.023372,0.08198631900768844,0.0
8.02576,0.06692307331190694,0.0
8.028139999999999,0.053722158735682105,0.0
8.030536,0.0423835752790139,0.0
8.032924,0.03197615738212401,0.0
8.035307999999999,0.023570840231650982,0.0
8.037704,0.01609668864095627,0.0
8.040092,0.009553702610039877,0.0
8.042488,0.005943982885318656,0.0
8.044884000000001,0.004593508444959704,0.0
8.047272000000001,0.003265428720374782,0.0
8.049652,0.0020771186226500693,0.0
8.052048000000001,0.0010061834360115386,0.0
8.054436,0.0016578097420694383,0.0
8.05682,0.0028461198397941503,0.0
8.059216000000001,0.002963494750880332,0.0
8.061604,0.0028461198397941507,0.0
8.063984,0.0025889753018477593,0.0
8.06638,0.0025889753018477593,0.0
8.068768,0.0025889753018477593,0.0
8.071147999999999,0.0025889753018477593,0.0
8.073544,0.0025889753018477593,0.0
8.075932,0.0025889753018477593,0.0
8.078328,0.003917055026432682,0.0
8.080723999999998,0.003917055026432682,0.0
8.083112000000002,0.007526774751153901,0.0
8.085492,0.01099672484901491,0.0
8.087888000000001,0.012604343827319278,0.0
8.090280000000002,0.013420566872705536,0.0
8.09266,0.017844077246118896,0.0
8.095056000000001,0.021314027343979906,0.0
8.097444000000001,0.022781876695425037,0.0
8.099828,0.022664501784338858,0.0
8.102224000000001,0.021615961313474357,0.0
8.104612000000001,0.020545026126835824,0.0
8.106996,0.021615961313474357,0.0
8.109392000000001,0.026528933650312354,0.0
8.111780000000001,0.02836887005409496,0.0
8.114164,0.029137871271239044,0.0
8.116560000000002,0.029137871271239044,0.0
8.118948000000001,0.029137871271239044,0.0
8.121332,0.029137871271239044,0.0
8.123728000000002,0.029137871271239044,0.0
8.126116000000001,0.02780979154665412,0.0
8.1285,0.02780979154665412,0.0
8.130896000000002,0.024200071821932904,0.0
8.133284000000002,0.020730121724071893,0.0
8.135668,0.019122502745767527,0.0
8.138064000000002,0.018306279700381265,0.0
8.140452000000002,0.013765394415881725,0.0
8.142836,0.010295444318020716,0.0
8.145231999999998,0.010947070624078617,0.0
8.147623999999999,0.013206315908441858,0.0
8.150004000000001,0.013463460446388251,0.0
8.152403999999999,0.015605330819665312,0.0
8.154791999999999,0.01453439563302678,0.0
8.157172000000001,0.009621423296188786,0.0
8.159571999999999,0.007781486892406173,0.0
8.161959999999999,0.008480335026707225,0.0
8.164340000000001,0.010879349937930678,0.0
8.166739999999999,0.015280465595570007,0.0
8.169123999999998,0.019681581253209336,0.0
8.171508000000001,0.025945028030405305,0.0
8.173907999999999,0.030206374061185398,0.0
8.176295999999999,0.033396784905326965,0.0
8.178680000000002,0.034864634256772095,0.0
8.181076,0.03486463425677209,0.0
8.183463999999999,0.034864634256772095,0.0
8.185847999999998,0.034864634256772095,0.0
8.188244,0.034864634256772095,0.0
8.190631999999999,0.034864634256772095,0.0
8.193015999999998,0.03274515859926906,0.0
8.195412,0.03048591331490582,0.0
8.197799999999999,0.03022876877695943,0.0
8.200180000000001,0.02796952349259619,0.0
8.202584,0.027852148581510007,0.0
8.204968,0.027852148581510007,0.0
8.207348000000001,0.02785214858151001,0.0
8.209743999999999,0.026384299230064877,0.0
8.212131999999999,0.02452196811050824,0.0
8.214512000000001,0.020120852452868907,0.0
8.216907999999998,0.015719736795229575,0.0
8.219296000000002,0.009456290018033602,0.0
8.221676,0.0051949439872535095,0.0
8.224072000000001,0.004822856934915055,0.0
8.226460000000001,0.00589379212155261,0.0
8.228855999999999,0.00589379212155261,0.0
8.231252,0.00589379212155261,0.0
8.23364,0.005893792121552611,0.0
8.236020000000002,0.005893792121552611,0.0
8.238415999999999,0.005893792121552611,0.0
8.240803999999999,0.005893792121552611,0.0
8.243188000000002,0.005893792121552611,0.0
8.245584,0.005893792121552611,0.0
8.247971999999999,0.005893792121552611,0.0
8.250352000000001,0.005893792121552611,0.0
8.252752,0.005893792121552611,0.0
8.255139999999999,0.005893792121552611,0.0
8.257520000000001,0.005893792121552611,0.0
8.259912000000002,0.0053571083298857985,0.0
8.262300000000002,0.005357108329885799,0.0
8.264695999999999,0.005357108329885799,0.0
8.267092,0.005357108329885799,0.0
8.26948,0.005357108329885799,0.0
8.271863999999999,0.0025387845380826896,0.0
8.27426,0.0,0.0
8.276648,0.0,0.0
8.279027999999998,0.0,0.0
8.281424,0.0,0.0
8.283812,0.0,0.0
8.286195999999999,0.0,0.0
8.288592,0.0,0.0
8.29098,0.0008162230453862586,0.0
8.293360000000002,0.0008162230453862585,0.0
8.295764,0.0008162230453862585,0.0
8.298152,0.0008162230453862586,0.0
8.300531999999999,0.0008162230453862586,0.0
8.302932,0.0008162230453862586,0.0
8.30532,0.0008162230453862586,0.0
8.307699999999999,0.0008162230453862586,0.0
8.310096,0.0008162230453862586,0.0
8.312484,0.0008162230453862586,0.0
8.314863999999998,0.0008162230453862586,0.0
8.317264,0.0008162230453862586,0.0
8.319652,0.0008162230453862586,0.0
8.322031999999998,0.0008162230453862586,0.0
8.324436,0.0008162230453862586,0.0
8.326824,0.0008162230453862587,0.0
8.329203999999999,0.0008162230453862587,0.0
8.3316,0.0008162230453862587,0.0
8.333988,0.0008162230453862587,0.0
8.336371999999999,0.0008162230453862587,0.0
8.338768,0.0,0.0
8.341156,0.0,0.0
8.343535999999999,0.0,0.0
8.345932,0.0,0.0
8.34832,0.0,0.0
8.350703999999999,2.4827112468148524e-05,0.0
8.3531,4.965422493629704e-05,0.0
8.355488,0.0020765820838212963,0.0
8.357868000000002,0.002380948450009865,0.0
8.360263999999999,0.0026853148161984333,0.0
8.362651999999999,0.005783177861721963,0.0
8.365048,0.011674537586580453,0.0
8.367444,0.015424026938161882,0.0
8.369832,0.019453055543463733,0.0
8.372212,0.02580905011927774,0.0
8.374608,0.03765759439727537,0.0
8.376996,0.04801399875018458,0.0
8.37938,0.06255780433529239,0.0
8.381776,0.08715554376498913,0.0
8.384164,0.12166744741241454,0.0
8.386543999999999,0.16371932747881435,0.01006936804804109
8.388944,0.21759492471074263,0.01928977772614407
8.391328,0.2802212031751441,0.028340176032525213
8.393711999999999,0.35052722768538014,0.03739069736522034
8.396116000000001,0.42902485492064846,0.04647605073428124
8.398504,0.5168999625819797,0.05545065080178136
8.400884,0.6161794785282587,0.06418452960526244
8.40328,0.7191345390275385,0.07308194394984624
8.405668,0.8365670437448217,0.08165717142150115
8.408047999999999,0.9596771937615226,0.09037880834959733
8.410448,1.0892563850105597,0.09907491178226462
8.412836,1.2214401856259587,0.10793926469684695
8.415216,1.3665186385935248,0.11665229179442255
8.417612,1.5240724350326775,0.1251451133311572
8.42,1.6865143766961979,0.13355904612324182
8.422379999999999,1.848584231307381,0.14191338024622685
8.424776,2.0233202125609924,0.14990813480327322
8.427168,2.198943929261877,0.15772128274538572
8.429547999999999,2.3619997546925586,0.16558519213230044
8.431948,2.512627458479897,0.17350124151410576
8.434332,2.6547840202884823,0.17137581609169156
8.436711999999998,2.7809728938118456,0.17026103367451584
8.439112,2.8970606116623765,0.16939370243178437
8.4415,3.0071911449597692,0.16848234814646187
8.443879999999998,3.1084784492260717,0.1675342334278257
8.44628,3.194636682968313,0.16689744204565052
8.448668,3.266876550999992,0.16656458910501962
8.451051999999999,3.3314366729858365,0.16615114427799751
8.453456000000001,3.3812398114999573,0.1661448123296185
8.45584,3.426296470274439,0.16595796373215463
8.458224,3.4633012959507488,0.16572877138686032
8.46062,3.4942563892753022,0.16533054194872235
8.463004,3.5155296358076056,0.16503341884786604
8.465387999999999,3.522977064427963,0.16500672078757578
8.467784,3.52320938185344,0.16505891147193552
8.470172,3.5160395966289335,0.16529050271243723
8.472564,3.4964851198735887,0.1659516239621063
8.474964000000002,3.4729264416254098,0.16674185998149865
8.477348000000001,3.452021490429706,0.16746387595807063
8.479732,3.43749492852559,0.16798161525840802
8.482128000000001,3.4256220936739497,0.1684229916377955
8.484516000000001,3.4205469569944777,0.168623566000252
8.486896,3.418684625874921,0.16868448494773775
8.489296000000001,3.417101834009085,0.16871243646293044
8.491684000000001,3.416170668449307,0.16874231637507098
8.494064,3.4240393018081146,0.1684517081623125
8.49646,3.4380067852047893,0.16799973414565111
8.498848,3.4578408012138544,0.16734074936677812
8.501228,3.482330645021811,0.1665324854438366
8.503628,3.508543050322464,0.16569572996724719
8.506016,3.534615685996257,0.16488741551501176
8.508396,3.5609206390955275,0.16412257137013245
8.510792,3.58494395219466,0.16346207900038975
8.513184,3.6068253949205156,0.16287364253307018
8.515564,3.6294982335792896,0.1622732465161607
8.517968000000002,3.6575257481712558,0.16144579661424646
8.520356000000001,3.6887660683231385,0.16048347043007055
8.522736,3.7200063884750203,0.1595346416545511
8.525132000000001,3.7528295004927394,0.1585681423845299
8.52752,3.7816484110176245,0.1577676876451605
8.529904,3.809815695236451,0.15697754587833201
8.532300000000001,3.8365399572163024,0.15621506265855864
8.534688000000001,3.8624728232632353,0.1554775409414149
8.537068,3.8854724230039728,0.1548404521924924
8.539468000000001,3.9094031883044886,0.15417979792391878
8.541852,3.9338458102842027,0.15356022624464197
8.544236,3.9536326044650245,0.15307499553176254
8.546632,3.970486132339651,0.15269095901981344
8.54902,3.9846859331618028,0.1523712756462187
8.5514,3.9935782798790056,0.15216988815266205
8.5538,3.9993975906631527,0.15206871749421316
8.556184,4.010711347007352,0.15176848214163638
8.558584000000002,4.02430674335169,0.15137848111352847
8.560979999999999,4.046329851562275,0.15070615646976973
8.563367999999999,4.071425995705916,0.14995067383167343
8.565748000000001,4.092378168729863,0.14933531015893414
8.568143999999998,4.11319057212695,0.14874425993242346
8.570531999999998,4.132512731456817,0.1482295214857044
8.572916000000001,4.150112329293988,0.14774991213150518
8.575311999999998,4.16678076157138,0.147289351854668
8.577699999999998,4.182378258662135,0.14686694828241825
8.58008,4.19648551168567,0.14652112846812754
8.582476000000002,4.209382059895706,0.14622514964802102
8.584864000000001,4.225072104785077,0.14586440733163739
8.587248,4.243415876726924,0.1454591230424009
8.589644000000002,4.258314525683376,0.14512046628144995
8.592032000000001,4.273073405012969,0.14479000143164328
8.594416,4.286621579529063,0.14450703191562275
8.59682,4.303103020351354,0.14415219342375646
8.599207999999999,4.32596285046523,0.14366454347981214
8.601588000000001,4.355620378751276,0.14301164560897855
8.603983999999999,4.381273705544489,0.1424855560894642
8.606371999999999,4.408789363457258,0.14193058660414765
8.608752,4.429739640623335,0.1415873593754816
8.611151999999999,4.443892219617244,0.14140479682789342
8.613536000000002,4.459115733797791,0.14118936731291065
8.615920000000001,4.47340808241856,0.14099636068172508
8.618319999999999,4.487328343986992,0.14077264213021878
8.620707999999999,4.504321641488479,0.14047217464901807
8.623092000000002,4.526390075669439,0.14004691783212014
8.625487999999999,4.5483187402235385,0.1396328016853634
8.62788,4.5743913758973305,0.13911544709978418
8.630263999999999,4.601674716384622,0.13855821705248686
8.63266,4.626955956125497,0.1380530513756309
8.635048,4.646929741761424,0.13763799503815285
8.637431999999999,4.664901426650931,0.1372685266309641
8.639832,4.68287311154044,0.13689382786664078
8.64222,4.7011243356836685,0.13649450667510105
8.644604,4.714579962401146,0.1362014407396686
8.647,4.723659300573452,0.13598029257229835
8.649388,4.726872106133367,0.13589238218331245
8.651772,4.723938839827172,0.13595854557614054
8.654168,4.716861602401283,0.1361312460893266
8.65656,4.708341342736418,0.13630908681868506
8.65894,4.700752248631331,0.13647213858117382
8.661344000000001,4.693302924153104,0.13662311095032537
8.663728,4.683060102995542,0.13683160160216098
8.666112,4.677892418517454,0.13690780517351211
8.668508000000001,4.669511928479451,0.1370726540671255
8.670896,4.65833794176211,0.13728675975207696
8.673276,4.649445595044907,0.13742922664484486
8.675672,4.635897420528813,0.13765646291548198
8.67806,4.622489015639578,0.13786939568494577
8.680439999999999,4.610151545936983,0.1380534108336518
8.682844000000001,4.601818277727221,0.1381454614325704
8.685228,4.593345239890599,0.1382509903462164
8.687612,4.59050641724089,0.1381906500589441
8.690008,4.5891578386584015,0.1380686909711034
8.692392,4.589671591195469,0.1379123456030012
8.694771999999999,4.590697200411733,0.1377723420724748
8.697168,4.593073284068356,0.1375812906553766
8.699556,4.604528705897286,0.1371784739307037
8.701936000000002,4.618405537353213,0.13669603401032132
8.704331999999999,4.63921983660817,0.13606279205404503
8.706719999999999,4.663898567729099,0.13534869414859224
8.709100000000001,4.689368694782946,0.13463179559701324
8.711504,4.721916059262682,0.13376208561684744
8.713892,4.747106647062809,0.13308145321647957
8.716271999999998,4.768712342250684,0.13244784725990053
8.718676,4.782961260758948,0.13199191284973633
8.721064,4.795208078520796,0.13158563073912877
8.723443999999999,4.808525831469282,0.13115103875822975
8.725848000000001,4.820493109977409,0.13076885959399576
8.728236,4.829946431059922,0.13041464854483056
8.730616,4.834045076209242,0.1302007962465683
8.733012,4.8400060524781185,0.12995117942656367
8.735404,4.840612352813802,0.1298447744203239
8.737784,4.840519805015186,0.12979459856639897
8.740188000000002,4.842708897216705,0.1296787457565827
8.742572000000001,4.845457067925666,0.12951889881007086
8.744956,4.847925699380905,0.12938132928243334
8.747359999999999,4.845738503037254,0.1293250633986944
8.749744000000002,4.841688975574047,0.12930040276157098
8.752124,4.831633145871589,0.1294018734980249
8.754523999999998,4.819063358743517,0.1295274562625377
8.756908000000001,4.804631240495888,0.12968421331305274
8.759288,4.780188618516175,0.13004935811546037
8.761691999999998,4.758958802096377,0.13033965316434612
8.764080000000002,4.746668554222025,0.13044300073647172
8.76646,4.746018823773836,0.1302672004508112
8.768856000000001,4.7433669925792294,0.1301329180106055
8.771244000000001,4.741366787690682,0.13000489398154977
8.773624,4.737783790936297,0.12988603434193427
8.77602,4.733781485301333,0.1297995842056999
8.778408,4.73606502115934,0.12956323534437067
8.780788,4.741049505898064,0.12923187211024695
8.783184,4.74631352989051,0.12887745134885104
8.785572,4.749854992390257,0.12854330869094993
8.787951999999999,4.75111481488987,0.12827484298894015
8.790356000000001,4.7530262636955385,0.1280136390341623
8.792744,4.752283985448733,0.12778646012390404
8.795124,4.754474973508121,0.12750318571214259
8.797528000000002,4.756386422313791,0.1272406580145602
8.799916000000001,4.758297871119459,0.12697581808082797
8.802296,4.763142586231323,0.12665494039689765
8.804692000000001,4.769337775783547,0.12628570837997014
8.807080000000001,4.7804683323883825,0.12581090937468536
8.809464,4.793600989739634,0.1252977752656361
8.811860000000001,4.79765430891858,0.1249808508324717
8.814248000000001,4.796492721791195,0.12478651700073055
8.816632,4.7976127746639445,0.12452941295131006
8.819028000000001,4.795287704551303,0.12430972995391426
8.821416000000001,4.796175439998576,0.12401257150226028
8.823796,4.805490887312097,0.12352693228746044
8.826196000000001,4.80907957164009,0.12314045009588268
8.82858,4.810246846341085,0.12282743418290396
8.830964,4.8132764521616345,0.12248670849692879
8.83336,4.819938172422682,0.12204311253435726
8.835748,4.824085935258114,0.12161788374332277
8.838128,4.824509035854432,0.12124744459816719
8.840532000000001,4.831078208316862,0.12075201527822615
8.842920000000001,4.835505510406015,0.12030839028807991
8.8453,4.842354222122165,0.11979660395726517
8.847696000000001,4.856419940891065,0.11914425835969512
8.850084,4.869694263727048,0.11850293351610755
8.852464,4.885901852869224,0.11782085425373863
8.85486,4.905322247571316,0.11707849805934939
8.857248,4.919015879287878,0.1164198381639044
8.859627999999999,4.938064186937632,0.11564382956369736
8.862032000000001,4.954039458654332,0.114921908086885
8.86442,4.97094589593081,0.11419234271584378
8.8668,4.992647930633039,0.11339086984490378
8.869204000000002,5.014210195708409,0.11260816438510338
8.871592000000001,5.029766158544527,0.11194346140869108
8.873972,5.04918655324662,0.11122098707497989
8.876368000000001,5.069817652762211,0.11047124076782575
8.878756000000001,5.0884466515313855,0.10975636956941946
8.881136,5.102372600673426,0.10915869737194794
8.883532,5.121094147241217,0.10849493900767328
8.88592,5.147544557540955,0.10772675206391547
8.888304,5.167709126347722,0.10707785814005528
8.8907,5.187082299221571,0.10643046371032765
8.893088,5.208178033588116,0.10578108207303452
8.895468,5.222196530528772,0.1052519090273792
8.897864,5.232582913028933,0.10481083765143138
8.900252,5.236823223662983,0.1044714682817209
8.902648000000001,5.232775592057644,0.10427156596963964
8.905043999999998,5.234314953810975,0.10400814789002524
8.907431999999998,5.236226402616644,0.1037740703745102
8.909812,5.243864614407842,0.1034689438305735
8.912211999999998,5.253225387691739,0.10315689945917982
8.914599999999998,5.261235686535276,0.10288544885666519
8.91698,5.267755741311593,0.10266176877423237
8.919376000000002,5.273716717580469,0.10247529766545022
8.921764000000001,5.278047680155266,0.10234508624029492
8.924144,5.278606758662707,0.10230823395669367
8.926540000000001,5.283030269036121,0.10222388290773776
8.928928,5.289595649782813,0.10210125614540973
8.931312,5.293739620902507,0.10203540691214029
8.933708000000001,5.292528916089008,0.10206292924867225
8.936096000000001,5.297556830940238,0.10204260952559163
8.938476,5.306169638403721,0.10199459833233843
8.940879999999998,5.310358935493787,0.1020288560910972
8.943268000000002,5.315199858889913,0.10207178246436224
8.945648,5.322042883032455,0.10208655384971216
8.948044000000001,5.333541734973887,0.10205389062855555
8.950436000000002,5.354631781766828,0.10190742117047792
8.952816,5.375861598186625,0.10175561072793082
8.955212000000001,5.395368853113726,0.10161500582890692
8.957600000000001,5.4139449424810495,0.10148702394978883
8.959984,5.429168456661599,0.10142279738857492
8.962380000000001,5.44238987009573,0.10138508472056404
8.964768000000001,5.453609182783443,0.10137317364509806
8.967148,5.464968265098017,0.10135220548423154
8.969544,5.473533850733256,0.1013575813369677
8.971932,5.487593881928548,0.1012628376788832
8.974328000000002,5.496299237190647,0.10125914951626325
8.976728,5.501652017265971,0.10131877824014825
8.979116,5.508867128460851,0.10135953178112844
8.981499999999999,5.515570382976533,0.10138259576727916
8.983896,5.514964082640849,0.10147202245332541
8.986284,5.509282645625692,0.1016354866194054
8.988667999999999,5.503601208610537,0.10180026704081307
8.991064,5.502063742715074,0.10189916071087401
8.993452,5.50294768644661,0.10194298288501491
8.995831999999998,5.501689759804868,0.1020232545453253
8.998236,5.496055544617955,0.10213090182766175
9.00062,5.4850666534978485,0.10232935633212835
9.002999999999998,5.473658453497162,0.10255460344160121
9.005404,5.4563837208840855,0.10285480515821066
9.007792,5.434592930098978,0.10319904778569168
9.010172,5.412010743380952,0.10354733984248396
9.012576,5.395714398155897,0.10379043689919837
9.014964,5.378486887371063,0.10404386535193894
9.017344,5.369407549198757,0.10417432191879727
9.01974,5.356463779160477,0.10434999322742376
9.022128,5.347943519495612,0.10444355942147734
9.024508,5.349853072443412,0.10437231948944069
9.026908,5.349248667965597,0.10431117430517933
