Time,Force,Position
13.060308,1.1965251579082867,0.049529204135252025
13.062696,1.1804630259665778,0.049379905521484364
13.065076,1.1641213547711486,0.049307300666292124
13.06748,1.1513645761879725,0.04926739985757163
13.069868,1.1346035961119632,0.049310224853739995
13.072247999999998,1.1127674793564808,0.04947612385234443
13.074644,1.0933527722279963,0.04948636467042977
13.077032,1.0760799354727888,0.04941309793208123
13.079415999999998,1.0557340627845258,0.049445196789157084
13.081812,1.033246319722986,0.046881219649776575
13.0842,1.0107585766614462,0.04428068741126837
13.086583999999998,0.9849182584131304,0.04170886081431491
13.08898,0.9617316672172895,0.03916975602528369
13.091368,0.9409192638202031,0.036700014147055524
13.093748,0.9231798963561718,0.03422909441114008
13.096148,0.9042298240786418,0.031830302583282774
13.098532,0.8829981118009746,0.029467891078758298
13.100916000000002,0.8612073210158664,0.027181405137696155
13.103312,0.8403476957905367,0.024898860216831548
13.1057,0.8159031779529538,0.022614310585623416
13.10808,0.8010970767951177,0.020215422890551282
13.110475999999998,0.7804244430248912,0.017816565024452863
13.112863999999998,0.7669688163074142,0.015334618272775916
13.115244,0.7502078362314045,0.012815392476272466
13.117644,0.7374510576482285,0.010249453908413817
13.120028,0.7296296461176643,0.007623788756684787
13.122424,0.7221803216394378,0.005086786397488318
13.12482,0.7107267956683776,0.002596075996456362
13.127208,0.7015549096974544,0.0
13.129588000000002,0.6945248940998086,0.0
13.131984,0.6847013818228275,0.0
13.134372,0.6830260421583743,0.0
13.136752,0.6759034787621113,0.0
13.139148,0.6671981235000122,0.0
13.141536,0.6532778619315804,0.0
13.14392,0.6393576003631488,0.0
13.146316,0.6295813099144112,0.0
13.148700000000002,0.6210157242791721,0.0
13.151096,0.613101764949991,0.0
13.153496,0.6086329286062027,0.0
13.155884,0.5915924092764725,0.0
13.158264,0.5820484362532121,0.0
13.16066,0.5643562906174241,0.0
13.163048,0.5473157712876938,0.0
13.165432,0.5273419856517684,0.0
13.167828,0.5050865600157058,0.0
13.170216,0.4813881121406671,0.0
13.172596,0.46234549206452014,0.0
13.175,0.446096368667708,0.0
13.177388,0.42770537489761884,0.0
13.179768,0.41639161855341883,0.0
13.182164,0.40335530071652237,0.0
13.184552,0.39483504105165734,0.0
13.186936,0.3840331413866549,0.0
13.189332,0.3773752128413465,0.0
13.19172,0.3727193850424549,0.0
13.194104,0.367132391683785,0.0
13.1965,0.36168516795197525,0.0
13.198888,0.3566572531007461,0.0
13.201272,0.348044445637264,0.0
13.203668,0.34771958041316964,0.0
13.20606,0.3398981688826056,0.0
13.20844,0.3319369877251813,0.0
13.210836,0.32602323328454785,0.0
13.213224,0.3257417981729591,0.0
13.215608,0.3316517608978551,0.0
13.218004,0.34291450369807447,0.0
13.220396,0.3596697962004775,0.0
13.222776,0.3732576091133389,0.0
13.225180000000002,0.39289705023582466,0.0
13.227568000000002,0.4148162355005785,0.0
13.229948,0.43594212897454493,0.0
13.232344,0.45948753621763966,0.009057331938128741
13.234732,0.49029527648385757,0.017830651893394764
13.237112,0.5216601993996471,0.027011793162102882
13.239508,0.556934880151784,0.03598633757001355
13.241896,0.5927667435534925,0.04543153036618912
13.244276,0.6339513870305243,0.054817846746747625
13.246683999999998,0.6782543924109855,0.06416731007014487
13.249072000000002,0.7289811130534086,0.07356732085469932
13.251452,0.7824068867186804,0.0828366425978669
13.253848,0.8445380156460515,0.0920309256142337
13.256236,0.9213808020747722,0.10065785428807704
13.258616,0.9965482488390398,0.109419709733399
13.261016,1.0630103403412072,0.11854043030384025
13.2634,1.121418702887333,0.12797311837832603
13.265784,1.174194746104415,0.13761438593554215
13.26818,1.2195233607011402,0.1472321233394988
13.270568,1.2690903900740453,0.15651825197023908
13.272952,1.3158185967972413,0.16568706816436934
13.275348,1.3533295915791408,0.17518520395180706
13.277736,1.3930769003908035,0.18443345244611503
13.280116,1.42975306912728,0.18454900755331444
13.282516,1.46116900558705,0.18498618913090947
13.2849,1.4920277593972486,0.18489964898705738
13.287284,1.5139016186916276,0.18542324036658442
13.28968,1.5347989864558544,0.1855557717060379
13.292068,1.5520661356374537,0.18566061400775125
13.294448,1.5657956140350435,0.18588119840630357
13.296844,1.5777572049695632,0.18588176279701152
13.299232,1.5827360021346797,0.18626195306699908
13.301628,1.5830136455305315,0.1867171820637874
13.304023999999998,1.5722117458655287,0.18770799079390077
13.306412000000002,1.5610377591481894,0.1886532373168981
13.308792,1.5569410098567382,0.18890055917655757
13.311188,1.556057066125203,0.1887974377657762
13.313576,1.56024825907314,0.18817427399469716
13.31596,1.5662545613123906,0.18757188932605995
13.318356,1.5689082883648653,0.1873736234461136
13.320744,1.5694201450440632,0.18740661206474485
13.323124,1.5736566639623741,0.18711028109006858
13.325532,1.5752394558282106,0.18702684347334797
13.32792,1.5756115428805482,0.18709750618861706
13.3303,1.574772925119387,0.18732599977788042
13.332696,1.5717924369849487,0.1877938988790045
13.335083999999998,1.5734677766494019,0.1878508415187638
13.337468,1.5766333603810743,0.18766771165577553
13.339864,1.575794742619913,0.18790611084443748
13.342251999999998,1.5769582256051684,0.18793011292858022
13.344636,1.5785410174710046,0.1878430961478945
13.347032,1.5821259100832576,0.18754465322216063
13.34942,1.5883645297479856,0.18704831389286747
13.3518,1.595766632397969,0.18657999078381862
13.354196000000002,1.6079643324737043,0.18570049793689317
13.356584000000002,1.6181599318030224,0.18505916233760802
13.358964,1.6310092581848157,0.18426264447512836
13.36136,1.6417167141933313,0.18371564398496176
13.363752000000002,1.6512606872165918,0.18313843061106624
13.366132,1.660013264306934,0.18258262334276895
13.368528,1.671978646957192,0.18172720985805801
13.370920000000002,1.686737526286785,0.18069793443785007
13.3733,1.700285700802879,0.17979271867317884
13.375696,1.7138338753189732,0.17886709427162462
13.378084,1.7308743946487035,0.17757084204252035
13.380468,1.752198654724988,0.17590253437493106
13.382872,1.7719401229354361,0.17429387361899087
13.38526,1.7914020518921636,0.17279347190474098
13.387644000000002,1.816358426408944,0.17074612465118277
13.39004,1.8397320090598883,0.16880686889012766
13.392428,1.8577509157776404,0.16735378448110602
13.394808,1.8777719232418093,0.1657617419653673
13.397204,1.8932768725339464,0.1644690432670604
13.399596,1.906267864400469,0.1632854638693374
13.401976,1.9164653595876564,0.1623416741949523
13.404376,1.9205167829087335,0.16186586788958887
13.406764,1.9225661054833931,0.1615559924303115
13.409147999999998,1.924615428058053,0.16125052440297172
13.411544,1.9247551976849135,0.16121908049150124
13.413932,1.9290389384314677,0.16085613100311644
13.416315999999998,1.9311808088047449,0.16067884566917773
13.418712,1.9254540458192146,0.16106965317497696
13.421104,1.9198670524605446,0.16143796040992203
13.423483999999998,1.9181444909678482,0.16152673050083255
13.42588,1.9121381887285978,0.16197971424350913
13.428264,1.904781412048988,0.16255520094831286
13.430644,1.8983558009291572,0.16307846254025057
13.433039999999998,1.8912785635032678,0.16359096543181317
13.435424,1.8802896723831621,0.1645050258392038
13.437808,1.8682298460764177,0.16551104164215422
13.440204,1.859103286075869,0.1663440719304619
13.442592,1.8493250997692616,0.16714915902401212
13.444984000000002,1.8404780790224329,0.16791690249937205
13.447388,1.836426655701356,0.16835962647340663
13.449776,1.829441966074084,0.16900786250889457
13.452156,1.8284635786860628,0.16922664124663703
13.45456,1.8268335649919833,0.16944160726611354
13.456944,1.8232014505514869,0.16980802747997953
13.459324,1.823992846484405,0.16977876023269273
13.461732,1.8207800409244894,0.17004779360000488
13.464116,1.8152855953644365,0.17053949745388064
13.4665,1.8188704879766897,0.17032481731450813
13.4689,1.824177942081639,0.17001728359257284
13.471288,1.8253414250668947,0.17005199325968204
13.473672,1.8278553824925092,0.1699273699199557
13.476068,1.8274360736119286,0.17002256998280016
13.478456,1.8299500310375432,0.16990378152864263
13.480836,1.8308339747690785,0.17000078940923216
13.48324,1.8362811985008882,0.1696697127682404
13.485627999999998,1.8415886526058376,0.16936199704602323
13.488008,1.8502486818975628,0.1687636540864796
13.490404000000002,1.8554163663756522,0.16849467139183388
13.492788,1.8653796482794933,0.1679120871045052
13.495172,1.8704075631307224,0.16768605334521355
13.497568,1.877949435407566,0.16733976642529289
13.499956,1.8865622428710482,0.16691978936592808
13.502336,1.8939643455210315,0.1666130422567176
13.504732,1.903368548917432,0.1661590149499343
13.50712,1.9107706515674154,0.165859614922981
13.5095,1.9191039197771775,0.1654995037372704
13.511896,1.9318606983603535,0.164757661622146
13.514284,1.9426153761971128,0.16420226263280058
13.516664,1.9565828595937873,0.16343768961599256
13.51906,1.9728319829905996,0.16248281999506559
13.521448,1.9937369341863034,0.16130636064998288
13.523828000000002,2.0127795542624503,0.16018501753769834
13.526228,2.027957742472624,0.15932066222479702
13.528612,2.0444864051231564,0.15830349439038977
13.530992,2.057942031840634,0.1575248355027511
13.533396,2.074191155237446,0.15659771569458725
13.535784,2.0850856027010654,0.15606502786178136
13.538163999999998,2.0994723949783207,0.15523841269032498
13.540568,2.1090635898298244,0.15470456283096368
13.542956,2.1214482813606628,0.15401559663325837
13.545336,2.1331813465854434,0.15332338698490486
13.547732,2.143703706996726,0.1527492798567344
13.55012,2.153294901848229,0.1522058039354876
13.552499999999998,2.163025866326593,0.15164644156147247
13.5549,2.173548226737875,0.1510689129316902
13.557284,2.1829996519625183,0.15055995662664512
13.559668,2.191380142000523,0.15014148843971295
13.562072,2.196687596105473,0.14991730254074642
13.56446,2.195057582411393,0.15009210011906854
13.56684,2.188492201664702,0.15055672157740368
13.56924,2.1772709931191185,0.15123630335847194
13.571624,2.1709851516261476,0.15163987999885906
13.574008,2.167772346066232,0.15185185687134017
13.576404,2.1676325764393716,0.15187710468942947
13.578792,2.1625574397598997,0.1521838269629285
13.581172,2.1538974104681743,0.15264930459779277
13.583572,2.1493813522961425,0.15285326957076315
13.58596,2.1439341285643327,0.1530977686039393
13.588344,2.1382073655788028,0.153400770772702
13.59074,2.133179450727574,0.15356708783599088
13.593128,2.1295020103167035,0.15360879938833202
13.595508,2.124241778039997,0.15368764782354236
13.597908,2.124987848002541,0.153428179112272
13.600296,2.1218694860991123,0.15336709692286934
13.602676,2.1171683323298467,0.1533426973372734
13.60508,2.116471380053415,0.15309403076213612
13.607464,2.114703492590345,0.15291393651173607
13.609844,2.113215144380995,0.15268241393339657
13.612248,2.1147998321047004,0.15226408680004694
13.614636,2.1231822180005744,0.15147702568518778
13.617016,2.1303538990829503,0.15077311438380595
13.619412,2.138596515351964,0.1500263611533944
13.6218,2.143486556434202,0.14951637268945647
13.62418,2.144372396023606,0.14923366238373134
13.626576,2.1541978041584566,0.14846395438529217
13.628964,2.1681671834130003,0.14745257624865946
13.631344,2.1802742315479877,0.14654327724061975
13.633748,2.191822201175534,0.14573332578798184
13.636136,2.2056518108032175,0.1447630115848574
13.638516,2.2157095363635455,0.14408921381686288
13.64092,2.2234856219237353,0.14357749312149487
13.643308,2.233263808230342,0.14296251994083037
13.645688,2.237315231551419,0.14262445877736366
13.648088,2.2418785115516933,0.14230660433760645
13.650472,2.250445993044802,0.1417835215205066
13.652856,2.254217877112158,0.14149149022787427
13.655252,2.2579897611795143,0.14119945893524205
13.65764,2.264555141926206,0.140791530637253
13.66002,2.2711205226728977,0.14038554644267937
13.662424,2.2727505363669773,0.14022594842425534
13.664812,2.281457787486946,0.13970958862113914
13.667196,2.282296405248107,0.13956615166788844
13.669592000000002,2.284765036703348,0.13926362746331816
13.671976,2.2870938985317277,0.1389815331176181
13.674356,2.2856980981209953,0.13885737244466748
13.676756,2.279878787336848,0.13900096115883454
13.679144,2.2719176061794237,0.13927170266874547
13.681524,2.26451550352944,0.1394467746187545
13.683928000000002,2.2543199042001216,0.13973666487006836
13.686316,2.2465457144978007,0.13985969957735273
13.688696,2.2437068918480922,0.13973881210827122
13.691092,2.2404487603178027,0.13968841898114784
13.69348,2.2358401543471547,0.13975139081890947
13.69586,2.239799029869614,0.1393222280393283
13.69826,2.238542999085741,0.13917412613225735
13.700644,2.239568608302006,0.1388804222438689
13.703028,2.2407339871451306,0.13856341841495148
13.705424,2.2381747037491424,0.13839325245490663
13.707812,2.2356154203531537,0.13822276596991118
13.710192,2.240273144009915,0.1376916682115944
13.712588,2.2379933998676464,0.13747682246435236
13.714976,2.2445134546439642,0.1368860553467049
13.71736,2.2536872364727567,0.13623338622182402
13.719756,2.2652824279285464,0.13542846964582045
13.722144,2.2767378497574757,0.13465045155657307
13.724528,2.293547947519598,0.13360600656959423
13.726924,2.313431081214775,0.13241154007878755
13.729312,2.332103510096454,0.13129265422455552
13.731696,2.3547801404709663,0.13000762424323853
13.734100000000002,2.3775965404723394,0.12870897295076264
13.736488,2.3944066382344613,0.12768612399291032
13.738868,2.4097737137576076,0.12666257500790792
13.741264,2.4314266307737245,0.1253424378874568
13.743652,2.443860439990676,0.12445777113896526
13.746032,2.458436119580904,0.12345900629555509
13.748432,2.472312951036831,0.12257002838641254
13.75082,2.484187681746341,0.12175546648825558
13.7532,2.493780772455714,0.12104164161393906
13.755596,2.503373863165087,0.12033050055236054
13.757984,2.505889716448571,0.11993809278918616
13.760364,2.509336735291833,0.11950880673305714
13.762764,2.508779552642262,0.11925247400431206
13.765148,2.503147233313218,0.11920998622694383
13.767544,2.4972353747304536,0.11920703242771136
13.769948,2.492114912080607,0.11919548424280059
13.772336,2.484852579057484,0.11927594092641841
13.774716000000002,2.4785214115941385,0.11932537323717059
13.777112,2.4763342152504877,0.11920804675991144
13.7795,2.4740072492799765,0.11911063839676875
13.781884000000002,2.4736823840558824,0.11894579193161227
13.784288,2.4744284540184265,0.11873508502554461
13.786672,2.4758261502870287,0.11853866324565945
13.789052000000002,2.474150810622575,0.11845514067195151
13.79146,2.476619442077816,0.11821725030380828
13.793844,2.480950404652614,0.11793528145734022
13.796228,2.4846297409213536,0.11763596619000945
13.798632,2.4881693075632323,0.1173501668605752
13.80102,2.4987861116310004,0.11680995570528939
13.8034,2.508983606818188,0.11632828523143773
13.805796,2.519041332378515,0.1158544628600007
13.80818,2.531892554618177,0.1153064660454836
13.810564,2.5415309712979237,0.11488519968835358
13.81296,2.5539628846570053,0.11437858340913608
13.815344,2.5650443235757283,0.11396248020738887
13.817728,2.5751945969346726,0.11357566246911854
13.820124,2.582132064733702,0.11332728418023817
13.822512,2.5882781365998127,0.11309159847984333
13.824891999999998,2.5909318636522873,0.11303611978989447
13.827288,2.590233015517986,0.1131352927334341
13.829676,2.585902052943189,0.11342690563386927
13.832056,2.5835731911148088,0.11364887155733518
13.834456,2.581244329286428,0.11387083748080107
13.836844,2.5774252233908284,0.11419896743447686
13.839224000000002,2.573047038987788,0.11460274897582108
13.84162,2.567597919398109,0.11504393252405466
13.844008,2.567223936487902,0.11530299576775824
13.846388,2.573927191003585,0.11532499967253403
13.848792,2.5784885751459905,0.11543057118626053
13.851176,2.5834692681689764,0.11548037090874644
13.853560000000002,2.5943164938043526,0.11536377577986878
13.855956,2.6053034890665887,0.11523484929482761
13.858344,2.619782829142461,0.11494469070343263
13.860724,2.6354728740318327,0.11460336600331719
13.863128,2.653584328548202,0.11415264908875165
13.865512,2.669693682318153,0.1137556360730163
13.867896000000002,2.691949107954216,0.11316436555643784
13.870292,2.7107121887766428,0.11272278132729578
13.87268,2.726821542546595,0.11231533339570694
13.87506,2.743070665943407,0.11187986909602794
13.877464,2.7595993285939397,0.11139546146693514
13.879852,2.7759882216176117,0.1109372886298037
13.882231999999998,2.7914459490815053,0.11049903669865475
13.884628,2.8083939206126183,0.10995662803898952
13.887016,2.8260407402780325,0.10932886800889595
13.889396,2.841033832890972,0.10874917664348109
13.891792,2.850672249570719,0.10838428232463607
13.89418,2.8541645943843545,0.10822986634523243
13.89656,2.8556548384515748,0.1081361131214572
13.898955999999998,2.8550032121455167,0.10812139258989831
13.901344000000002,2.8475538876672895,0.10829416554821573
13.903728,2.837311066509728,0.10852868980501712
13.906123999999998,2.8287908068448635,0.10873387646295217
13.908512000000002,2.8162663456871644,0.10905839842575565
13.910896,2.7995979134097717,0.10951933142804478
13.913291999999998,2.7869336826252122,0.10986076313929359
13.915679999999998,2.767471753668485,0.110378548843905
13.918064,2.752573104712032,0.11070663054023319
13.92046,2.7438205276216894,0.11083909451497098
13.922852,2.7372098209046243,0.11089547030994198
13.925232,2.7359537901207513,0.1107628566454117
13.927628,2.7320440322844037,0.11067169124565444
13.930015999999998,2.728134274448056,0.11058047507219351
13.932412,2.725295451798347,0.1104515014417562
13.934808,2.7181728884020853,0.11047154509595777
13.937196,2.7135642824314363,0.1104676158295572
13.939576,2.7103061509011472,0.11039087217566101
13.941972,2.708258724184356,0.11025817178995892
13.94436,2.709563872654341,0.10999471398778424
13.946739999999998,2.717015092990437,0.10954542784331003
13.94914,2.7284705148193664,0.10897654389752601
13.951524,2.7367131310883805,0.10850930744559281
13.953907999999998,2.741231085118281,0.10812592202409455
13.956304,2.7441662472823456,0.1077382862945524
13.958692,2.7493830494465468,0.10724880966004853
13.961072,2.7539482253046907,0.10675238197303813
13.963468,2.7634487682154463,0.1061135613435128
13.965856,2.768945109633368,0.1055978610378727
13.968240000000002,2.7682953791851794,0.10527881842260851
13.970636,2.765783317617434,0.10500048087447289
13.973020000000002,2.7560542489969393,0.10495221973845709
13.97542,2.7489789074289193,0.10486212788661424
13.977816,2.7448368321670946,0.10469419370697755
13.980208,2.7385528865319935,0.10460100869883147
13.982588,2.737344077576364,0.10435526006950183
13.984984,2.7356234119415372,0.10407596640403824
13.987376,2.732971580746932,0.10381533148392356
13.989756,2.7293885839925482,0.10357332725960716
13.992152,2.724594882424666,0.10338677672009895
13.99454,2.716867914550588,0.10327140832887996
13.99692,2.70928071630337,0.10313748237302968
13.999316,2.706908424362485,0.10284588715817591
14.001704,2.7062586939142963,0.10253428016072032
14.004088,2.7119873527576956,0.1021134194390541
14.00648,2.7165053067875964,0.10174493737716218
14.008868,2.717670685630721,0.10149985205910582
14.011252,2.7128297622345947,0.10141465550056415
14.013648,2.7106425658909443,0.10129249490604506
14.016036,2.710597239920571,0.10109596375290213
14.01842,2.7104121443233367,0.1009162837592028
14.020824,2.713300084659158,0.10064031470468904
14.023212,2.7143256938754226,0.10040286099871838
14.025592,2.713768511225851,0.10016913075062077
14.027988,2.714422033389778,0.09987983278010264
14.030376,2.7098606492473722,0.099756305433264
14.03276,2.702086459545052,0.0997448709655573
14.035156,2.697105766522066,0.09967531419975607
14.037544,2.6939874046186367,0.09956776939025037
14.039924,2.6888669419687905,0.09951554716573058
14.04232,2.6783918033857512,0.09965239209728799
14.044708,2.666566190362354,0.09986147710548807
14.047092,2.6543212684583755,0.10012132271473376
14.049488,2.6462203176740906,0.10024601965817956
14.051876,2.63667634465083,0.10034678288206438
14.054256,2.6299258683069047,0.10039548368966124
