Time,Force,Position
13.264348000000002,0.7223371828999228,0.005291894475374662
13.266744,0.7202425343548888,0.0050606090894807325
13.269132,0.7210811521160502,0.004764672065399607
13.271516000000002,0.7277863024896017,0.007147983013223558
13.27392,0.7296958554374015,0.009579564779308988
13.276308,0.7323968043181195,0.009579564779308988
13.278688,0.7344461268927794,0.00957956477930899
13.281092,0.735424514280801,0.00957956477930899
13.28348,0.7384050024152393,0.00957956477930899
13.28586,0.7391038505495404,0.00957956477930899
13.288256,0.7392436201764007,0.00957956477930899
13.290644,0.7404543249898995,0.00957956477930899
13.293028,0.742875734616897,0.00957956477930899
13.295424,0.7425036475645594,0.00957956477930899
13.297812,0.7406413164450029,0.00957956477930899
13.300192,0.7349145534594728,0.00957956477930899
13.302588,0.726114754540887,0.00957956477930899
13.304976,0.7194568259955787,0.00957956477930899
13.30736,0.7126591278234099,0.00957956477930899
13.309756,0.7025088544644655,0.00957956477930899
13.31214,0.6924983507323813,0.00957956477930899
13.314524000000002,0.6764815447610465,0.007197228746609186
13.31692,0.6615356739763502,0.0048148927139093824
13.319308,0.6430049105794007,0.00243158176608543
13.321688000000002,0.6294095142350634,0.0
13.324084,0.6187473841969213,0.0
13.326472,0.6090164197185575,0.0
13.328852,0.6031498871061671,0.0
13.331252,0.6004961600536924,0.0
13.333636000000002,0.5999843033744946,0.0
13.33602,0.6006831515087957,0.0
13.338416000000002,0.5995196685235401,0.0
13.340804000000002,0.6010099125907593,0.0
13.343184,0.6052936533373134,0.0
13.345580000000002,0.6092053070315301,0.0
13.347968000000002,0.6104632336732719,0.0
13.350352,0.6089276636356789,0.0
13.352748000000002,0.605389992851669,0.0
13.355136000000002,0.5978481205748254,0.0
13.357516,0.5885836868052853,0.0
13.359916000000002,0.5783880874759669,0.0
13.362304000000002,0.5728483159455401,0.0
13.364684,0.5671687747882532,0.0
13.367084000000002,0.562140859937024,0.0
13.369468,0.5549710747125179,0.0
13.371852,0.5459389583684552,0.0
13.374248,0.5389089427708091,0.0
13.376636,0.5269435601205512,0.0
13.379016,0.5065504656040453,0.0
13.381412,0.48587783183381883,0.0
13.3838,0.4642740325038141,0.0
13.38618,0.43652416130769955,0.0
13.38858,0.4067721893651682,0.0
13.390968,0.37622882148971876,0.0
13.393352,0.3461973102934669,0.0
13.395752000000002,0.3220323317096055,0.0
13.39814,0.30187155461857673,0.0
13.400524,0.2807796119677697,0.0
13.40294,0.2606188348767419,0.0
13.405328,0.24246015853213101,0.0
13.407708,0.2240219429337997,0.0
13.410112000000002,0.20334562006255819,0.0
13.4125,0.18173813163153835,0.0
13.41488,0.16027041282737878,0.0
13.417276,0.1398736292098577,0.0
13.41966,0.12040801115211493,0.0
13.42204,0.09987145790773362,0.0
13.424444,0.08133700540976917,0.0
13.426832,0.06801745921813716,0.0
13.429212,0.05483768265336539,0.0
13.431612,0.042589071648371904,0.0
13.434,0.03634676288262801,0.0
13.43638,0.031175389303522635,0.0
13.438776,0.025864246097557053,0.0
13.441168,0.02176380770509021,0.0
13.443548,0.015521498939346312,0.0
13.445944,0.009139420546743177,0.0
13.448332,0.004619673273696682,0.0
13.450716,0.002102026747066065,0.0
13.453112,0.0005155457802137664,0.0
13.455496,0.0,0.0
13.457896000000002,0.002704637981733005,0.0
13.460292,0.0027046379817330045,0.0
13.46268,0.00447811040368769,0.0
13.465064000000002,0.0073225180122809055,0.0
13.46746,0.008164824874457268,0.0
13.469844000000002,0.008164824874457268,0.0
13.472224,0.008215735803715523,0.0
13.474624000000002,0.008406416359833987,0.0
13.477012000000002,0.008406416359833987,0.0
13.479392,0.008406416359833987,0.0
13.481788000000002,0.00938849284887056,0.0
13.484176,0.00938849284887056,0.0
13.48656,0.00938849284887056,0.0
13.488956000000002,0.009388492848870562,0.0
13.491344000000002,0.011953361203743355,0.0
13.493724,0.011953361203743356,0.0
13.49612,0.012980763663154813,0.0
13.498512000000002,0.01861677209321472,0.0
13.500892,0.02322717130701,0.0
13.503292000000002,0.03132801947657205,0.0
13.505676,0.04286840567264261,0.0
13.50806,0.0635371451124081,0.0
13.510456,0.08513146515306759,0.0
13.512844,0.11235810452277092,0.0
13.515224,0.15136313508762883,0.0
13.517624,0.19605139591078885,0.008283193959898688
13.520012,0.24324802920067898,0.016896488586269756
13.522396,0.29444696812553367,0.025684953718683318
13.524792,0.35253984212218914,0.03415823352475042
13.52718,0.4191983017540836,0.04221879236988992
13.529576000000002,0.49157793941262395,0.05009627642597992
13.531972,0.5696408073294662,0.057984146666993724
13.53436,0.656548800135268,0.06554846384108143
13.536740000000002,0.7461558459639185,0.07327649903625849
13.539136,0.8388303427667398,0.08096831243192537
13.541528,0.9401213361340586,0.08854563302346657
13.543908000000002,1.0428516626393372,0.0961771088779727
13.546304,1.137992895039529,0.10412561268272039
13.548692,1.238024168521959,0.111849605260229
13.551072,1.3365670937950394,0.11945444457633937
13.553472,1.4265916552611235,0.12711903531675456
13.55586,1.5092613359054678,0.1348310819922678
13.55824,1.5940275609527148,0.14228855874413296
13.560644,1.6680863299914457,0.1499798467586255
13.563032,1.728085067834885,0.15798011415458213
13.565412000000002,1.7869675445213118,0.15749571786963815
13.567808,1.8443616729983887,0.15660641582077564
13.570196,1.9000351358406382,0.15534512651645935
13.572580000000002,1.9459323082341502,0.15458990376483142
13.574976,1.980470398313088,0.1543942589774882
13.577368,2.00430103238351,0.1546489752965338
13.579748000000002,2.023430512684666,0.15489330543065555
13.582148,2.032364393656504,0.15560596316900102
13.584536,2.0406013223519106,0.15601371810889905
13.58692,2.0433457013451335,0.15642865083058718
13.589316,2.04124915694223,0.15684719005590417
13.591704,2.036965416195676,0.15715474944243166
13.594088,2.036733098770199,0.1570659340992204
13.596484,2.032496579851888,0.15722958921509916
13.598876,2.0271891257469385,0.15746195443100497
13.601256,2.0230451546272445,0.15774116402460314
13.603656,2.0199721186941892,0.15794480222448906
13.606044,2.008239053469408,0.15864539803494024
13.608424,2.0049337001108753,0.15875811257204725
13.610828,2.0069830226855356,0.1584849717865372
13.613216,2.001303481528248,0.15867304273227956
13.615596,1.9953444011172412,0.15891181028310436
13.618000000000002,1.9848220407059591,0.15951319661019658
13.620384,1.980305982533928,0.15973417479679103
13.622764,1.978303881787511,0.15986512055585297
13.625164000000002,1.9801662129070676,0.15975731255769224
13.627548,1.9800264432802073,0.15978663006685373
13.629928,1.9824478529072043,0.15955856110948058
13.632332000000002,1.9828671617877853,0.1594716769294655
13.634716,1.9802134347353104,0.159609151377873
13.637096,1.977000629175395,0.15986041102564144
13.639500000000002,1.9753706154813155,0.1600571659196829
13.641888000000002,1.974811536973875,0.16016947185564398
13.644268,1.9742524584664343,0.1602820915582132
13.646664,1.972110588093157,0.1604407468430553
13.649052,1.9733212929066557,0.16033415104105803
13.651432,1.9794673647727667,0.1599386362979539
13.653828,1.989338098877991,0.15932670312387523
13.656216,1.993155308915721,0.15924669314978424
13.658596,1.9968327493265914,0.15919658364111353
13.661,2.006376722349852,0.15879522405486302
13.663388,2.0152690690670543,0.1583922334249562
13.665768,2.0281656172770908,0.15773560203791773
13.668172000000002,2.038408438434652,0.15721831283507326
13.670556,2.0501415036594333,0.15655251781161364
13.672936,2.066018540003907,0.15565079281415248
13.675340000000002,2.08855350489369,0.1544280017057378
13.677728000000002,2.110669160902893,0.15330494989836643
13.680112,2.1297117809790396,0.15233535894775438
13.682508000000002,2.1524790632943,0.15115638994646305
13.684896000000002,2.171661452997307,0.150111144778878
13.687276,2.1880503460209795,0.1492163871606866
13.68968,2.199224332738319,0.14865608421891244
13.692068,2.2134713553887146,0.14792069637101452
13.694448,2.227019529904809,0.14730239902486797
13.696852,2.2352130284877103,0.14704480098392977
13.69924,2.234187419271446,0.14736616871872887
13.701620000000002,2.2371660115480148,0.14745031036546585
13.704016,2.243125091959022,0.14723727202524642
13.706404,2.2480132371833914,0.14709618185640488
13.708784,2.2510390512882035,0.14704659975489268
13.711188,2.253785326139295,0.14704779316252825
13.713572,2.25466926987083,0.14713682530043942
13.715952,2.2540629695351457,0.14737079493965777
13.718348,2.250104094012686,0.1478399364592936
13.720736000000002,2.2432119521840317,0.14844401890424574
13.723116,2.231803752183345,0.14920626373953905
13.725516,2.220675091436379,0.14991069062682497
13.727900000000002,2.2156925025555236,0.15028211607256964
13.730284,2.210849683301529,0.15062606230739728
13.732680000000002,2.213084101473423,0.15060427127811862
13.735064,2.2191829515112906,0.15040976740860687
13.737444,2.233429974161686,0.14980758961353655
13.73984,2.242741629759469,0.14944035707741074
13.742228,2.2554058605440277,0.14887230826735204
13.744608,2.275287098381336,0.14793412972851838
13.747012000000002,2.301174638457895,0.1466738204465274
13.7494,2.3222665811087024,0.14565465264791833
13.75178,2.340797344505652,0.14482596806020806
13.754176,2.3594678775294615,0.14397231077685274
13.756564,2.376927705739772,0.14319115682455552
13.758948,2.398671274696637,0.14220183122052868
13.761344,2.419763217347444,0.14120209463203762
13.763732,2.4431367999983884,0.14005852487524653
13.766112,2.469723188209248,0.13872317120598918
13.768512,2.4941677060468317,0.1375085673021398
13.7709,2.519543389444192,0.13627144833474117
13.77328,2.542916972095137,0.13513356635560791
13.775676,2.5633572884398856,0.13415551967431286
13.778064,2.584216913665216,0.1331322660686812
13.780444,2.6009325677708515,0.13233812699458536
13.78284,2.6157858907569302,0.13163083133681835
13.785232,2.6232824370634003,0.13127434760477275
13.787612,2.631849918556508,0.1308583415217441
13.790008,2.6393464648629776,0.13050185778969856
13.792396,2.6428388096766144,0.13031345976606157
13.794792,2.644608592997554,0.13016563858530275
13.797188000000002,2.6463783763184936,0.13001637517868106
13.799576000000002,2.648707238146874,0.12978500391663925
13.801956,2.6510360999752542,0.12955363265459746
13.804352000000002,2.6549949754977145,0.12919037791814778
13.80674,2.6506659087807862,0.12918781653309536
13.80912,2.645777763556417,0.12926788616765972
13.811524000000002,2.6398186831454096,0.12939703619917878
13.813912000000002,2.631857501987986,0.1296059393650616
13.816292,2.6232446945245034,0.1298094935397787
13.818696,2.610767455195048,0.13016095745648615
13.821084,2.6002923166120087,0.13042841399649194
13.823464,2.587535538028833,0.13082748761450066
13.825860000000002,2.571286414632021,0.13142928997395392
13.828248000000002,2.553174960115652,0.13210477629369763
13.830628,2.5339925704126447,0.13282697381750347
13.833024000000002,2.5155090288439386,0.1334641578771795
13.835412000000002,2.49902758802165,0.13401152360510118
13.837792,2.482825686453081,0.1345044295826804
13.840188,2.463970057832037,0.1350852370412414
13.842576,2.4429725588377162,0.13578674360355364
13.84496,2.421183663910477,0.1365152418165852
13.847364,2.399766856035576,0.13730401189102934
13.849752,2.38184239297431,0.1378538443563567
13.852132,2.363638390659325,0.13843941783067135
13.854528000000002,2.348926733157975,0.13883766637041592
13.856916000000002,2.335425780470124,0.13916369487500793
13.859296,2.3208538925956343,0.13955168928448755
13.861696000000002,2.3093550406542,0.13978545529362113
13.864084000000002,2.300509915765241,0.1399397798088891
13.866464,2.295529222742255,0.13993563130625697
13.868868,2.288546428972852,0.140022625706346
13.871256,2.285847375950003,0.13988163323262695
13.873636,2.2854299629272914,0.13960210290398328
13.876032000000002,2.28473301065086,0.13936440395479488
13.878420000000002,2.2809630224413726,0.13928430652430368
13.8808,2.2806381572172785,0.13910061435481377
13.883200000000002,2.2823153927396014,0.13882499512036053
13.885584,2.2789174915824515,0.13879903256042414
13.887968,2.2791044830375546,0.13864830881797158
13.890364000000002,2.2794312441195177,0.13847083876929103
13.892752000000002,2.284413833000373,0.13810422229073807
13.895132,2.292888766694864,0.13751657808117482
13.897528,2.293727384456026,0.13737560991014158
13.899920000000002,2.2962885637098838,0.13718679592388527
13.9023,2.298430434083161,0.13706632146309394
13.904696,2.301643239643077,0.13688727473861217
13.907088000000002,2.3071376852031293,0.13656620060147373
13.909468,2.3098386340838473,0.1363569430692478
13.911868000000002,2.30974608628523,0.13625384522643444
13.914252,2.307651437740196,0.13624528867581684
13.916632,2.3026235228889673,0.13637415125309382
13.919032,2.298387003970656,0.136482260329121
13.921416,2.293870945798625,0.1366365226911027
13.923796,2.2945697939329257,0.136521766169067
13.926192,2.3015544835601975,0.13608179994905664
13.928584,2.3069563813216334,0.13567274444276006
13.930964,2.3063519768438185,0.13553751758480007
13.933364,2.313616205724811,0.1350616456596648
13.935748,2.3199492690460253,0.13462263343606398
13.938132,2.329215598673435,0.13405686572098127
13.940528,2.3336863308750924,0.1336869048327319
13.942916,2.334013091957056,0.133520428268237
13.9453,2.3366214930391567,0.13321128493801168
13.947712,2.336436397441922,0.13300694556330311
13.9501,2.343328539270577,0.1324878169470117
13.95248,2.349289515539454,0.1320060398551801
13.954884,2.3529688518081935,0.13165575443940028
13.957272,2.3580912103159086,0.13130748092748457
13.959652000000002,2.365867295876099,0.1308807202148505
13.962056,2.3715015110630118,0.13055370167738875
13.964444,2.3850043596087316,0.12988846624723185
13.966824,2.3966448770348956,0.12931007346707224
13.96922,2.409635868901418,0.12863848744299372
13.971608,2.4218354648350227,0.12800507685904872
13.973988000000002,2.4258868881560995,0.12771967409890195
13.976384,2.4303103985295142,0.12749087231030265
13.978772,2.4388778800226225,0.12707125836327993
13.981152000000002,2.442509994463119,0.1268541970638748
13.983548,2.4481442096500317,0.12656019640883673
13.985936,2.455640755956501,0.12621756693749753
13.988316,2.466861964502084,0.1257609385094187
13.990712000000002,2.479945504167224,0.12524713034744248
13.993100000000002,2.496613936444617,0.12463748375694172
13.995496,2.5183575054014815,0.12384347234583795
13.9979,2.5311615058129004,0.12339460697962247
14.000288,2.543034340664541,0.12297226415273042
14.002668,2.559190916262736,0.12237224271257344
14.005064,2.5716228296218184,0.12186973014220875
14.007452,2.584474051861481,0.12131508970800456
14.009832,2.6051939074599506,0.12049471954465746
14.012228,2.6212579352595284,0.11982539769674035
14.014616,2.633317761566273,0.11929055863196956
14.016996,2.640162681566685,0.11895646596632826
14.0194,2.6415131560070435,0.11887080303173446
14.021784,2.6518031989928486,0.11846644739915507
14.024164,2.6615813852994554,0.11803049374587692
14.026568,2.6730821330987586,0.11757596232231339
14.028956,2.6864452120176185,0.1170702885201123
14.031336,2.6959438590705043,0.11668716265113555
14.033740000000002,2.70064690869764,0.11645196866079328
14.036128,2.704698332018717,0.11620778803597838
14.038508,2.7078185897800156,0.11598901013311082
14.040904,2.709495825302338,0.11576386280193933
14.043292,2.7038162841450513,0.11581685439029372
14.045672,2.7040032756001544,0.1156909599999438
14.048076000000002,2.709777260413927,0.11543010075811407
14.050464000000002,2.711127734854286,0.11535314238532209
14.052844,2.7204866122803124,0.11502901135874974
14.05524,2.7277036193330617,0.11478620887981046
14.057628,2.73040456821378,0.11463899016617757
14.060012,2.7334776041468354,0.11454055801304901
14.062408,2.7374818056396695,0.11441687094532141
14.064796,2.7504255756779488,0.1140254628383036
14.067176,2.766721920903004,0.11348400017529267
14.069580000000002,2.7783624383291676,0.11306636737300978
14.071968000000002,2.792005056501748,0.11259575601893947
14.074348,2.8008520772485763,0.11225178428124924
14.076744,2.8090474716893468,0.1118966593582579
14.079132,2.8189654276228144,0.11151281066531306
14.081512,2.8276726787427826,0.11117511404437791
14.083908,2.8319564194893365,0.11101329220282784
14.086296,2.8354487643029724,0.11085495753866144
14.08868,2.8367992387433314,0.11077731426939803
14.091076,2.841781827624186,0.11051794373173832
14.093464,2.840106487959733,0.11043748993862473
14.095844,2.827769018257137,0.11066941417308634
14.09824,2.816130396688844,0.11080933777327183
14.100628,2.798485472881299,0.11113314768395272
14.103008,2.7817717146335323,0.11143658163033782
14.105412,2.764918186758906,0.11175472082534584
14.1078,2.7475528022050812,0.11204347615749104
14.11018,2.7334002232111727,0.1122078780672251
14.112576,2.7136606508585936,0.11249382705672696
14.114964,2.692850143319376,0.1128217006446085
14.117344,2.673622427645995,0.1131390657559309
14.11974,2.6465260786138067,0.11370500797517137
14.122128,2.6203608951413964,0.11426055553840697
14.124512,2.5911226757359307,0.11493519491737504
14.126908,2.562303765211046,0.1155492330039792
14.129296,2.54191256655241,0.11582881321768507
14.131676,2.525944878267187,0.115927321989925
14.134072,2.507975089235548,0.1160986058905248
14.13646,2.4948008976296605,0.11612979822474391
14.138844,2.4804160012102745,0.11622006623176456
14.14124,2.4709664718435005,0.11615638511660335
14.143628,2.4696651150892537,0.11580335785292142
14.146024,2.4688756150142046,0.1154846787994602
14.148420000000002,2.468225884566016,0.11514400816933049
14.150808,2.467715923744687,0.11478359941101857
14.153188,2.4650640925500817,0.11450978173120424
14.155588000000002,2.4661369235945894,0.11414132043428489
14.157976,2.4661388194524583,0.11381844631060117
14.160356,2.4667923416163857,0.11351059839398528
14.162756000000002,2.471450065273147,0.11307410337394118
14.165144000000002,2.474385227437211,0.11266478489534364
14.167528,2.485189022960083,0.11199945623853381
14.169924000000002,2.497063753669593,0.11128794652678144
14.172312000000002,2.512802916245077,0.11045264849849627
14.174692,2.5274711436339223,0.10966242082238568
14.177088,2.5358535295297964,0.10913365789384918
14.179476,2.541302649119475,0.10869294549464802
14.18186,2.5495452653884887,0.10817597078970333
14.184256,2.553132053858611,0.10777809055121196
14.186644,2.562585374941124,0.10721903685412323
14.189024,2.5685463512100006,0.10681990398390075
14.19142,2.570363356359184,0.10656830289311202
14.193808,2.573111527068145,0.1062961038289236
14.196188,2.5746489929636067,0.10608137482804776
14.198588,2.577117624418847,0.10584622094964731
14.200976,2.5806571910607263,0.10556538959805865
14.203356,2.5806118650903525,0.10535634574303028
14.205752,2.57949560393334,0.10518801464292638
14.20814,2.578519112403187,0.10500021646042959
14.210524,2.5736781890070617,0.1049178368912963
14.21292,2.5676265607974376,0.1048964867718885
14.215308,2.5623663285207314,0.10487004455226832
14.217692,2.5580372618038036,0.10482216271662319
14.220088,2.551566324713599,0.10485285082878253
14.222476,2.544955617996533,0.10490335207347483
14.224856,2.5383449112794687,0.10495530161987696
14.227252,2.5334567660550995,0.10498528841715708
14.22964,2.5277772248978123,0.10501719206927995
14.23204,2.524751410793,0.10500490109036772
14.234436,2.508362517769328,0.10546007793249683
14.236824000000002,2.49653690474593,0.10570708591075961
14.239204,2.490577824334923,0.10577936799240896
14.241600000000002,2.483827347990997,0.1058521775817591
14.243988000000002,2.479218742020349,0.10584420158482749
14.246368,2.4756810712363384,0.10579391707813784
14.248768000000002,2.4741455011987457,0.10568255217452746
14.251156000000002,2.4731217878403498,0.10560808315042186
14.253536,2.4762420456016483,0.10539528340124497
14.255936000000002,2.479362303362947,0.10518318634697596
14.258324000000002,2.4844846618706624,0.1049132547261192
14.260708,2.4925402866845725,0.10456167003678549
14.263104000000002,2.495660544445871,0.10435027310647031
14.265492000000002,2.4978496366473912,0.10416026442521868
14.267872,2.508326671088299,0.10371705352683813
14.270268000000002,2.5235993029549593,0.10317204163336548
