Time,Force,Position
13.176484,0.8509690510928746,0.029423977105980503
13.17888,0.8639600429593972,0.031737393401280505
13.181268,0.8753210211318403,0.03413422312729471
13.183652,0.8836089633712282,0.03657561148509307
13.186048,0.8917571359837558,0.039016999842891434
13.188436,0.8957613374765896,0.04155720203867198
13.19082,0.8971118119169486,0.04405133636020256
13.193216,0.8973913511706689,0.04405133636020256
13.195604,0.895249480797392,0.04155720203867197
13.197988,0.8943183152376136,0.04155720203867197
13.200384,0.8908731922522208,0.039020032502187
13.202772,0.8903613355730231,0.038876471569302753
13.205152,0.8835636374008544,0.03643324582754091
13.207552,0.8759745432957675,0.033991857469742544
13.20994,0.8694563843773192,0.03155046911194418
13.21232,0.8680133621383431,0.03140879885187596
13.214716,0.863637073593172,0.028966510872389994
13.217104,0.8575382235553043,0.02647837883495873
13.219484,0.8415686394122126,0.024081549108944535
13.221884,0.8233174152689837,0.021726545399866744
13.224268,0.7942170696325095,0.019372377960300037
13.226652,0.7670243810859655,0.017058961665000028
13.229048,0.7389458529500184,0.014662131938985832
13.231436,0.717291040076033,0.012220743581187469
13.233816,0.7001976113444529,0.009779355223389104
13.236212,0.6910181419420538,0.007239153027608566
13.2386,0.684817264816224,0.0047450187060779775
13.240984,0.6803842751534643,0.0047450187060779775
13.24338,0.6807922088868303,0.0047450187060779775
13.245768,0.6838991956430451,0.013506609642874775
13.248152,0.6842107898620557,0.013506609642874774
13.250548,0.682286070051303,0.011109968379978482
13.252936,0.6854818128903964,0.011109968379978484
13.25532,0.686860550580307,0.011109968379978484
13.257716,0.6920092764797048,0.022893317545047212
13.2601,0.6966442498420357,0.032469598390393185
13.262496,0.7070513121602706,0.04414429612969457
13.264896,0.7240218593673277,0.055512454076612316
13.267284,0.7555642944488743,0.06601576878878315
13.269664,0.7959518544193804,0.07609928450163769
13.27206,0.8627388111456432,0.08491825988170387
13.274448,0.9245450748489198,0.0939154225555453
13.276828,0.9905897533283757,0.10263149765199822
13.279224,1.0526321261728673,0.11131394745492972
13.281612,1.108390553382257,0.12010037543851199
13.283996,1.1594478268223811,0.12885208718937255
13.286396,1.2080383646651343,0.13767334650530355
13.28878,1.2590049861645107,0.14628819566276463
13.291164,1.302756496469007,0.15504053228993717
13.293568,1.3446003496835728,0.15496156366288444
13.295956,1.3921728617415379,0.16334535665253927
13.298336,1.4401193567097097,0.1716965004812367
13.300732,1.4949579935065362,0.1795492278760561
13.30312,1.552265261758604,0.18732607087865497
13.305504,1.6025897362412684,0.18348430771666205
13.3079,1.6478409699023304,0.17960801665638887
13.310288,1.6870405753537678,0.1761613987286961
13.312668,1.7228895014762988,0.17286815864420935
13.315064,1.7463084100976172,0.17068082229638182
13.317452,1.7611617330836962,0.16904165896701262
13.319832,1.759393845620626,0.16883578057441795
13.322228,1.7593485196502523,0.1685214180975207
13.324616,1.756230157746823,0.16848814319801197
13.327,1.7544150484555092,0.16845376396319495
13.329396,1.7541827310300317,0.1683500465447978
13.331784,1.752879478417916,0.16835130607489213
13.33418,1.7517159954326602,0.1683182805094815
13.336576,1.7484106420741279,0.1684916651025409
13.338964,1.7473397068874892,0.16859844400417615
13.341344,1.7464085413277108,0.16866815832160462
13.34374,1.7433355053946553,0.16893261330537115
13.346128,1.7442666709544337,0.16887043865092213
13.348512,1.738120599088323,0.1693388904422841
13.350908,1.7311831312892945,0.16982190920371437
13.353296,1.7294605697965977,0.1699025915621455
13.355676,1.7362582679687664,0.16947345077520554
13.358076,1.7450580668873519,0.16889264568220652
13.360464,1.7512966865520796,0.16857191589364157
13.362848,1.7631222995754772,0.16790991536553887
13.365244,1.7768102437184319,0.16711954081829414
13.367632,1.7935712237944417,0.16608416100568554
13.370016,1.8124740742437284,0.16488494339931312
13.372412,1.8313769246930152,0.16368572579294072
13.3748,1.8514904799558005,0.16240421829892332
13.37718,1.872814740032085,0.16101829240593787
13.37958,1.8980034319743426,0.1594108034802777
13.381968,1.926265159849656,0.15762471673102413
13.384348,1.9563892188445262,0.15576293491208185
13.386744,1.9869325867199765,0.15380666932104511
13.389132,2.0133319834757333,0.1521196885461794
13.391516,2.0386604450448513,0.15053679642506487
13.393912,2.052627928441526,0.1497389142818926
13.3963,2.0678061166517,0.14883685945731578
13.398684,2.0821929089289553,0.14796980620508648
13.401084,2.0915045645267387,0.14745803917972494
13.403472,2.0905261771387167,0.14765605639977
13.405856,2.089827329004416,0.1477974955637983
13.408264,2.089408020123835,0.14788363249513004
13.410652,2.0880575456834762,0.14801836854152733
13.413036,2.088709171989534,0.14802498446747228
13.415432,2.089221028668731,0.1480594020354666
13.417816,2.0870791582954547,0.14820871070866043
13.420196,2.0827954175489003,0.14851384200072662
13.4226,2.073436540122874,0.14915313198729205
13.424988,2.0662195330701243,0.14961661252619862
13.427368,2.054067158964763,0.15036406411909592
13.429764,2.039121288180067,0.15122570217740067
13.432152,2.0204507551562574,0.1522706308259748
13.434532,2.001500682878728,0.15336904421340372
13.436928,1.9876257472806702,0.1541674734206685
13.439316,1.9744024379886702,0.15497132017136925
13.441696,1.97426266836181,0.15499807877625005
13.444092,1.9717014891079523,0.1552251600542666
13.44648,1.9677898354137358,0.15558253390188617
13.44886,1.9649491169061575,0.15587230633512505
13.451256,1.9666716783988538,0.15579922962880302
13.453644,1.9693254054513285,0.15567763993285264
13.456024,1.9757037947429166,0.15536241250718386
13.458428,1.9791489177283095,0.15521990426416712
13.460816,1.9805919399672856,0.15520551614160266
13.463196,1.9780307607134275,0.15544469306242994
13.465592,1.9751900422058497,0.1557439826236937
13.46798,1.9777039996314643,0.15565000213238186
13.47036,1.985293093736551,0.155215730408914
13.472764,1.9855254111620282,0.15530677686149227
13.475152,1.989622160453479,0.15516402527271977
13.477532,1.990506104185014,0.15526136160304102
13.479936,1.9972565805289395,0.15499099237010824
13.48232,2.005357531313224,0.1545882880739516
13.4847,2.0114563813510915,0.15432306204342336
13.487104,2.0153208132170652,0.15409345084991694
13.489492,2.013458482097508,0.1541877399568172
13.491872,2.013086395045171,0.15412628818879193
13.494272,2.011783142433055,0.1541141782884613
13.496656,2.0114110553807176,0.1540519769781659
13.499036,2.011550825007578,0.15402404130521083
13.501432,2.0083380194476623,0.15426024024263546
13.50382,2.001680090902354,0.1546333061031545
13.5062,1.9990263638498795,0.15475336279580826
13.508596,1.996512406424265,0.15484522961527597
13.510984,1.995209153812149,0.15483424295678924
13.513364,1.99604777157331,0.1546623273428661
13.51576,1.991671483028139,0.15486052789973206
13.518148,1.9862242592963295,0.15512927156773515
13.520528,1.985852172243992,0.1550666737866885
13.522924,1.9806844877659027,0.15529265942989698
13.525312,1.9776586736610902,0.1553627726701622
13.527692,1.9704888884365839,0.155723056212235
13.530088,1.9610374632119405,0.15627287710156043
13.532476,1.9517258076141573,0.1567921619937472
13.53486,1.9447883398151284,0.15724401508345856
13.537256,1.9369197064563215,0.15774972426183154
13.539644,1.9309134042170706,0.1581411383928636
13.542024,1.9291908427243742,0.15821459622203932
13.54442,1.9286789860451767,0.15818013357300967
13.546808,1.9285864382465594,0.15806220955034558
13.549188,1.932917400821357,0.15760786196263013
13.551584,1.9385516160082699,0.1571664357000166
13.553972,1.941252564888988,0.15690323627224226
13.556356,1.9456760752624023,0.15657640847335008
13.558752,1.9519619167553734,0.15614732812834903
13.561136,1.9573165926885658,0.15577183696123614
13.56352,1.9676066356743709,0.1551073110888816
13.565916,1.9771052827272577,0.15446992488649036
13.568304,1.9858125338472261,0.15385874713692552
13.570688,1.9985239864600284,0.1529937767692086
13.573084,2.0110956694459703,0.15214007827212364
13.575472,2.0239468916856325,0.15123098318855366
13.577852,2.0400109194852103,0.15010409441997086
13.580248,2.054864242471289,0.14907244856147475
13.582636,2.0679950039646724,0.14810793362346292
13.58502,2.084710658070308,0.14699689412789402
13.587416,2.0966307147501917,0.14614765568646673
13.589804,2.1074798362434373,0.14539738844815853
13.592184,2.1189805840427405,0.14467617056860155
13.5946,2.130062022961463,0.14404597084594278
13.596988,2.137139260387352,0.14364315755106982
13.599368,2.1438444107609036,0.14318330351866104
13.601764,2.1524118922540123,0.1426382819479698
13.604152,2.158185877067786,0.14222392043279883
13.606536,2.1690349985610315,0.14155192666911887
13.608932,2.1806755159871956,0.14087135124990136
13.61132,2.188451601547386,0.14038219407058064
13.613704,2.195016982294077,0.13997756809485082
13.6161,2.205446794906742,0.13941332838431947
13.618488,2.216807773079185,0.1388275752963193
13.620868,2.2293794560651268,0.13815354679428504
13.62328,2.24074043423757,0.1375592524808071
13.625668,2.247817671663459,0.13720746919716192
13.628048,2.2578281753955434,0.13672362890324619
13.630448,2.2687698446874056,0.13619905711086386
13.632832,2.2758470821132946,0.13585054039472347
13.635216,2.2877199169649356,0.13529308374267907
13.637612,2.2995927518165766,0.13474708770832136
13.64,2.3094634859218006,0.13430179426622407
13.642384,2.3166804929745495,0.13393604449828272
13.64478,2.331766133386106,0.1332393963244942
13.647168,2.3465722345439426,0.13259202724720362
13.649548,2.359795543835942,0.131971247190534
13.651944,2.3687351123813882,0.13155446940676485
13.654332,2.37339094018028,0.13138469141940437
13.656716,2.377255372046253,0.13122792570717381
13.659112,2.3799090990987275,0.1311469625201779
13.6615,2.382562826151203,0.13106390027096676
13.66388,2.3781393157777884,0.13131956776843023
13.666276,2.371573935031097,0.1316867542683793
13.668664,2.366870885403962,0.13197965960479097
13.671044,2.363238770963466,0.13221816707999695
13.67344,2.3617485268962466,0.13234487218130664
13.675824,2.360537822082748,0.13242337845031776
13.678208,2.3602582828290277,0.13246804162889111
13.680624,2.361980844321724,0.13242346244379966
13.683012,2.360770139508225,0.13250101048203505
13.685392,2.355415463575033,0.13278215643388694
13.687788,2.348198456522283,0.13313768899234193
13.690176,2.3447061117086476,0.13335493832974718
13.692556,2.331203263162927,0.13402203308352112
13.694956,2.3195627457367634,0.13461266076595305
13.69734,2.310296416109354,0.13516492964147725
13.699724,2.3083868631615543,0.1353565360533496
13.70212,2.304894518347918,0.13557104093068975
13.704504,2.2989807639072843,0.13595005994972265
13.706884,2.299352850959622,0.13600618669169806
13.709284,2.3009356428254586,0.1359828326462898
13.711672,2.3058710098780706,0.13576088967367625
13.714056,2.306010779504931,0.13573722254682152
13.716452,2.3081526498782075,0.1356216736172005
13.71884,2.309223585064846,0.13556336501228575
13.721224,2.3102945202514844,0.13550505640737096
13.72362,2.3092235850648457,0.13556229673207726
13.726008,2.306569858012371,0.13564244407259457
13.728392,2.30205379984034,0.1357911861913224
13.730788,2.29632703685481,0.13602645860918006
13.733176,2.295675410548752,0.13601575286299408
13.735556,2.2980968201757497,0.13585029010404312
13.737952,2.2966537979367736,0.13585248802421934
13.74034,2.3013568475639086,0.13554007782748612
13.74272,2.3034061701385684,0.13531604385060017
13.74512,2.304803866407171,0.13508493962392823
13.747508,2.3062015626757733,0.13485943789366744
13.749888,2.3094615900639317,0.13456707936956872
13.752284,2.3162139622657265,0.13405689830842615
13.754672,2.3168202626014107,0.13384423446692878
13.757056,2.319428663683511,0.13354692644910968
13.759452,2.3226886910716704,0.13326376326960088
13.76184,2.3353075958858556,0.1325374827547939
13.76422,2.344062068834067,0.13197887211278458
13.76662,2.3529563114091383,0.13139082392308657
13.769008,2.36171078435735,0.13082338962268708
13.771388,2.368463156559145,0.13033424200754512
13.773784,2.3775897165596938,0.12981911062423993
13.776172,2.3848539454406863,0.1293563744332683
13.778552,2.394539583948676,0.12873127867105366
13.780952,2.403294056896888,0.12815249741075355
13.78334,2.4120485298450998,0.12758285221900767
13.78572,2.4240158083532264,0.12684953796157972
13.788116,2.4327702813014387,0.12628215509487864
13.790504,2.439243114249513,0.12583159357322207
13.792884,2.442782680891392,0.12549916677842568
13.79528,2.4423180460404375,0.12534132863548283
13.797672,2.438780375256427,0.12532511285146455
13.800052,2.4341717692857787,0.12536159947360168
13.802448,2.4318448033152675,0.1252674785299108
13.804836,2.428446902158118,0.12522624268240437
13.807216,2.42425760506805,0.12519352618233442
13.809616,2.417367359097265,0.1253421033049701
13.812004,2.40926640831298,0.12556396197167394
13.814388,2.4023761623421938,0.1257139680095601
13.816784,2.3979073259984056,0.12571819857784844
13.819176,2.39865339596095,0.12549604181045868
13.821556,2.399027378871157,0.1252223245400282
13.823952,2.4063388295803922,0.12469945663526236
13.82634,2.4164437769689635,0.1241093959462583
13.828724,2.428690594730811,0.1234464925087496
13.831124,2.4389353117462416,0.1228548233658622
13.833512,2.4471779280152552,0.12233565832078946
13.835892,2.4536979827915726,0.12183600160572322
13.838288,2.4663641094340005,0.12110256862670846
13.84068,2.4838258335021806,0.12022642431592502
13.84306,2.5051519894363343,0.11922907983090793
13.845472,2.528480246116905,0.11814470376743669
13.84786,2.5508773372376976,0.11708533009882088
13.85024,2.5731346587316293,0.11605323403941868
13.852636,2.5953919802255614,0.11503777774918345
13.855024,2.616298827279134,0.11410002030532744
13.857408,2.634691716907092,0.11320452722977929
13.859804,2.653503915415631,0.11224053163395671
13.862192,2.6751096106035046,0.11122555428866004
13.864572,2.6965755361645187,0.11026319396860455
13.866988,2.711895389859422,0.10952321632396612
13.869372,2.723862668367549,0.10892899938746851
13.871756,2.7330364501963413,0.1084229946299018
13.874152,2.7360641601590228,0.10812242304662915
13.876536,2.7292211360164806,0.108114980164694
13.87892,2.7225178815007975,0.10808915689132356
13.881316,2.7147436917984766,0.108106442788751
13.8837,2.7108339339621295,0.10801280857965298
13.886084,2.7001264779536136,0.10811949841563918
13.88848,2.683971798213288,0.10834214817684616
13.890868,2.6659547873534057,0.10860288112193302
13.893252,2.6483570853741036,0.10880166892464006
13.895648,2.6354152111936933,0.10888295825569361
13.898036,2.622333567386423,0.10898209780379825
13.900416,2.6063186572729578,0.10916545305295343
13.902816,2.5919337608535713,0.10923303427679915
13.905204,2.5754069940609083,0.10938975422446767
13.907584,2.556319048014387,0.10970081518301242
13.90998,2.5321559652883936,0.11018182836750949
13.912368,2.5030575155097883,0.11081902640225207
13.914748,2.4782428064777373,0.11128713315462063
13.917144,2.4554301981921034,0.11169795954467902
13.919532,2.4272629139732764,0.11234164353019821
13.921916,2.4044503056876425,0.11276335233407886
13.924312,2.394162158559707,0.11281182698983021
13.926704,2.386667508111106,0.11278663741287898
13.929084,2.3851791599017558,0.11256141830851792
13.93148,2.381828480572849,0.11238172884449027
13.933868,2.3851357297892513,0.11202168007434252
13.936248,2.389746231617769,0.11168850385881772
13.938644,2.3931460286327884,0.11141796072619915
13.941032,2.396126516767227,0.11120936273596035
13.943412,2.3935200115429947,0.111141218618237
13.945812,2.3911930455724844,0.11103285523742863
13.9482,2.3916595762813078,0.1108555293258532
13.95058,2.393708898855968,0.11067519857750562
13.952992,2.4016247540430182,0.11032158406173595
13.95538,2.414895285163261,0.10975201911151329
13.95776,2.432449557030058,0.10901459384253219
13.960156,2.4558703615092456,0.10810397080424745
13.962544,2.477009525988296,0.10730568682487657
13.964928,2.5013614960272617,0.10640354774900498
13.967324,2.527436027558924,0.10542813728045969
13.969712,2.5532310198368657,0.10452726908436152
13.972092,2.570226213196222,0.10389885989545289
13.974492,2.584427909876243,0.10334052217345016
13.97688,2.593414700249932,0.10297157010593133
13.97926,2.607988483982291,0.10249514067458888
13.981656,2.619768771035315,0.10208646678802098
13.984044,2.6318285973420585,0.1016340060491403
13.986428,2.6460302940220797,0.10110557883362632
13.988824,2.6611631562618796,0.10056072175207724
13.991208,2.676947644807737,0.10002427316667048
13.993592,2.6912418892863754,0.09957978746844376
13.995988,2.7027426370856786,0.09919250686233079
13.998376,2.710378953019009,0.09890431301232236
14.00076,2.716432477086503,0.09862622509565323
14.003156,2.7223462315271356,0.09837341036514087
14.005544,2.7239762452212157,0.09826552255171314
14.007924,2.7173183166759074,0.09841222896932034
14.01032,2.711591553690377,0.09854140558539123
14.012708,2.7027917547717917,0.09875573790939515
14.015092,2.6994864014132594,0.09877283745364808
14.017488,2.6941789473083095,0.0988416463661875
14.019876,2.690733824322917,0.09887758327166532
14.02226,2.687940327643582,0.09893197718003756
14.024656,2.6872887013375237,0.09891388041154678
14.027044,2.680118916113018,0.09901912855439897
14.029428,2.671738426075013,0.09917889259492949
14.031824,2.6673621375298415,0.09923014916543234
14.034212,2.663125618611531,0.09926200992949628
14.036596,2.657026768573663,0.09932770672284702
14.038992,2.651067688162655,0.09937733477691182
14.04138,2.647390247751785,0.099339590795528
14.043764,2.6445042032738333,0.09930265419310993
14.04616,2.6424095547287996,0.0992661330937802
14.048552,2.637753726929908,0.09935661390336538
14.050932,2.6272313665186258,0.09959549153321674
14.053328,2.619642272413539,0.09976249581496974
14.055716,2.621551825361339,0.09961428479339732
14.058096,2.6233216086822786,0.09948438241908011
14.060512,2.621738816816442,0.09948545297203754
14.062896,2.6149411186442744,0.09965617000547065
14.065276,2.6061413197256886,0.09988752582077987
14.067672,2.6014854919267965,0.09998273305620732
14.07006,2.5989715345011817,0.10000198218087344
14.07244,2.593244771515652,0.10013452084778114
14.074851999999998,2.58816963483618,0.10028809799602091
14.077239999999998,2.5853761381568447,0.10034604275287853
14.07962,2.5793698359175945,0.10051480090302554
14.082032,2.5721528288648448,0.10073703247496253
14.08442,2.5649358218120955,0.10096190742029737
14.086799999999998,2.5595811458789024,0.1011490812622157
14.089216,2.5532953043859314,0.10135279041689266
14.091599999999998,2.5512932036395144,0.10140731002340451
14.09398,2.553435074012792,0.10133547076787919
14.096384,2.55599625326665,0.10120770758033062
14.098772,2.56349279957312,0.10094827158598423
14.101152,2.5729914466260064,0.1006410345826321
14.103556,2.5771354177457,0.1005179391310917
14.105944,2.5803482233056156,0.10041103995694159
14.108323999999998,2.5877049999852253,0.10017498236439673
14.11072,2.6001369133443073,0.09979650605319118
14.113103999999998,2.6136397618900276,0.09937333046306757
14.115488,2.6240695745026925,0.09904993629006452
14.117879999999998,2.629703789689606,0.0988333275427668
14.120268,2.640413141555991,0.0984735636874089
14.122648,2.6541955293554316,0.09802606822047873
14.125044,2.66862954346093,0.09760669429941675
14.127428,2.6812012264468716,0.09721552746396052
14.129824,2.6917708086863965,0.09687304019236248
14.132219999999998,2.705133887605257,0.09647883767576772
14.134603999999998,2.7197076713376154,0.09604037065611075
14.136984,2.7370749517493094,0.09556065873425597
14.13938,2.7513691962279476,0.09517821279887126
14.141764,2.7605883040271135,0.09493111662144726
14.144144,2.7735320740653933,0.0946253390769296
14.146544,2.7883381752232292,0.09429791086509971
14.148928,2.798628218209034,0.09403320703144977
14.151307999999998,2.8101289660083375,0.09371860162084486
14.153724,2.8259134545541955,0.0932836055508459
14.156107999999998,2.845050518286829,0.0927565435321272
14.158488,2.861114546086407,0.09231316123638014
