Time,Force,Position
15.340692,0.19716549475855794,0.0
15.343072,0.1968859555048375,0.0
15.345476,0.19874828662439412,0.0
15.347864,0.19874828662439412,0.0
15.35024,0.19660641625111702,0.0
15.352644000000002,0.19181081882536521,0.0
15.355032,0.18901732214603026,0.0
15.357412,0.17863473136160854,0.0
15.359804,0.16783283169660618,0.0
15.362192,0.15581653811708998,0.0
15.364576,0.14771558733280551,0.0
15.366972,0.1386325600594845,0.0
15.36936,0.12661626647996826,0.0
15.37174,0.1127376417808954,0.0
15.374144,0.0969966859622659,0.0
15.376532,0.08339760051691347,0.0
15.378916,0.07166084619111768,0.0
15.381312,0.06299712779837728,0.0
15.3837,0.05512480533855498,0.0
15.38608,0.049254583625149534,0.0
15.388484000000002,0.042173657098245346,0.0
15.390872000000002,0.03495296094448095,0.0
15.393252,0.026661329604078018,0.0
15.395648,0.0191610941965932,0.0
15.398036,0.013662959535525238,0.0
15.400416,0.00909599043423559,0.0
15.402812,0.0023871509596688823,0.0
15.4052,0.0015448440974925183,0.0
15.40758,0.0009820764890365744,0.0
15.40998,0.0009820764890365744,0.0
15.412364,0.0,0.0
15.414748,0.0,0.0
15.417144,0.0,0.0
15.419532,0.0028444076085932155,0.0
15.421928,0.006899520030685171,0.0
15.424324000000002,0.011094402079637338,0.0
15.426708,0.014358118568811182,0.0
15.429088,0.01762183505798503,0.0
15.431492,0.02074578192029867,0.0
15.433876,0.023590189528891883,0.0
15.43626,0.028716237137622367,0.0
15.438656000000002,0.033050888813434744,0.0
15.441044000000002,0.03552320936969048,0.0
15.443424,0.038926695485724534,0.0
15.44582,0.040328080855341744,0.0
15.448208,0.043591797344515584,0.0
15.450588,0.04885761458010628,0.0
15.452992000000002,0.05319226625591866,0.0
15.455380000000002,0.05538504755845397,0.0
15.45776,0.05538504755845397,0.0
15.460156,0.056646663301210966,0.0
15.46254,0.05790827904396796,0.0
15.464924,0.059030125159864756,0.0
15.467328000000002,0.05623662848052978,0.0
15.469712,0.052181516058437835,0.0
15.472092,0.04798663400948566,0.0
15.4745,0.04677592919598693,0.0
15.476888,0.04556522438248818,0.0
15.479268,0.042441277520174556,0.0
15.481672,0.039596869911581345,0.0
15.48406,0.035592668418747635,0.0
15.486440000000002,0.034381963605248894,0.0
15.488844,0.03410242435152847,0.0
15.491232,0.031820784351391206,0.0
15.493612,0.036476612150282806,0.0
15.496008,0.04127220957603461,0.0
15.498396,0.043134540695591264,0.0
15.500776000000002,0.04285500144187083,0.0
15.503172,0.044717332561427466,0.0
15.505556000000002,0.05049500647621586,0.0
15.507936,0.051938028715191875,0.0
15.510332000000002,0.05067641297243488,0.0
15.512720000000002,0.0495545668565381,0.0
15.5151,0.049503655927279844,0.0
15.517496,0.049503655927279844,0.0
15.519884,0.049503655927279844,0.0
15.522280000000002,0.04745064425160474,0.0
15.524676,0.04539763257592963,0.0
15.527064,0.04539763257592963,0.0
15.529444000000002,0.04539763257592963,0.0
15.531848,0.04427578646003285,0.0
15.534236,0.04115183959771921,0.0
15.536616,0.03895905829518389,0.0
15.53902,0.037837212179287115,0.0
15.541408,0.031779999010778305,0.0
15.543788,0.023720685095852647,0.0
15.546184,0.016592536740705308,0.0
15.548572,0.012537424318613348,0.0
15.550956,0.008482311896521393,0.0
15.553352,0.0027046379817330054,0.0
15.555736,0.0,0.0
15.558116000000002,0.0,0.0
15.560516,0.0,0.0
15.5629,0.0,0.0
15.565284000000002,0.0,0.0
15.56768,0.0,0.0
15.570068,0.0,0.0
15.572448,0.0,0.0
15.574852,0.0,0.0
15.577236,0.0,0.0
15.579620000000002,0.0,0.0
15.582024,0.0,0.0
15.584408,0.0,0.0
15.586792,0.0,0.0
15.589192,0.0,0.0
15.59158,0.0,0.0
15.59396,0.003677337796147729,0.0
15.596364,0.012427916413898435,0.0
15.598752,0.024901261412893193,0.0
15.601132,0.041796220927433035,0.0
15.603536000000002,0.06423095197239964,0.0
15.60592,0.0911345193611545,0.0
15.6083,0.12180807495939654,0.0
15.610704000000002,0.16048813768543674,0.0
15.613092000000002,0.20680262048693765,0.009621117627140664
15.615472,0.2641966463492921,0.018346428229385203
15.617868,0.3321583585933024,0.026418697194016454
15.620256,0.40244703680782384,0.03459389999921573
15.622636,0.47627338580635525,0.04271374822817557
15.625032,0.5506569174544582,0.051230377700345206
15.627416,0.6331867258572196,0.059514540321549396
15.6298,0.7221402495219428,0.0676953186826615
15.632196,0.8141649132618523,0.07608289234059373
15.63458,0.9103316522635863,0.08457379589192164
15.636960000000002,1.0127370109300482,0.09273343517335221
15.63936,1.113327260305197,0.10085480787912209
15.641744,1.2077734362868262,0.10893259272083099
15.644124,1.2943528747675175,0.11717681328659346
15.646528,1.375906294254849,0.12541511551455994
15.648916,1.4499650632935799,0.13389568449632025
15.651296000000002,1.5153638030405856,0.14280176262575955
15.653696,1.5786678942425576,0.15160452755858828
15.65608,1.6406234068620398,0.160151606473334
15.658460000000002,1.689684267129355,0.1689247822494853
15.660864,1.7289688369479324,0.16828411433541665
15.663252,1.7554513022129599,0.16865006767257443
15.665632,1.7701553762828324,0.16981653920911577
15.668036,1.7864894640467845,0.17068556598182227
15.670424,1.804453565504816,0.17130257636252583
15.672804,1.8282860954331073,0.17098324000471904
15.675208,1.8429486352483446,0.17083127775865042
15.677592,1.8501165246149816,0.1708678502396488
15.679972,1.853421877973514,0.170724497147479
15.682376,1.8525851560702222,0.17047781416191357
15.684764,1.8465335278605979,0.1706275561399602
15.687144,1.8443916574873207,0.17079359620190251
15.68954,1.8485809545773884,0.1707608016908411
15.691928,1.8581249276006488,0.17032622019835064
15.694312,1.8688323836091654,0.16992429382153032
15.696708,1.884475206670293,0.16918508857919684
15.699096,1.9030985178658597,0.16804658870289743
15.701476,1.9175778579417322,0.16721931877164112
15.703872,1.9320099761893614,0.1665813217848357
15.70626,1.953052801154056,0.16564875068960752
15.70864,1.97572563981283,0.16447800353312825
15.71104,1.998258708844744,0.16329115440126013
15.713424,2.022002482690157,0.16195682870762176
15.715804000000002,2.042720442430757,0.16076924700411274
15.7182,2.0579911784395475,0.15994147032238973
15.720588,2.066928851127124,0.1597629449535441
15.722984,2.078333259412072,0.15963128727413214
15.72538,2.0901569765776,0.15941043051539405
15.727768,2.102260232996849,0.15913230341030143
15.730148,2.117716064602874,0.1586118817894938
15.732544,2.131356786917585,0.1580460358907304
15.734932,2.14369425662018,0.15748242206797305
15.737312,2.1557521870690555,0.15701216844794053
15.739716,2.169904766062964,0.15657477548110557
15.7421,2.184476653937454,0.15606472819914943
15.74448,2.198676454759606,0.15552121351110357
15.746884,2.214226730022117,0.15487035048277886
15.749272,2.232897263045927,0.15391020619249354
15.751652,2.247843133830623,0.15311783948936833
15.754056000000002,2.2653029620409337,0.1522841695952877
15.75644,2.285788604356057,0.15142316227778446
15.75882,2.311349383350652,0.15031019542279422
15.761216,2.335047831225691,0.149260114487366
15.763604,2.354230220928698,0.1483679101617224
15.765984,2.373971689139146,0.1473809678901922
15.768388000000002,2.3898959473118637,0.14642125059704453
15.770776,2.40717067992494,0.14537631563304332
15.773156,2.4277507658965494,0.14425722957287063
15.775552,2.450705039666913,0.14310456526613152
15.77794,2.468444407130945,0.14225817434437643
15.78032,2.4841816738485587,0.14149156900349297
15.782724000000002,2.495402882394142,0.14088448528335326
15.785112000000002,2.4987554575809177,0.1406676144765428
15.787496,2.4940996297820264,0.14087010508072062
15.789888,2.4928889249685273,0.14095524345097585
15.792276,2.4891170409011707,0.14123220641988302
15.79466,2.484274221647176,0.14156680238452207
15.797056,2.4771497623930436,0.14204324551264033
15.799444,2.4717950864598506,0.14234745123681
15.801824,2.462762970115788,0.14266772899855804
15.80422,2.4533587667193877,0.14292354016478623
15.806604,2.440601988136212,0.14335937854636166
15.808988,2.4307784758592312,0.14367234257118647
15.811384,2.427752661754419,0.14370147404977807
15.813768,2.4245870780227468,0.1437511829708584
15.816164,2.4275675661571854,0.1435112697588676
15.818568,2.4251008305598134,0.14345330903907816
15.820956,2.420120137536828,0.14345191382881145
15.823336,2.4142082789540638,0.14348099918149584
15.825732000000002,2.4061545499980226,0.14362776102192568
15.828120000000002,2.4011738569750367,0.14363043858034172
15.8305,2.4023392358181614,0.1433368888964747
15.8329,2.4071367291017824,0.14279235968972107
15.835284,2.4126330705197043,0.14211165811085658
15.837664,2.4083984474592626,0.1418852473626644
15.840068,2.4050949899585987,0.14161934779248697
15.842456000000002,2.403514093950632,0.1412994342599333
15.844836,2.4030041331293037,0.14091565935902253
15.847232000000002,2.4012834674944763,0.14061740578955145
15.849620000000002,2.39807255779243,0.14045145167097595
15.852,2.3888553458511335,0.14059389186562776
15.854396,2.379777903536697,0.140713552131478
15.856788000000002,2.3736337275284556,0.14068377318604497
15.859168,2.3649283722663563,0.14083642326943832
15.861572,2.3543606858847004,0.1410650597938089
15.86396,2.3393694891296297,0.1415513786089796
15.86634,2.3281029546136733,0.141894094826184
15.868736000000002,2.315765484911078,0.1422989911895116
15.871124000000002,2.3024968496487035,0.142737385859157
15.873504,2.29509474699872,0.14291370109738843
15.875908,2.288204501027934,0.14311914971039513
15.878296,2.278892845430151,0.1434810403607001
15.880676,2.273305852071481,0.14369199881742797
15.883072000000002,2.2726542257654234,0.14368228483017667
15.885460000000002,2.2812217072585317,0.14321373594735462
15.88784,2.290999893565138,0.14266733314544863
15.890236000000002,2.2969136480057717,0.14228553987365988
15.892624,2.304689733565962,0.14184003058336994
15.895008,2.31297767580535,0.1414227218873857
15.897412,2.3171216469250444,0.14120375077209218
15.8998,2.3211258484178776,0.1409943231236204
15.90218,2.322196783604517,0.14092828569991137
15.90458,2.3172614165519048,0.14117991145349662
15.906964000000002,2.311814192820095,0.14139775911761945
15.909348,2.3090206961407596,0.14151941387612826
15.911744,2.3102314009542586,0.1414300893356457
15.914132000000002,2.307298134648063,0.14157887081159143
15.916512,2.308369069834702,0.1415140931503977
15.918908000000002,2.306506738715145,0.141597256748998
15.921296000000002,2.306926047595726,0.14152548446181587
15.92368,2.3056227949836092,0.14150827689757509
15.926076000000002,2.3052507079312723,0.1414519335210009
15.928464000000002,2.3027367505056575,0.14151785235550557
15.930844,2.3007346497592405,0.141611918825547
15.933248,2.29444880826627,0.14193363191706032
15.935636,2.286160866026882,0.14234684566163125
15.938020000000002,2.279875024533911,0.14267296466929513
15.940416,2.2697247511749663,0.14316303293028493
15.942804,2.2610647218832414,0.14352432232577564
15.945188000000002,2.260832404457764,0.14344660608260332
15.947584,2.267817094085036,0.14300456262735847
15.949972,2.2758727188989467,0.1424862348463012
15.952352,2.2860702140861346,0.14183744495082568
15.954748000000002,2.296127939646462,0.14121372698557233
15.957136000000002,2.3071168307665677,0.1405652547281536
15.95952,2.3159638515133962,0.14004459870933972
15.961924,2.329886008939697,0.13926445172492632
15.964312,2.3348685978205523,0.13890285161585675
15.966692000000002,2.342924222634463,0.1383705951476604
15.969096,2.3426919052089854,0.13829006649282177
15.971484,2.3435305229701466,0.13814664612720398
15.973864,2.345440075917946,0.1379443847369428
15.97626,2.34548729774619,0.1378174597635587
15.978648,2.3416700877084593,0.1378635004104127
15.981028000000002,2.339063582484228,0.13782601086333288
15.983424,2.3403215091259697,0.13761755152768207
15.985812,2.34265037095435,0.137350983364321
15.988192000000002,2.3487038950218437,0.13693876026473412
15.990588,2.3534069446489783,0.1366346935809172
15.992976,2.3546176494624773,0.1365549826480872
15.995356,2.356619750208894,0.13646850487250392
15.997752000000002,2.366350714687258,0.13609172088259597
16.000140000000002,2.375662370285042,0.13577758244870258
16.002536,2.384974025882825,0.13546344401480914
16.004932,2.3913524151744125,0.13526580183726916
16.00732,2.3998726748392776,0.13496761077169403
16.0097,2.4063908337577256,0.1347558974817022
16.012096,2.4198464604752026,0.13425024946297345
16.014484,2.4371665190586533,0.13361954611156207
16.016864,2.458630548761798,0.1327724749069749
16.01926,2.480094578464943,0.13193006254355003
16.021648,2.4954125363019766,0.13135249450640085
16.024028,2.5115218900719283,0.1307579706156238
16.026432,2.528841948655379,0.13008242574149784
16.02882,2.546953403171748,0.12940263331970117
16.031200000000002,2.5622713610087815,0.12883663824435324
16.033604,2.5765183836591765,0.12832875199671556
16.035992,2.5871805136973185,0.12792564564144107
16.038372,2.601055449295376,0.12737868623051368
16.040768,2.6158615504532126,0.12680215069412293
16.043156,2.622519478998521,0.12657038230891737
16.04554,2.6225194789985213,0.1265703823089174
16.047936,2.6240097230657407,0.12646148832400128
16.050324,2.623497866386543,0.12642974320526676
16.052708,2.622334383401287,0.1263864576453498
16.055104,2.617166698923198,0.12650322679966433
16.057492,2.613069949631747,0.12656860663545838
16.059872000000002,2.608973200340296,0.12663186748798025
16.062268,2.599009918436455,0.12690281978056003
16.064656,2.5911885069058913,0.12707279592081655
16.067036,2.584158491308245,0.1272329279265391
16.06944,2.5846250220170686,0.1270630733862419
16.071824,2.581366890486779,0.12700415266775628
16.074204,2.5781087589564895,0.12694478833682865
16.076608,2.5752699363067806,0.12682496668476728
16.078996,2.5714999480972938,0.12673235918806738
16.081376,2.569871830261084,0.1265456391565404
16.083772,2.574110245037264,0.12616261036049772
16.08616,2.5715509616412757,0.1260026454690051
16.088544,2.5684798215660902,0.12581092639629654
16.090948,2.5718342926107343,0.1253422363937144
16.093336,2.5761199292151575,0.12484596156490492
16.095716,2.578263695446304,0.1244427268080256
16.098112,2.584691202424004,0.12385721061863934
16.1005,2.594983141267678,0.12315012289742908
16.10288,2.609419051231046,0.12228098738482572
16.105276,2.621992630074857,0.1214670470870394
16.107664,2.6325641081722515,0.1207256903414079
16.110044000000002,2.6449979173892024,0.11992441258773387
16.11244,2.6535672947401796,0.11925063829854135
16.114828,2.661485045785099,0.11856889830808898
16.117212000000002,2.6611148545906316,0.11820461038240604
16.119608,2.667030504889134,0.11758604942278131
16.121992,2.6728063855607767,0.11698781381245221
16.124388,2.6775113310457805,0.11644046855816158
16.126784,2.6852893124638397,0.11578572211834301
16.129172,2.689342631642786,0.11523184852995731
16.131556,2.6821747422761497,0.11507866404753303
16.133952,2.6807336158950426,0.11475545617176998
16.13634,2.6811548206334925,0.11438575987079094
16.13872,2.678502989438887,0.11412817040994577
16.141116,2.6750597623113634,0.11387443947751402
16.143504,2.6728272399973387,0.1135577711801183
16.145888,2.665659350630702,0.1133968103655938
16.148292,2.6563495908907875,0.11331915247437868
16.15068,2.6450377304044563,0.11330265113696444
16.15306,2.638801006597598,0.11311542946820488
16.155456,2.6347061531640166,0.11284756481711447
16.157844,2.631682234917074,0.11254048110855992
16.160224,2.630520647789688,0.11218856581425855
16.162624,2.6313611614087185,0.11177943208720796
16.165012,2.638207977266999,0.11117892102766286
16.167392,2.643704318684921,0.11066539504983884
16.169788,2.6506909041700624,0.11006402201424063
16.172176,2.6564667848417045,0.10951815629791185
16.174556,2.6568879895801545,0.10916329063544905
16.176956,2.657960820624662,0.10882094388797318
16.179344,2.67239673058803,0.10804082951889302
16.181724,2.6831079783122846,0.10734699294876493
16.18412,2.6876731541704286,0.10684662220463283
16.186508,2.6939608915212694,0.10632349913707091
16.188892,2.6998293199915286,0.10585213805449596
16.191288,2.7046268132751496,0.10542022717728411
16.193676,2.710867328797747,0.10499337490993634
16.196072,2.716316448387426,0.10456795445586933
16.198468000000002,2.720834402417326,0.1041635604862917
16.200856,2.717995579767617,0.10402505357249378
16.203236,2.714877217864188,0.10392417169000985
16.205636000000002,2.708965359281424,0.10388557556490058
16.208024,2.704124435885298,0.103806337189977
16.210404,2.6977932684219534,0.10381948963724742
16.2128,2.694395367264803,0.10375375359114258
16.215188,2.687924430174598,0.10378157887015499
16.217568,2.6807546449500923,0.10389591344530469
16.219976,2.673305320471866,0.1040490277333159
16.222360000000002,2.6678580967400563,0.10415007445711998
16.224744,2.6624108730082465,0.10425265470421181
16.227140000000002,2.646813375917492,0.10465853064018213
16.229528000000002,2.6329384403194345,0.1050467147360462
16.231908,2.624278411027708,0.10526600098215513
16.234304,2.612545345802928,0.10558752539611302
16.236692,2.604536942817261,0.10582504098868185
16.239072,2.597180166137652,0.10608079355138215
16.241476,2.593036195017958,0.10621841835884221
16.243864000000002,2.5915459509507386,0.10631265576045043
16.246244,2.589915937256659,0.10642627229568771
16.24864,2.593500829868912,0.10636262422702471
16.251028,2.5952233913616087,0.1063401609246054
16.253408,2.600530845466558,0.10625445232276146
16.255812,2.6034168899445103,0.10628456735962409
16.2582,2.6022987329296283,0.10643600172442404
16.26058,2.595034504048636,0.10678645355080534
16.262976000000002,2.590563771846978,0.10707660679848915
16.265368,2.582228607779347,0.10747720253182043
16.267748,2.576966479644771,0.10777384189144297
16.270152,2.5727752866968343,0.10803140524086409
16.27254,2.573379691174649,0.10815888170019358
16.274924,2.582504355317329,0.10807534794465128
16.27732,2.5945622857662043,0.10791441897169499
16.279708,2.6041988065880823,0.10786971562435657
16.282088,2.623054435209126,0.10754090764658786
16.284484,2.6375337752849983,0.10727811401361441
16.286872,2.655365690547647,0.10689325806526598
16.289252,2.674128771370073,0.10650493909390998
16.291648000000002,2.6891671899533867,0.10619128556109103
16.294036000000002,2.708070040402673,0.10579197229865908
16.29642,2.7237600852920445,0.10550307280301921
16.298816,2.7413124613009723,0.10517789415163768
16.301204000000002,2.7550004054439263,0.10494153193400411
16.303588,2.7708302199601578,0.10463192301087826
16.305984,2.791083544849803,0.1041543880508211
16.308372000000002,2.8157603801128634,0.10351512853684522
16.310752,2.8376437186965893,0.10292566270046102
16.313148,2.862600093213369,0.1022270921400663
16.315536,2.8866253021703714,0.10156019474365298
16.31792,2.911581676687152,0.10087797984028647
16.320316000000002,2.9325338497110987,0.10032082659355501
16.322704,2.9478990293763756,0.0998842251197289
16.325084,2.95818907236218,0.09958880517175413
16.32748,2.9718316905347604,0.09917434530186273
16.329868,2.974392869788618,0.09905695972898977
16.332252,2.9816098768413672,0.09885613324611767
16.334648,2.9845431431475626,0.09879017599427989
16.337036,2.9816098768413672,0.09885613324611767
16.33942,2.9844033735207023,0.09880737458511019
16.341816,2.985194769453621,0.09880759774948575
16.344204,2.987988266132956,0.09876004465797387
16.3466,2.9938547987453465,0.0986370123968224
16.348996,3.003725532850571,0.0984213277370206
16.35138,3.0137360365826553,0.09819291725758163
16.35376,3.0236067706878784,0.09798414387417617
16.356164,3.031056095166105,0.0978689029511078
16.358552,3.047724527443498,0.0975438383374881
16.360932000000002,3.068397161213724,0.09714345842499028
16.363336,3.088557938304753,0.09671750371699897
16.365724,3.1089982546495016,0.09626854694877475
16.368104,3.1275762398746942,0.09583972032944499
16.3705,3.148156325846304,0.0953705894755542
16.372888,3.1708782821911905,0.09483767231322601
16.375268000000002,3.190247663349301,0.09440714984905865
16.377664,3.2125503108136066,0.09390542948125385
16.380052,3.2309885264119393,0.09348021085171213
16.382432,3.2494267420102716,0.09304870982941406
16.384828,3.272800324661216,0.09251374205573742
16.387216,3.2885848132070734,0.09210825091873272
16.389596,3.3025069706333747,0.09173081392360917
16.392,3.3134958617534798,0.09140835524891806
