Time,Force,Position
17.498783999999997,0.2581056080571511,0.0
17.501179999999998,0.24236834133953675,0.0
17.503567999999998,0.22742247055484047,0.0
17.505951999999997,0.2174119668227562,0.0
17.508347999999998,0.21061426865058755,0.0
17.51074,0.2028854049186406,0.0
17.513115999999997,0.19236304450735867,0.0
17.515524,0.1821202233497971,0.0
17.517912,0.16573133032612475,0.0
17.520291999999998,0.15749060991498007,0.0
17.522688,0.14817895431719685,0.0
17.525076,0.14007800353291236,0.0
17.527459999999998,0.1342586927487652,0.0
17.529856,0.1304414827110349,0.0
17.532244,0.12234053192675044,0.0
17.534623999999997,0.1118181715154685,0.0
17.53702,0.1039495381566613,0.0
17.539407999999998,0.0962206744247143,0.0
17.541787999999997,0.08725887068822857,0.0
17.544192,0.08325466919539488,0.0
17.54658,0.08043893732501993,0.0
17.548959999999997,0.07748343582778476,0.0
17.55136,0.07359676877077129,0.0
17.553748,0.0657059002209241,0.0
17.556127999999998,0.05567316129779986,0.0
17.558524,0.05101733349890827,0.0
17.560912,0.04636150570001666,0.0
17.563295999999998,0.0434282393938215,0.0
17.565692,0.04570987939395876,0.0
17.56808,0.0475722105135154,0.0
17.570463999999998,0.05157641200634912,0.0
17.57286,0.05357851275276596,0.0
17.575248,0.05530107424546238,0.0
17.577627999999997,0.05357851275276595,0.0
17.580023999999998,0.05385805200648637,0.0
17.582411999999998,0.05255479939437057,0.0
17.584791999999997,0.056326683461727,0.0
17.587191999999998,0.06582533051461358,0.0
17.589579999999998,0.07641714794517866,0.0
17.591959999999997,0.08698673018470375,0.0
17.594355999999998,0.0957162164957122,0.0
17.596743999999997,0.10230383243344357,0.0
17.599127999999997,0.1076807435576762,0.0
17.601523999999998,0.11398882024168719,0.0
17.603911999999998,0.11801525692556088,0.0
17.606291999999996,0.12066898397803563,0.0
17.608691999999998,0.12411410696342849,0.0
17.611079999999998,0.12276363252306954,0.0
17.613476,0.11831788695861521,0.0
17.615871999999996,0.11214957990146444,0.0
17.618259999999996,0.10491033765767517,0.0
17.620639999999998,0.09753132578702568,0.0
17.623036,0.09029208354323641,0.0
17.625424,0.08570656835192188,0.0
17.627807999999998,0.08112105316060735,0.0
17.630204,0.07839786908884945,0.0
17.632592,0.07167048352425785,0.0
17.634971999999998,0.06107866609369277,0.0
17.637372,0.050486848663127686,0.0
17.639756,0.039895031232562606,0.0
17.642139999999998,0.031165544921554163,0.0
17.644536,0.024577928983822783,0.0
17.646924,0.01920101785959014,0.0
17.649303999999997,0.012892941175579173,0.0
17.651708,0.008866504491705481,0.0
17.654096,0.00484006780783179,0.0
17.656475999999998,0.0009534007508183091,0.0
17.658875999999996,0.0,0.0
17.661264,0.0,0.0
17.663648,0.0,0.0
17.666043999999996,0.0,0.0
17.668432,0.0,0.0
17.670811999999998,0.0,0.0
17.673211999999996,0.0,0.0
17.6756,0.0,0.0
17.677979999999998,0.0,0.0
17.680379999999996,0.0,0.0
17.682767999999996,0.0,0.0
17.685147999999998,0.0,0.0
17.687551999999997,0.0,0.0
17.689939999999996,0.0,0.0
17.692324,0.0,0.0
17.694719999999997,0.0,0.0
17.697107999999997,0.0,0.0
17.699491999999996,0.0,0.0
17.701891999999997,0.0,0.0
17.704279999999997,0.0,0.0
17.706663999999996,0.0,0.0
17.709059999999997,0.0,0.0
17.711447999999997,0.0006738614970978889,0.0
17.713831999999996,0.0006738614970978888,0.0
17.716236,0.0006738614970978888,0.0
17.718619999999998,0.0006738614970978889,0.0
17.721003999999997,0.0006738614970978889,0.0
17.723404,0.0006738614970978889,0.0
17.725792,0.0006738614970978889,0.0
17.728171999999997,0.0028379670614149385,0.0
17.730567999999998,0.0037913678122332476,0.0
17.732955999999998,0.008469430802164838,0.0
17.735335999999997,0.014078659351874748,0.0
17.73774,0.018477183088085915,0.0
17.740123999999998,0.022084310891378977,0.0
17.742503999999997,0.02983540981436595,0.0
17.744899999999998,0.03744673911049271,0.0
17.747287999999998,0.045058068406619474,0.0
17.749667999999996,0.050667296956329384,0.0
17.752063999999997,0.05520559031940077,0.0
17.754451999999997,0.057741782936055294,0.0
17.756832,0.06120914111248814,0.0
17.759235999999998,0.06507357297846163,0.0
17.761623999999998,0.07040326227445111,0.0
17.764003999999996,0.07787482194371767,0.0
17.766399999999997,0.08655708642648295,0.0
17.768787999999997,0.09938332202894216,0.0
17.771167999999996,0.11020745688498451,0.0
17.773571999999998,0.11902949099461001,0.0
17.775959999999998,0.12582718916677868,0.0
17.778339999999996,0.13504629696594483,0.0
17.780744,0.14082028177971812,0.0
17.783132,0.14552333140685286,0.0
17.785511999999997,0.1525080210341249,0.0
17.787907999999998,0.1633571425273704,0.0
17.790295999999998,0.16726879622158705,0.0
17.792675999999997,0.1713202195426639,0.0
17.795071999999998,0.17444047730396245,0.0
17.797459999999997,0.1815649365580947,0.0
17.799839999999996,0.18868939581222693,0.0
17.802235999999997,0.1975364165590556,0.0
17.804623999999997,0.20545227174610595,0.0
17.807004,0.21122625655987923,0.0
17.809399999999997,0.21434651432117774,0.0
17.811787999999996,0.2101099954028668,0.0
17.814168,0.2063853331637535,0.0
17.816563999999996,0.19451249831211262,0.0
17.818951999999996,0.18785456976680417,0.0
17.821343999999996,0.18226757640813424,0.0
17.823748,0.1734677774895487,0.0
17.826135999999998,0.16329526893956423,0.0
17.828515999999997,0.15284322113585935,0.0
17.830911999999998,0.1425309429590147,0.0
17.833295999999997,0.13114772959553148,0.0
17.835679999999996,0.11669148029899294,0.0
17.838075999999997,0.10502872768178934,0.0
17.840463999999997,0.09336597506458572,0.0
17.842847999999996,0.08263438800716043,0.0
17.845243999999997,0.06990070020331829,0.0
17.847631999999997,0.05823794758611467,0.0
17.850011999999996,0.04685473422263148,0.0
17.852411999999998,0.03547152085914827,0.0
17.854799999999997,0.02515924268230361,0.0
17.857179999999996,0.016709295625015583,0.0
17.859575999999997,0.01414811637115789,0.0
17.861963999999997,0.009190514127505878,0.0
17.864344,0.008237113376687569,0.0
17.866743999999997,0.004070907065953668,0.0
17.869131999999997,0.0008358663149980876,0.0
17.871512,0.0006738614970978889,0.0
17.873911999999997,0.0006738614970978889,0.0
17.876299999999997,0.0006738614970978889,0.0
17.87868,0.0006738614970978889,0.0
17.881075999999997,0.0006738614970978889,0.0
17.883463999999996,0.0006738614970978889,0.0
17.885848,0.0006738614970978889,0.0
17.888243999999997,0.0006738614970978889,0.0
17.890631999999997,0.0006738614970978889,0.0
17.893012,0.0006738614970978889,0.0
17.895415999999997,0.000673861497097889,0.0
17.897803999999997,0.000673861497097889,0.0
17.900183999999996,0.000673861497097889,0.0
17.902587999999998,0.000673861497097889,0.0
17.904975999999998,0.000673861497097889,0.0
17.907355999999996,0.0,0.0
17.909751999999997,0.0,0.0
17.912139999999997,0.0,0.0
17.914523999999997,0.0,0.0
17.916928,0.0,0.0
17.919316,0.0,0.0
17.921695999999997,0.0,0.0
17.924091999999998,0.0,0.0
17.926479999999998,0.0,0.0
17.928855999999996,0.0,0.0
17.931264,0.0,0.0
17.933647999999998,0.0,0.0
17.936031999999997,0.0,0.0
17.938435999999996,0.006950223700723617,0.0
17.940824,0.024326468298373625,0.0
17.943203999999998,0.05301267752448522,0.0
17.9456,0.09375302548373335,0.0
17.947988,0.1533452103482867,0.011383071360252486
17.950371999999998,0.23113760581208725,0.021793779689578054
17.952768,0.321310901090988,0.03196565358992096
17.955156,0.4227941609983503,0.04205662389095127
17.957535999999998,0.5354476159073139,0.052110522734655426
17.959936,0.6636475543630501,0.06190561820661464
17.96232,0.8039016315519228,0.07174989113264728
17.964703999999998,0.9617042930339849,0.08129713739074247
17.9671,1.1321673935848675,0.09074505252891346
17.969488,1.3172930339509872,0.10002101344676123
17.971867999999997,1.516522135624904,0.10921018464353524
17.974272,1.7314374904724532,0.11829360176568832
17.97666,1.9606886240532764,0.12735124264691816
17.979039999999998,2.214799792636524,0.13593431837070075
17.981436,2.4830635402136814,0.14428252259932287
17.983824,2.75952078637374,0.15251352410578553
17.986203999999997,3.032146170736504,0.16075988254595258
17.988599999999998,3.300816471292547,0.168923957603316
17.990987999999998,3.5619940172578586,0.17705440703577802
17.993367999999997,3.8120958118780552,0.18511638060790875
17.995763999999998,4.03794576768938,0.18184514987728545
17.998151999999997,4.236051539878198,0.17970689529433523
18.000535999999997,4.421496872998194,0.17782826432315987
18.002931999999998,4.597215033355565,0.1760116225323038
18.005319999999998,4.765208121696729,0.17417448248004702
18.007716,4.915932164998422,0.17262475289114265
18.010111999999996,5.053857895462304,0.17098270965697684
18.0125,5.169067357154908,0.16972509774374744
18.014884,5.268124034965055,0.16868107514416983
18.01728,5.352470951131721,0.16786315241031416
18.019672,5.428301399349261,0.16700892927486263
18.022056,5.48751442883339,0.16628062680502592
18.024452,5.53043680066607,0.16557583019083652
18.02684,5.543191683391378,0.1654487105294479
18.02922,5.539512347122638,0.1656318772378205
18.031616,5.528802995256255,0.1659438493358859
18.034008,5.518280634844972,0.16618776301982707
18.036388,5.503429207716762,0.16645077122901714
18.038784,5.48774105868526,0.1666222279876445
18.041172,5.471074522265736,0.16686216060660314
18.043556,5.461530549242475,0.16702277372334925
18.045952,5.465347759280205,0.16698644910577534
18.048336,5.473960566743688,0.1668437669196285
18.05072,5.478988481594916,0.16676804867876
18.053116,5.481409891221914,0.1666893926653441
18.0555,5.486112940849049,0.1665419900175593
18.057884,5.493142956446694,0.16642042395802065
18.06028,5.5086460098809615,0.16616760318950863
18.062664,5.537092833353508,0.16561480464740833
18.065048,5.5687996842142145,0.16492933181916927
18.067444,5.590543253171079,0.16443242238239575
18.069828,5.6114954261950265,0.16394017630339666
18.072228,5.635054104443205,0.16345198174847514
18.074628,5.664292323848671,0.16288141629540756
18.077016,5.700468011053166,0.16215049081352104
18.079396,5.735899524152984,0.161380082564746
18.0818,5.768864301655433,0.1606068478428902
18.084188,5.795171150612574,0.15997067368083048
18.086568,5.816495410688858,0.15950313152775378
18.088972,5.839402462630977,0.15902038554534223
18.09136,5.862728823453679,0.15851462613850753
18.09374,5.883867987932727,0.15798213641687375
18.096144,5.899187841627632,0.1575310054648213
18.098532,5.919070975322809,0.15695305570215198
18.100912,5.938906887189745,0.15642871595220464
18.103316,5.962560009094409,0.1558835365201267
18.105704,5.986772209506514,0.15530676381955402
18.108084,6.009309070254167,0.15471423060363582
18.11048,6.019228922045503,0.15433274690797888
18.112868,6.024632715664808,0.15402468395739105
18.115252,6.036694437829421,0.15359386876828218
18.117648,6.055274318912482,0.15305512147329023
18.120036,6.077486314436039,0.15242250916633002
18.122416,6.100304610295282,0.151709465388549
18.124816,6.117163825743516,0.15107521662136397
18.127204,6.1340230411917505,0.15044328198425458
18.129584,6.150183408505685,0.14985836828506857
18.131988,6.173234021790405,0.14918364808564677
18.134376,6.198286735821541,0.14846547295270615
18.136756,6.2207329446284465,0.1477392384708146
18.139152,6.2371728511960995,0.14712942038567145
18.14154,6.251982744069675,0.1465826572329013
18.14392,6.2670249543687255,0.14606280052347384
18.146316,6.281088777279756,0.1456107053273229
18.148704,6.297294470564063,0.14511525191783514
18.151084,6.306098061198387,0.1446936326465083
18.153488,6.306241622540986,0.14442056587996338
18.155876,6.305546566122423,0.14420137191138466
18.158256,6.308017093435534,0.14395684800240532
18.160652,6.313373665226596,0.14370604378329746
18.16304,6.314306726644244,0.14355900772468144
18.165424,6.309280707650884,0.14348029133418636
18.16782,6.2982483864182734,0.14351420539042334
18.170208,6.287820469663478,0.14359608497015836
18.172588,6.278416266267077,0.14370178174276374
18.174992,6.269384149923015,0.14382717645258286
18.177376,6.262865991004567,0.14392618634029533
18.179756,6.2556036579814425,0.1439833654504207
18.182156,6.246618763465623,0.1440603858323062
18.18454,6.241311309360672,0.14412667691557476
18.18692,6.243732718987671,0.14406474839140282
18.189316,6.24657343749525,0.143977385144275
18.191704,6.250764630443187,0.1438504057604763
18.194084,6.2531407140998105,0.1437057479155269
18.196484,6.249138408464847,0.14364894847768267
18.198872,6.24960493917367,0.14357740552501647
18.201256,6.263247557346252,0.1433038531534439
18.203652,6.2745159877200765,0.1430457658325236
18.20604,6.283782317347485,0.14282269277927095
18.208424,6.292024933616499,0.142577434891784
18.21082,6.30254918988565,0.14227731286513073
18.213208,6.313026224326558,0.1420220913737968
18.215592,6.326017216193081,0.14174135206249996
18.217988,6.3387758906341265,0.14143396781813763
18.220376,6.351302247649694,0.14109705865723343
18.222756,6.36625001429226,0.1407020951514707
18.225152,6.376030096456736,0.14036428952029095
18.22754,6.385390869740632,0.14005471224439958
18.22992,6.397684909330723,0.13969597731672118
18.232316,6.407884300375779,0.1393383891649374
18.234704,6.413847172502525,0.13902489718603028
18.237084,6.415386534255855,0.13880445489745302
18.23948,6.416786126382329,0.1385926054719344
18.241868,6.419349201494056,0.13839655942327297
18.244252,6.426288565150954,0.13815010230302055
18.246648,6.433414920262956,0.13785171718808548
18.249036,6.4315091590308935,0.13766883888494036
18.251416,6.431325959291529,0.13746797191378696
18.253812,6.435566269925578,0.1371741884160049
18.2562,6.437385170932629,0.13693890637406034
18.25858,6.443208273432515,0.13663811746865434
18.260984,6.452663490372897,0.13625092454639393
18.263372,6.461886389887803,0.13583671992455879
18.265756,6.464823447909736,0.1355370221426817
18.268152,6.470134693730423,0.13522491246932025
18.27054,6.469579406938721,0.13500507297849157
18.272924,6.4706069120128555,0.13477524901014132
18.27532,6.469492546713711,0.13458731495590265
18.277708,6.469309346974346,0.13438776077846104
18.280088,6.466425198354263,0.1342619888052572
18.282484,6.46284220159988,0.1341770631935756
18.284872,6.46354294559205,0.134008031790776
18.287256,6.467456495144136,0.13377780705384812
18.289652,6.469647483203525,0.1335644547354211
18.29204,6.474120111263052,0.13330364387332944
18.294424,6.47682295600164,0.1331046917468899
18.29682,6.483762319658537,0.132868956160708
18.299208,6.492703784061853,0.13260226572682224
18.301604,6.500155004397949,0.1323819505262781
18.304,6.511470656600018,0.13210600879784903
18.306388,6.515848841003058,0.13193825588239763
18.308772,6.515663745405825,0.1318659368381291
18.311168,6.511706765741234,0.1318852895855299
18.313556,6.514827023502534,0.13178858271415358
18.315936,6.51915798607733,0.13166514975378812
18.318332,6.526002906077741,0.13152129382680786
18.32072,6.5339187612647915,0.1313572315014564
18.323104,6.5449076523848975,0.1311421054447523
18.3255,6.55789864425142,0.13089969685328415
18.327888,6.575173376864496,0.13057903489439948
18.330268,6.598733950970544,0.13015395106202357
18.332664,6.626950352875483,0.1296788625190567
18.335052,6.648741143660591,0.1293189341776866
18.337436,6.6741168270579525,0.12892415130947738
18.339832,6.696279704895398,0.12858963534130768
18.34222,6.71564908605351,0.12828541105234978
18.344604,6.734366840905562,0.12797956214937062
18.347,6.748800855011062,0.12774860432590177
18.349388,6.761512307623864,0.12753213599288463
18.351768,6.774503299490386,0.12730314026688214
18.354164,6.7953629247157155,0.12696706715934108
18.356552,6.823299787366934,0.12652833018495846
18.358936,6.8593848226306795,0.12596812387996517
18.361332,6.894538692334646,0.12542443069233156
18.36372,6.924896964612863,0.12494329928789757
18.366104,6.954603610585021,0.12445652441183562
18.3685,6.988174688423154,0.12392658795259377
18.370888,7.018812499955091,0.12343751736094936
18.373272,7.0453063403673335,0.12301666580729884
18.375668,7.070729245592937,0.12261701241444244
18.378056,7.085862107832738,0.12236844915721914
18.38044,7.095268207087007,0.12218868297598887
18.382836,7.112031083020887,0.12189788791299191
18.385224,7.127490706342651,0.12160092995178337
18.38762,7.143229868918134,0.12129005113321177
18.390016,7.168188139292783,0.12085374085802163
18.392408,7.191935704853934,0.12044268163036637
18.394788,7.219315384855582,0.1199602738342919
18.397184,7.250559496723203,0.11943626667274614
18.399572,7.27765963747113,0.11897218972100397
18.401956,7.295820209673611,0.11862161425256453
18.404352,7.310116350010119,0.11831919548261124
18.40674,7.319105036241677,0.11805988403360544
18.409124,7.327953952846374,0.1178087500248782
18.41152,7.3383856613169085,0.11755282094042507
18.413908,7.352542032026556,0.11726276836445736
18.416288,7.360831870123814,0.11704047457663865
18.418688,7.370844269713768,0.11680766897493619
18.421072,7.3792738774378845,0.1165780928167076
18.423456,7.386912089229083,0.11635112925890188
18.425852,7.400975912140115,0.11602834387293828
18.42824,7.418112770984201,0.11566686398836898
18.430624,7.4300347235219535,0.11537889077252589
18.43302,7.438604100872931,0.11514430352760502
18.435408,7.443960672663993,0.1149552634531971
18.437792,7.4422400070291665,0.1148549062929508
18.440188,7.440007484715141,0.11474252506305994
18.442576,7.435213783147258,0.11468103267080604
18.44496,7.426415880086541,0.1146666295284046
18.447356,7.4226931137052965,0.1145899523805751
18.449744,7.4251164191901635,0.1144358825280978
18.452128,7.42209250094322,0.11432477665798366
18.454524,7.421582540121892,0.11420228474903935
18.456912,7.423214449673839,0.11405058361646318
18.459292,7.426616142546727,0.11385087828245774
18.461692,7.426432942807362,0.11367759790852977
18.46408,7.430673253441412,0.11343900922433801
18.46646,7.433470541836486,0.11319670359465006
18.46886,7.436919456537618,0.11295886156998777
18.471244,7.441299536798528,0.11271366614766477
18.473628,7.446331243365496,0.11247521673455992
18.476024,7.4492210795591856,0.11226662720754983
18.478412,7.452390455006597,0.11204437153002617
18.480796,7.459424262319981,0.1117842872139207
18.483192,7.471672975939698,0.11145842944357863
18.485584,7.482990523999637,0.11113918179168934
18.487964,7.494819928738772,0.1108319582094446
18.490364,7.509070743104906,0.11048282366152383
18.492752,7.527605298217594,0.1100780753599456
18.495136,7.537991680717754,0.10976770177828685
18.497532,7.546096423217778,0.10949398979839499
18.49992,7.558577454262973,0.10919267310384158
18.502304,7.569196154188609,0.10890847883495144
18.5047,7.574879487061635,0.10867682210779418
18.507088,7.579072575867441,0.10847990509004506
18.509472,7.586198930979442,0.10825454385355485
18.511868,7.590624337210727,0.10808426087207401
18.514256,7.599565801614042,0.1078848445601074
18.51664,7.61251146751019,0.10764423736083283
18.519036,7.6251775941526185,0.10741762875871892
18.521424,7.640265130422043,0.10715462423388464
18.523808,7.657075228184165,0.1068849554804125
18.526204,7.680403484864734,0.10656987085692347
18.528592,7.703080115239247,0.10625183679477165
18.530976,7.722404170426985,0.1059802789178465
18.533376,7.744521722294056,0.10568819660215735
18.53576,7.770643475653961,0.1053593370786793
18.53814,7.7963459201332865,0.10505105816632139
18.540532,7.816693688679417,0.1048081659929809
18.542916,7.843978925024579,0.10449824306583848
18.545296,7.868610434317266,0.10420077182342974
18.547692,7.896454749169867,0.10386714850990908
18.550076,7.920806719208834,0.10358261404463331
18.552456,7.944739380367219,0.10331440543125867
18.554852,7.967461336712105,0.10306499914771905
18.557236,7.986970487497076,0.10285577338664337
18.559616,8.007830112722406,0.10262172048420878
18.562012,8.020681334962068,0.1024663946076734
18.5644,8.030459521268675,0.1023445665699465
18.56678,8.03651304533617,0.10224900504019184
18.569196,8.035209792724054,0.10223746119257067
18.57158,8.030321647499685,0.10224618693261836
18.57396,8.015702537796953,0.10233912590353088
18.576356,8.00094365846736,0.10243710383496575
18.57874,7.9903287502574605,0.10249019116959908
18.58112,7.983718043540394,0.10250450366593694
18.583516,7.972311739397578,0.10255588126176987
18.585904,7.961324744135341,0.10258861475501335
