Time,Force,Position
19.943068,0.020317463697883953,0.0
19.945472,0.027603927769916384,0.0
19.947856,0.03475062221508861,0.0
19.95024,0.042828482220039155,0.0
19.952636,0.0509063422249897,0.0
19.955024,0.05912397185680045,0.0
19.957408,0.06347716962263772,0.0
19.959804,0.06904107220197371,0.0
19.962188,0.07060077328847601,0.0
19.964568,0.0718809351212579,0.0
19.966968,0.0718809351212579,0.0
19.969352,0.0718809351212579,0.0
19.971736,0.07092753437043958,0.0
19.974132,0.06769249361948401,0.0
19.97652,0.064177913614808,0.0
19.978912,0.06266543435654887,0.0
19.981316,0.06208412065806804,0.0
19.983704,0.06043187177294868,0.0
19.986084,0.058639853260969106,0.0
19.98848,0.05470596437571248,0.0
19.990868,0.05156347142337396,0.0
19.993252,0.044277007351341525,0.0
19.995648,0.0371303129061693,0.0
19.998036,0.029052452901218752,0.0
20.000416,0.020974592896268206,0.0
20.002816,0.012756963264457447,0.0
20.005204,0.008403765498620184,0.0
20.007584,0.00342117661776501,0.0
20.009988,0.006446990722577242,0.0
20.012376,0.010683509640888213,0.0
20.014756,0.016060420765120854,0.0
20.01716,0.019435231142936646,0.0
20.019548,0.0256035382000874,0.0
20.021928,0.03270301081701647,0.0
20.024324,0.041944353807222605,0.0
20.026712,0.04639009937167692,0.0
20.029096,0.05362934161546622,0.0
20.031492,0.06072881423239528,0.0
20.03388,0.0658261861029075,0.0
20.03626,0.0739965939064751,0.0
20.03866,0.08430887208331977,0.0
20.041044,0.09448138063330423,0.0
20.043428,0.10479365881014889,0.0
20.045824,0.11096196586729963,0.0
20.048212,0.11605933773781185,0.0
20.050592,0.12129647923518429,0.0
20.052992,0.12667339035941694,0.0
20.055376,0.12653362073255672,0.0
20.05776,0.12194810554124218,0.0
20.060156,0.11643142479014933,0.0
20.062544,0.11105451366591669,0.0
20.064924,0.10868032586716236,0.0
20.06732,0.10251201881001161,0.0
20.069708,0.09541254619308254,0.0
20.072088,0.0861712032028764,0.0
20.074492,0.08172545763842208,0.0
20.07688,0.07448621539463281,0.0
20.07926,0.06838736535676519,0.0
20.081656,0.06328999348625299,0.0
20.084044,0.05511958568268537,0.0
20.086424,0.04480730750584071,0.0
20.08882,0.03463479895585625,0.0
20.091208,0.02432252077901159,0.0
20.093604,0.018154213721860837,0.0
20.096,0.013056841851348613,0.0
20.098388,0.007819700353976182,0.0
20.100768,0.00244278922974354,0.0
20.103172,0.0020012451581229206,0.0
20.10556,0.0020012451581229206,0.0
20.10794,0.0020012451581229206,0.0
20.110336,0.0020012451581229206,0.0
20.112724,0.0010006225790614603,0.0
20.115104,0.0010006225790614605,0.0
20.1175,0.0010006225790614605,0.0
20.119888,0.0010006225790614605,0.0
20.122268,0.0010006225790614605,0.0
20.124672,0.0010006225790614605,0.0
20.12706,0.0,0.0
20.129444,0.0,0.0
20.13184,0.0,0.0
20.134228,0.0,0.0
20.136608,0.0,0.0
20.139012,0.0,0.0
20.141396,0.0,0.0
20.143776,0.0,0.0
20.146176,0.0,0.0
20.14856,0.0,0.0
20.150944,0.0,0.0
20.15334,0.0,0.0
20.155728,0.0,0.0
20.158108,0.0,0.0
20.160512,0.0,0.0
20.1629,0.0,0.0
20.16528,0.0,0.0
20.16768,0.0,0.0
20.170068,0.0,0.0
20.172448,0.0,0.0
20.174844,0.0,0.0
20.177232,0.0,0.0
20.179612,0.0,0.0
20.182008,0.0,0.0
20.184396,0.0,0.0
20.186776,0.0,0.0
20.189172,0.0,0.0
20.19156,0.0,0.0
20.193944,0.0,0.0
20.19634,0.0,0.0
20.198724,0.0,0.0
20.201124,0.0,0.0
20.20352,0.0,0.0
20.205904,0.00481214504318504,0.0
20.208288,0.013673817549577692,0.0
20.210684,0.02858711826559482,0.0
20.213072,0.04661878088504122,0.0
20.215452,0.06991067578119398,0.0
20.217848,0.09646070220763626,0.0
20.220236,0.12733979535100654,0.0
20.222616,0.16040608483802782,0.0
20.22502,0.1995240025346735,0.0
20.227408,0.23882701582855337,0.0
20.229788,0.285112822891836,0.009638646079298305
20.232192,0.33665886223182506,0.018895258946777273
20.23458,0.39239419866188185,0.028003065689506494
20.23696,0.45324999774178476,0.03688216356694865
20.239356,0.5162929931653387,0.04589303426965577
20.241744,0.5810113282533458,0.05498537056639068
20.244128,0.6496866430059436,0.06384079850988046
20.246524,0.7200845192512376,0.07256725451174649
20.248912,0.7942070577356451,0.08097570771242829
20.251292,0.868469365846913,0.08934532625135924
20.253692,0.9363367370491592,0.0977887481227751
20.256076,1.0012255159748364,0.10611667129429542
20.25846,1.0602024363177498,0.11440571657476273
20.260856,1.1200651962500672,0.12233945410921869
20.263244,1.172386083905541,0.13052132542323985
20.265624,1.2225197752173638,0.1385957687485681
20.26802,1.2704662701855358,0.14646411328431297
20.270408,1.3152944032502785,0.15439785081876894
20.272792,1.3532795121724785,0.1623618989765488
20.275188,1.3902881295645262,0.17035688643518979
20.277576,1.4184516220676144,0.16885323384365766
20.279972,1.4413548822939963,0.16773161446394486
20.282368,1.4632816509902264,0.16644251666704757
20.284756,1.4820900577830267,0.16522024091332016
20.28714,1.501644534538371,0.16365469362346757
20.289536,1.5184527364426246,0.16209905200068733
20.291924,1.5303727931225088,0.16083968850461788
20.294304,1.5416412234963346,0.1596161053183822
20.296704,1.5481140564444091,0.15880371656512068
20.299088,1.5544471197656236,0.15803016247361007
20.301468,1.5632941405124523,0.15712343527614892
20.303876,1.5712099956995025,0.1562983849202589
20.306264,1.5788463116328326,0.1555460343137463
20.308644,1.5807558645806323,0.15523429737433092
20.31104,1.586157762342068,0.15454590153252004
20.313428,1.5892780201033665,0.15409345880223235
20.315808,1.5879747674912508,0.1540799614847779
20.318208,1.5865317452522745,0.1541042446346162
20.320596,1.5878822196926332,0.15393027690246913
20.322976,1.5938885219318837,0.15344741082469712
20.325376,1.603899025663968,0.15264644882180814
20.32776,1.612978363836274,0.15190051244949154
20.330144,1.6167030260753872,0.15165243620392688
20.33254,1.6164234868216667,0.1517224471150897
20.334924,1.6112085805153344,0.15216823974003427
20.337304,1.6081355445822791,0.15242162549171234
20.3397,1.6078560053285589,0.15249061324339905
20.342088,1.604503430141783,0.1528135428376965
20.344484,1.6022217901416458,0.153043280800204
20.34688,1.5991487542085903,0.15330206357107412
20.349268,1.594073617529118,0.1537233895814137
20.351648,1.5875082367824265,0.15436016287680746
20.354044,1.580011690475957,0.15507378239623867
20.356432,1.5748893319682415,0.15570576852230955
20.358816,1.5694874342068057,0.15639416436412043
20.361212,1.5674381116321456,0.1567421383733293
20.3636,1.5699520690577602,0.1566218130068282
20.36598,1.574607896856652,0.1563026519816565
20.368376,1.5800551205884616,0.1559769370803667
20.370764,1.5785648765212423,0.15617237423776498
20.373148,1.577726258760081,0.156368528842113
20.375552,1.5778188065586982,0.15650965781588863
20.37794,1.5788425199170932,0.1565942106149177
20.38032,1.5818683340219057,0.15652256307933657
20.382716,1.588898349619552,0.15613773062962658
20.385104,1.5948574300305594,0.15585393379208284
20.387488,1.5960209130158147,0.15590414692370155
20.389884,1.6010488278670438,0.15567479271019305
20.392272,1.6062165123451333,0.15541225197307726
20.394652,1.6149690894354758,0.15495342196193743
20.397048,1.6269344720857337,0.15422411136278286
20.399436,1.6443943002960446,0.15303066083545436
20.401816,1.6632046029467145,0.15166881788391762
20.404212,1.6833653800377428,0.15018696038661128
20.4066,1.7016638260092147,0.14882058895603845
20.408984,1.71768063198055,0.1476944949936995
20.41138,1.7303448627651088,0.14687726303761597
20.413768,1.7428693239228077,0.14611074951017985
20.416164,1.748875626162058,0.14570409095525508
20.41856,1.7591656691478628,0.14494746292772276
20.420948,1.7617268484017206,0.14467636663609962
20.423328,1.7644277972824383,0.14437372217272743
20.425728,1.7723436524694889,0.143686729606026
20.428112,1.7802595076565393,0.14299973703932456
20.430496,1.7841711613507558,0.14258838132084334
20.432892,1.789293519858471,0.1420678582509912
20.43528,1.79828031023216,0.141291132238834
20.437664,1.806615474299791,0.14052867181905773
20.44006,1.8138797031807832,0.13984491627798368
20.442448,1.8155569387031056,0.13947074320216873
20.444828,1.8150923038521514,0.13926387724836467
20.447224,1.808481597135086,0.13947101125566064
20.449612,1.799309711164163,0.13993883122523346
20.451996,1.7914882996335992,0.14023802291094237
20.454396,1.7844582840359533,0.14052488702496832
20.45678,1.7786389732518058,0.1407028505143934
20.45916,1.7736110584005769,0.14086877273756562
20.461564,1.769514309109126,0.14098218712411612
20.463952,1.7700733876165669,0.14086301947326643
20.466332,1.7692819916836489,0.14088028189512639
20.468736,1.7752882939228996,0.1404970621917666
20.471124,1.782877388027986,0.1400850204493619
20.473504,1.783389244707184,0.14012676920192987
20.4759,1.78511180619988,0.14006344989455613
20.478288,1.7908385691854103,0.13975572550348925
20.480668,1.7929332177304442,0.1397623800990873
20.483068,1.7962385710889772,0.1396677214224293
20.485456,1.792978543700818,0.14006244373092594
20.487836,1.7923722433651341,0.140342008513096
20.490232,1.7962820012014817,0.14041220782192992
20.49262,1.7999122197841086,0.14054136951867238
20.495,1.8066154742997909,0.14046204917500385
20.497396,1.8176024695620272,0.14005927095832618
20.499784,1.8178801129578785,0.14046583329852405
20.502164,1.815504029301255,0.1410092772369603
20.504568,1.8109860752713545,0.14172509652731693
20.506956,1.8070271997488945,0.14231288742763712
20.509336,1.801205993106878,0.14299812992859837
20.51174,1.7933826857184445,0.14382365522566087
20.514128,1.7870496223972305,0.1444602486167144
20.516508,1.7789939975833202,0.1451562215063364
20.518912,1.770426516090212,0.14579127047522839
20.521296,1.7701469768364915,0.1458506459646953
20.52368,1.7685169631424122,0.14604491493289945
20.526076,1.7628827479554992,0.14648642153949815
20.528464,1.7636741438884174,0.1464691951263507
20.530848,1.762183899821198,0.14662958412838312
20.533244,1.769261137247087,0.14618596213625676
20.535628,1.7736846476205015,0.14585517871737916
20.538012,1.7763855965012194,0.14559142277224
20.540416,1.7776435231429613,0.14532888818601103
20.542804,1.774617709038149,0.14537272724167416
20.545184,1.7726628301199752,0.1453365041426357
20.54758,1.7811377638144663,0.14458822280601658
20.549968,1.7964103956811261,0.14345721775383408
20.552348,1.8116830275477862,0.1422997291418694
20.554744,1.8226719186678917,0.14142889304067877
20.557132,1.8297963779220239,0.1407678317066435
20.559516,1.8389229379225729,0.13996691282173881
20.561912,1.8454883186692645,0.13943144367272015
20.5643,1.851913929789096,0.13892891786348566
20.566684,1.8549869657221514,0.1387070790962851
20.569088,1.8499118290426793,0.13905614006096742
20.571476,1.8429743612436502,0.13952025914035399
20.57386,1.8389701597508163,0.1397978326433034
20.576256,1.8300305912053705,0.14038590561542783
20.578644,1.8173663604208117,0.14122127697027495
20.581028,1.803491424822754,0.14211730698600428
20.58342,1.7896164892246962,0.14303110597168228
20.585808,1.77481038806686,0.14400729694915998
20.588188,1.7625182443346383,0.14489555995835596
20.590592,1.7547893806026915,0.14539088497763053
20.592976,1.743196085004771,0.14611245474104728
20.595356,1.7296006886604338,0.1469285436090342
20.597752,1.7118613211964027,0.14799311529163828
20.60014,1.697334759292287,0.14881192258496556
20.60252,1.690816600373839,0.14913730526403773
20.604916,1.6910961396275592,0.1490782940896098
20.607304,1.6885821822019447,0.14916107559799527
20.6097,1.688349864776467,0.1490599513559604
20.612096,1.6913303529109058,0.14873630401068477
20.61448,1.6955215458588426,0.14829697871370578
20.61686,1.701435300299476,0.14777088088295873
20.619256,1.7104220906731649,0.1470257452828555
20.621644,1.717546549927297,0.14638255123338947
20.624024,1.7257419443680677,0.14565327733722053
20.626428,1.7425973681005638,0.14440592960237855
20.628816,1.7554485903402262,0.14342762813473073
20.631196,1.771512618139804,0.1422234668623316
20.6336,1.7885078114991602,0.14095691359813273
20.635988,1.8039202129926808,0.13973094733907043
20.638368,1.8179821400458418,0.13866854200879253
20.640772,1.8336268589648392,0.13756760755797925
20.64316,1.846338311577641,0.1366410923765977
20.64554,1.8583981378843852,0.13569467371131838
20.647944,1.8676644675117948,0.13491443421949592
20.650332,1.8729265956463703,0.13440762723364852
20.652712,1.8763263926613891,0.1340059922367418
20.655116,1.8848013263558803,0.13331015128748183
20.657504,1.892205324863733,0.13269204464473874
20.659884,1.894394417065253,0.132400466519601
20.66228,1.8995167755729685,0.13196116802129212
20.664668,1.9090626444540981,0.1312324455908403
20.667048,1.916606412588811,0.1306129363106552
20.669444,1.929225317402996,0.1297383835895275
20.671832,1.941844222217181,0.12886852394971263
20.674212,1.9470138025531398,0.1283133554095052
20.676608,1.9552564188221537,0.12758982176414538
20.678996,1.9620087910239483,0.1270235441849524
20.681376,1.970111637666102,0.12635276311778787
20.683772,1.9811477506144513,0.12556149002691866
20.686156,1.994185964309217,0.12468972216011362
20.688536,2.0059209253918673,0.12378975744139072
20.690936,2.02152031834049,0.12273133549323001
20.69332,2.040052977595309,0.12156269556221869
20.6957,2.0592372631561853,0.12040826892102777
20.698096,2.081774123903838,0.11909472125249435
20.700484,2.101657257599016,0.11785511056585735
20.702864,2.116325484987861,0.11688475685058689
20.70526,2.1291313812571495,0.11596463897394348
20.707648,2.1448705438326323,0.11491518793597559
20.710032,2.1546034041688658,0.1141198100120932
20.712428,2.1573987967060697,0.11362429819552289
20.714816,2.162987685922609,0.11303605922948609
20.717196,2.1644326040194546,0.11265790023847762
20.719612,2.1658775221162996,0.11228057464218945
20.722,2.1741201383853133,0.11165419742420245
20.72438,2.181571358721409,0.111040911195395
20.726776,2.1865086216318907,0.11046355751357506
20.729164,2.1879535397287357,0.1100895347349128
20.731544,2.189258688198721,0.1097470726775644
20.73394,2.1866994048027326,0.1095379273906372
20.736328,2.1834412732724426,0.10944401065192304
20.738724,2.1752477746895416,0.1095374905068212
20.74112,2.1649124057333626,0.10972740804321528
20.743508,2.154577036777184,0.10991732557960938
20.745888,2.1378160567011744,0.11040840987059189
20.748284,2.123429264423919,0.11088855052232614
20.750672,2.112115508079719,0.11124249006629879
20.753056,2.103595248414854,0.11151574739735534
20.755452,2.0944233624439312,0.11176534023754234
20.75784,2.092608253152618,0.11168415108339265
20.76022,2.094098497219837,0.111560148772722
20.76262,2.0927952446077214,0.11152190202339744
20.765008,2.08841895606255,0.11162039899267696
20.767388,2.0828319627038803,0.11179828108746247
20.769784,2.072961228598656,0.1121773590606343
20.772172,2.062810955239711,0.11260118777263227
20.774556,2.0553144089332416,0.11296543193597917
20.776952,2.0510306681866877,0.11317553631776171
20.779336,2.04288249557416,0.11352318810932199
20.78172,2.0356654885214107,0.11384961250475284
20.784116,2.0285882510955213,0.11415974991259671
20.786504,2.0275173159088826,0.11421439120192753
20.7889,2.025515215162466,0.11429977156014345
20.791296,2.0224421792294107,0.11444181728738934
20.793684,2.0224421792294107,0.11444181728738934
20.796064,2.0225819488562706,0.11441667644378939
20.79846,2.023513114416049,0.11438623006950031
20.800848,2.0245840496026877,0.11433206694625268
20.803228,2.0252356759087453,0.11435116358985549
20.805624,2.0225347270280274,0.11455097452807406
20.808012,2.021603561468249,0.11457906185436417
20.810396,2.021743331095109,0.11455524356328875
20.812792,2.0241647407221066,0.11439901578183874
20.81518,2.02979895590902,0.11408446641708815
20.81756,2.0357127103496535,0.11372145397688632
20.819956,2.040555529603649,0.11340886739637472
20.822344,2.043536017738087,0.11315515750527361
20.824728,2.0454455706858865,0.11295675998055077
20.827124,2.048937915499523,0.11274472235954164
20.829512,2.056294692179132,0.11239509246401598
20.831908,2.067935209605296,0.11184250282406238
20.834304,2.0765026910984044,0.11143521954705847
20.836692,2.0858615685244306,0.11101953788175484
20.839072,2.097082777070013,0.11054473120951391
20.841476,2.1083039856155965,0.11006992453727296
20.843864,2.1175230934147624,0.10967402476008753
20.846244,2.1239487045345937,0.10936509296311889
20.84864,2.1300947764007043,0.10910732761681803
20.851028,2.137451553080314,0.10877770392193914
20.853408,2.1455997256928416,0.1084454941526637
20.855812,2.155190920544345,0.10814229499777132
20.8582,2.1675756120751837,0.10777333396455664
20.86058,2.182614030658497,0.10735639602839528
20.862976,2.1950912699879526,0.1071035227752452
20.865364,2.2042159341306324,0.10700543340059356
20.867744,2.2182759653259243,0.10674449269388504
20.87014,2.2351294932005517,0.10641250718904421
20.872528,2.2539851218215956,0.10601862868019969
20.874908,2.2712579585768027,0.10561871409902188
20.877312,2.283735197906258,0.1053678870818766
20.879696,2.295932897981993,0.10517809041029355
20.88208,2.305848958057591,0.105091239374717
20.884476,2.316975722946688,0.10494014989007047
20.886868,2.329452962276143,0.10470991468491117
20.889248,2.3427215975385174,0.10447897221213327
20.891644,2.3569213983606696,0.10422030275322769
20.894032,2.3731232999292384,0.10389642436751001
20.896416,2.3877424096319713,0.10357611607573536
20.898812,2.4002196489614267,0.10334335933127349
20.9012,2.4126968882908826,0.10311235434974506
20.90358,2.422380630941003,0.10295353782670963
20.905976,2.4271290065385114,0.10294577782773218
20.908364,2.4318773821360202,0.10293981381440134
20.910748,2.4362536706811917,0.10287325879290189
20.913152,2.444913699972917,0.10263506521749248
20.91554,2.445565326278975,0.10265389390421908
20.91792,2.445425556652115,0.10267405078431094
20.920316,2.4431439166519775,0.1027763043091789
20.922704,2.4467288092642305,0.1027134036884421
20.925088,2.454038364115597,0.10256774279980216
20.927484,2.456412551914351,0.10256523965875622
20.929872,2.461347918966963,0.10242091473714897
20.932256,2.464141415646298,0.10235818742168215
20.934652,2.466934912325633,0.10229834217876937
20.93704,2.4698681786318284,0.10221984247449285
20.939424,2.4752228545650197,0.10202793862761318
20.941828,2.480437760871353,0.10185766348996775
20.944216,2.4893773294167985,0.10161615403554587
20.946596,2.500598537962382,0.10128221087467162
20.948992,2.50916601945549,0.10098263013036388
20.95138,2.5166625657619597,0.10071835514988886
20.95376,2.5261612128148467,0.10039260381475357
20.95616,2.5319351976286204,0.10014398057455381
20.958548,2.5363587080020347,0.09996842196823186
20.960928,2.538640348002172,0.09987099737850537
20.963328,2.544274563189085,0.09962905456420558
20.965716,2.547906677629581,0.09944868437276581
20.968096,2.5516785616969373,0.09924811054055362
20.970496,2.552377409831239,0.09915146279228408
20.972884,2.5522848620326215,0.09905628975919034
20.975264,2.5521923142340044,0.09895962745641024
20.977664,2.5516804575548067,0.09892125068360028
20.980052,2.552239536062247,0.09884317407313452
20.982432,2.547723477890216,0.09892443298050033
20.984828,2.544557894158543,0.09892523679135505
20.98722,2.539110670426733,0.09901985943424102
20.9896,2.533942985948644,0.09907438133630267
20.992,2.5259818047912197,0.09918032831374793
20.994388,2.5176013147532146,0.09933903333455471
20.996768,2.5142959613946827,0.09935333441321804
20.999172,2.5120615432227886,0.09933232972804865
21.001556,2.511829225797311,0.09925856809281387
21.003936,2.5146699443048894,0.09909680153464304
21.006332,2.5237965043054387,0.09874535459468525
21.00872,2.537206805052542,0.09826113300713486
21.011104,2.5526192065460616,0.09772958783715113
21.013496,2.5689627735993597,0.09717859732794618
21.015884,2.585446110279518,0.09661103681219091
21.018264,2.596994079907065,0.09615275262590674
21.02066,2.606400179161334,0.09576459453199325
21.023044,2.6190190839755196,0.09526975242445275
21.025444,2.633779859162982,0.0947102298632069
21.02784,2.6486804039773046,0.09413392106361594
21.030228,2.666514215097822,0.0934770000320595
21.032608,2.6792728895388676,0.09296208738584423
21.035004,2.692031563979913,0.09244717473962899
21.037388,2.698364627301127,0.09213640864164016
21.039772,2.7036267554357027,0.09186095348714701
21.042168,2.706374926144664,0.09159964357267493
