Time,Force,Position
22.518776,0.07435109307180501,0.0
22.521164,0.08466337124864967,0.0
22.523544,0.09297354867907748,0.0
22.52594,0.0982106901764499,0.0
22.528332,0.10051456536762716,0.0
22.530716,0.10095610943924781,0.0
22.533112,0.10111811425714799,0.0
22.5355,0.10328221982146504,0.0
22.53788,0.10423562057228337,0.0
22.540276,0.10612018688288,0.0
22.542664,0.10612018688288,0.0
22.545048,0.10446793799776063,0.0
22.547444,0.100534049112504,0.0
22.549832,0.09459805948083053,0.0
22.552228,0.0866599691027402,0.0
22.554624,0.07779071316487154,0.0
22.557012,0.06799029166722455,0.0
22.559392,0.05940057498307632,0.0
22.561792,0.05067108867206788,0.0
22.56418,0.04115020642814132,0.0
22.56656,0.03176909381107498,0.0
22.568956,0.021456815634230315,0.0
22.571344,0.013146638203802496,0.0
22.573728,0.007909496706430066,0.0
22.576124,0.0056056215152528064,0.0
22.578512,0.007048643754228815,0.0
22.580892,0.0068866389363286176,0.0
22.583288,0.0047225333720115675,0.0
22.58568,0.003769132621193259,0.0
22.58806,0.0018845663105966292,0.0
22.59046,0.0018845663105966292,0.0
22.592848,0.0018845663105966292,0.0
22.595228,0.0036293629943330488,0.0
22.597628,0.004163454864570727,0.0
22.600016,0.006420108227504835,0.0
22.6024,0.006420108227504835,0.0
22.604796,0.006420108227504835,0.0
22.607184,0.006420108227504836,0.0
22.609568,0.006420108227504836,0.0
22.611968,0.006420108227504836,0.0
22.614356,0.008025135284381046,0.0
22.61674,0.009490392714397044,0.0
22.619136,0.009490392714397044,0.0
22.621524,0.009490392714397044,0.0
22.623908,0.010815880517552832,0.0
22.626304,0.010256802010111993,0.0
22.628696,0.01358439055968463,0.0
22.631076,0.015980813549478952,0.0
22.633476,0.01598081354947895,0.0
22.63586,0.01598081354947895,0.0
22.63824,0.015980813549478952,0.0
22.640644,0.015980813549478952,0.0
22.643032,0.014236016865742532,0.0
22.645412,0.013701924995504855,0.0
22.647816,0.011445271632570744,0.0
22.650204,0.011445271632570744,0.0
22.652584,0.011445271632570744,0.0
22.654988,0.011445271632570744,0.0
22.657372,0.011445271632570744,0.0
22.659752,0.011445271632570747,0.0
22.662156,0.009840244575694535,0.0
22.664544,0.008374987145678539,0.0
22.666924,0.008374987145678539,0.0
22.669328,0.008374987145678539,0.0
22.671712,0.007049499342522749,0.0
22.674092,0.00572401153936696,0.0
22.676488,0.00239642298979432,0.0
22.678876,0.0,0.0
22.68126,0.0,0.0
22.683656,0.0,0.0
22.686044,0.0,0.0
22.688424,0.0,0.0
22.69082,0.0,0.0
22.693208,0.0,0.0
22.695588,0.0,0.0
22.697992,0.0,0.0
22.70038,0.0,0.0
22.702756,0.0,0.0
22.705164,0.0,0.0
22.707552,0.0,0.0
22.709932,0.0,0.0
22.712328,0.0,0.0
22.714716,0.0,0.0
22.717096,0.0,0.0
22.719492,0.0,0.0
22.72188,0.0,0.0
22.72426,0.0,0.0
22.726656,0.0,0.0
22.729044,0.0,0.0
22.731424,0.0,0.0
22.733828,0.0,0.0
22.736216,0.0,0.0
22.738596,0.0,0.0
22.740992,0.0,0.0
22.74338,0.0,0.0
22.74576,0.0,0.0
22.748156,0.0,0.0
22.750544,0.0,0.0
22.752924,0.0,0.0
22.75532,0.0,0.0
22.757708,0.007235450528051769,0.0
22.760088,0.018985063370265683,0.0
22.762484,0.04069606225845146,0.0
22.764872,0.07474263499136344,0.0
22.767268,0.11432708339683295,0.0
22.769664,0.16210313452733477,0.009241673660767988
22.772052,0.21942126282322777,0.01823551316519155
22.774432,0.28800402977720846,0.026920844986480286
22.776836,0.3673395787100791,0.03534656386683517
22.779224,0.4480690321958134,0.04442773619981201
22.781604,0.5380610235932185,0.05343425834255164
22.784004,0.6355929914095979,0.062474750380994815
22.786392,0.7435982019511469,0.07134422370125414
22.788772,0.8591433889116702,0.0802513143016319
22.791172,0.9839511137838644,0.08911749813413981
22.79356,1.1207223254484473,0.09773172866902374
22.79594,1.264614204651424,0.10645026779618462
22.798336,1.4177686217660714,0.11514687470928323
22.800724,1.5762285971277992,0.12391635803852435
22.803104,1.7461874244309612,0.13238705435285872
22.8055,1.9120291631095006,0.14087823845612316
22.807888,2.0791760502580248,0.14922834410352517
22.810268,2.2380841128532745,0.1575330010480634
22.812664,2.3815835656707423,0.16596291551341324
22.815052,2.524480509868264,0.17420729202186483
22.817436,2.6585342250346957,0.173208465199977
22.819832,2.784116798222375,0.17241207479495058
22.82222,2.897503567192188,0.17195386847290992
22.824604,3.0006494108623087,0.17177252610100663
22.827,3.108547421845677,0.17070189655448
22.829388,3.207182894917374,0.1697059171981906
22.831768,3.301071888249431,0.16859406218275524
22.834168,3.3803436677366254,0.16780834495434901
22.836552,3.4499336004315686,0.16707286954606945
22.838948,3.5093298296550626,0.16640748673443528
22.841344,3.5562034935787263,0.16605624089180726
22.843728,3.596887655523775,0.1655710985149256
22.846112,3.630171610676709,0.16504959912916203
22.848516,3.6588016338886216,0.16445695124939738
22.850904,3.6724404603454635,0.1643286748012763
22.853284,3.6838920904586545,0.16414991420639655
22.85568,3.686591143481503,0.16421902054328782
22.858068,3.689290196504352,0.1642881466738805
22.860448,3.695853681393174,0.1642174299912355
22.862844,3.6962710944158856,0.16439406112741334
22.865232,3.6981315296775725,0.16455739988845208
22.867612,3.697710324939123,0.16482840003229288
22.870008,3.6982202857604514,0.16506972377628265
22.8724,3.6972872243428037,0.16532493172819
22.87478,3.690999486991963,0.16579870053865411
22.877176,3.6845719800142627,0.1662883560395211
22.879564,3.67306933635709,0.16697138202465403
22.881944,3.669435326058725,0.16737326392341115
22.884344,3.6698055172531934,0.16762617200501287
22.886732,3.669244542887884,0.16791100897474934
22.889112,3.6661696110969593,0.16825990219857964
22.891508,3.661232348186478,0.1686705930164819
22.893896,3.653361818969801,0.16918847873409146
22.896292,3.646190137887426,0.16962330629275574
22.898688,3.6435817368053254,0.16984448991467543
22.901076,3.6437668324025596,0.16997134464112157
22.903456,3.6496786909853234,0.16990140831059083
22.905852,3.6500035562094175,0.1700132632260702
22.90824,3.6495370255005937,0.1701397034339755
22.91062,3.6521435307248256,0.17014321906304597
22.913024,3.654889805575917,0.1701314572387703
22.915412,3.6636423826662594,0.1698963705337572
22.917792,3.672255190129742,0.1696762476927868
22.920188,3.6859431342726965,0.16926940883490166
22.922576,3.6957666465496772,0.16899018359767126
22.92496,3.707871798826796,0.1686100215199805
22.927356,3.722258591104051,0.16811839472146617
22.929744,3.735993757075249,0.1676429954309304
22.932128,3.7517310237928627,0.16711078451715877
22.934524,3.7741262190557854,0.16637965845102692
22.936912,3.8035986517445974,0.1654007164571432
22.939292,3.8347936459261063,0.16437960915937117
22.941688,3.867339114547973,0.16328331488276193
22.944076,3.901327605408816,0.16220045955542833
22.946456,3.934245161083021,0.1611656637481026
22.948856,3.962367119331474,0.16029061292208846
22.95124,3.984902084221257,0.15957427319052842
22.953624,4.016236848029625,0.15858237604722858
22.95602,4.0497134822112715,0.15752138303278965
22.958408,4.078534288594025,0.1565870206721688
22.960804,4.107355094976778,0.15566073022360463
22.9632,4.128447037627586,0.15497517068278896
22.965588,4.151680850651669,0.1542170051936005
22.967968,4.168628822182782,0.15368508739551126
22.970364,4.190931469647089,0.1529573132749923
22.972752,4.212163181924756,0.15227986929526863
22.975136,4.234745368642781,0.1515427437898605
22.977532,4.249319152375141,0.1510507760946418
22.97992,4.257235007562191,0.15074511983973546
22.9823,4.259563869390571,0.150587161756489
22.984704,4.257888529726118,0.15055077967551844
22.987092,4.254490628568969,0.15054768897757143
22.989472,4.2508131881581,0.15057087958169849
22.991868,4.243411085508116,0.15068550765430894
22.994256,4.235077817298354,0.1508238952173575
22.99664,4.2291659587155905,0.15086284203766712
22.999036,4.2272583016256595,0.15078316253848634
23.00142,4.21855294636356,0.15088922191693124
23.003804,4.207705720728184,0.1510643771665153
23.006208,4.199791761399003,0.1511605922384883
23.008596,4.188153139830709,0.1513500148724193
23.010976,4.17958755419547,0.15144612914152436
23.013376,4.168368241507755,0.15159658962065364
23.01576,4.159290799193319,0.15167638320847737
23.01814,4.146721012065246,0.15189137719367418
23.020544,4.1369447216165085,0.15203172535354365
23.022932,4.127540518220108,0.15219855998391013
23.025312,4.126424257063095,0.15210933858235556
23.027716,4.126099391839001,0.15200975171803308
23.030104,4.125634756988047,0.1519230601175095
23.032484,4.123447560644395,0.15186916285373758
23.03488,4.126615040233936,0.15163534821154054
23.037268,4.127920188703921,0.15144603538343201
23.039652,4.13322953866674,0.15114086477084657
23.042052,4.13867865825642,0.1508207763077155
23.04444,4.139844037099545,0.1506442937965055
23.04682,4.139658941502311,0.15053093772880982
23.049224,4.144409212957689,0.15027824428377923
23.051612,4.14715738366665,0.15008273368304131
23.053992,4.151767885495167,0.14984346447871394
23.056388,4.161173984749437,0.149476907313368
23.058776,4.169648918443928,0.14913260379322127
23.061156,4.178775478444477,0.14879159614738047
23.06356,4.189112743258525,0.1484036342504382
23.065948,4.201080021766652,0.1479257985599998
23.068328,4.202385170236637,0.14773518692119225
23.070724,4.200245195721229,0.14760971235005357
23.073116,4.193821480459268,0.14762782964519328
23.075496,4.193543837063416,0.1474582017430858
23.077892,4.195268294413982,0.14723089872181375
23.08028,4.199786248443883,0.14693627384244964
23.08266,4.195596951353815,0.14693849035959183
23.08506,4.194201150943082,0.14687379441345852
23.087444,4.186799048293099,0.14698269617106716
23.089828,4.183121607882229,0.14700147018856308
23.092224,4.1853107000837495,0.1468616409591747
23.094612,4.188710497098768,0.1466741602200447
23.096992,4.186895387807455,0.14664871142687852
23.099396,4.192297285568891,0.14640820605701035
23.101784,4.197699183330326,0.14617135282287144
23.104164,4.201890376278263,0.14598284875639697
23.106564,4.209946001092174,0.14570154628838397
23.108948,4.22079512258542,0.1453623877117722
23.111332,4.229502373705388,0.1450893070833647
23.113728,4.237650546317915,0.14486650595111022
23.116116,4.25352758266239,0.14444666041690374
23.118496,4.272989511619118,0.14395697732726667
23.120892,4.29496539800146,0.14343073731886669
23.123284,4.311726378077469,0.1430647913171626
23.125664,4.32727665333998,0.1427456305666275
23.12806,4.340685058229214,0.14249193388509176
23.130448,4.361310470171198,0.14202959283341055
23.132828,4.38165634285946,0.14159465718318476
23.135224,4.4049354818539195,0.1410784354327387
23.137616,4.42621252010196,0.1406250375562504
23.139996,4.44269396092425,0.14028773406832334
23.142396,4.459315171373398,0.13994277025105747
23.14478,4.476215921076268,0.13956570958595876
23.14716,4.4849684981666105,0.13941543768202388
23.149564,4.4927899096971755,0.13928753989164816
23.151952,4.499959694921682,0.13915543658205426
23.154336,4.500983408280077,0.13918947645206514
23.156732,4.49842222902622,0.1392888071553261
23.15912,4.497723380891918,0.1393494124480882
23.1615,4.500097568690672,0.13932813446601516
23.163904,4.504613626862704,0.13924629754087872
23.166292,4.507267353915178,0.13920235615869136
23.168672,4.507267353915178,0.13920235615869136
23.171068,4.509409224288454,0.13914150711342532
23.173456,4.509828533169036,0.13910584196532505
23.175836,4.511318777236254,0.13903924026956582
23.178232,4.508292963131442,0.13905478033080418
23.18062,4.503963896414515,0.13906027941813384
23.183004,4.502847635257502,0.13897436227195906
23.1854,4.498006711861376,0.13896241965975142
23.187788,4.497030220331224,0.1388644234207116
23.190168,4.494703254360713,0.13882034700410686
23.192568,4.496240720256176,0.13869087901617144
23.194952,4.5019221572713315,0.13845126693226678
23.197336,4.502528457607015,0.13833891697008271
23.199732,4.50341429719642,0.13820298859983274
23.20212,4.509515043092157,0.1379253415843363
23.2045,4.513473918614617,0.1377065542125936
23.206904,4.5158500022712404,0.1375020402909153
23.209292,4.511428387755696,0.1374545731600565
23.211672,4.501140240627761,0.13754505525893285
23.21408,4.492062798313324,0.13759141035036193
23.216468,4.4886195711858,0.137459574631257
23.218848,4.484245178498497,0.137346106466874
23.221248,4.484666383236948,0.13712967575912863
23.223636,4.487369227975535,0.13684328018539757
23.226016,4.496078374953372,0.13641856027984176
23.228416,4.508512184170324,0.13592787289080735
23.230804,4.515731087080942,0.13557200664839722
23.233188,4.52988745779059,0.1350636065337477
23.235584,4.544323367753957,0.13454072231966055
23.237972,4.560109752157684,0.1339693790265858
23.240356,4.575244510255353,0.13339936946404854
23.242752,4.587306232419967,0.13290032735280471
23.24514,4.60565379607755,0.132243596120041
23.24752,4.6225111156679155,0.13164772364374375
23.24992,4.639508204885142,0.13105067011571694
23.252308,4.662791135595338,0.13030318171037475
23.254688,4.687936397425091,0.12952663292859384
23.257088,4.719227731120956,0.12860518005882562
23.259476,4.753731870376734,0.12759515617323328
23.261856,4.7845113473934004,0.12664890422765757
23.264252,4.8070028821706785,0.12590508417770685
23.26664,4.827911625082122,0.1251696171603926
23.269024,4.845515014635032,0.12447203234373035
23.27142,4.85832280676219,0.12386515784478855
23.273808,4.863634052582877,0.12344696989143095
23.276188,4.86643134097795,0.12305685891755758
23.278584,4.870299564559661,0.12263767358369976
23.280972,4.866299154782567,0.12237397285549156
23.283356,4.856292442766221,0.12223408858932117
23.285752,4.84349223407054,0.12213921051726347
23.28814,4.826687823882025,0.12212681852148632
23.290524,4.812956449626566,0.1220462597570224
23.29292,4.797222974624691,0.12200464844734477
23.295308,4.784981844436451,0.12186241053911799
23.297688,4.7665946423821,0.12185338707648966
23.300088,4.744994634767834,0.12191713669854336
23.302476,4.722323691966929,0.12200392157768092
23.304856,4.695648547673191,0.12216800217501565
23.307256,4.6706959648721496,0.12230882784691055
23.309644,4.647186404310083,0.12245669226203251
23.312024,4.626330570800492,0.12257697315735076
23.31442,4.606638220276156,0.1227237338433241
23.316808,4.5862470216175195,0.12292582816570757
23.319192,4.571303046690692,0.12304862463556497
23.321592,4.560503042883559,0.12308059030967491
23.32398,4.547002090195708,0.12320916977452223
23.326364,4.5339204463884375,0.12330474536527362
23.32876,4.529498831872893,0.12324303344735749
23.331148,4.529733045156239,0.12310614270553569
23.333528,4.533412381424978,0.12293159672400701
23.335928,4.54067661030597,0.12270701064228443
23.338316,4.546730134373464,0.12252085294516997
23.340696,4.551712723254319,0.12236082949848216
23.343092,4.552132032134899,0.12232747242288762
23.34548,4.559488808814509,0.12215606718878379
23.347876,4.562841384001285,0.12206553501954907
23.350272,4.568196059934477,0.12193479050026951
23.35266,4.577135628479923,0.12175555367742892
23.35504,4.583793557025231,0.12164084540873821
23.35744,4.595806161503733,0.12140018115904574
23.359828,4.612102506728789,0.12106044167597921
23.362208,4.632030966394341,0.12061725417142093
23.364608,4.656103397179585,0.12008860342069683
23.366996,4.676311396098857,0.11963093634689369
23.369376,4.695588229458351,0.11918981753565638
23.371776,4.717006933191121,0.11869502165931628
23.374164,4.742941695095923,0.11814997268851912
23.376544,4.763289463642055,0.11769579214192463
23.37894,4.781774901068632,0.1172684598742415
23.381328,4.795324971442595,0.11692737436241005
23.383708,4.807012710697001,0.11661324228568762
23.386104,4.818700449951408,0.11629911020896519
23.388496,4.829037714765457,0.11602739398781065
23.39088,4.8417963892065,0.11568366113465336
23.393276,4.848408991781435,0.11546526196086083
23.395664,4.861679522901678,0.11513845799585232
23.398048,4.8714577092082845,0.11490730915311301
23.400444,4.879373564395336,0.11470500693293022
23.402836,4.888500124395885,0.11446841708806184
23.405216,4.889198972530186,0.11441528252776699
23.407616,4.886685015104572,0.11443428503713976
23.410004,4.882680813611739,0.11450709493532062
23.412384,4.874672410626071,0.1146513361938306
23.414784,4.870668209133237,0.11472274776607834
23.417172,4.868386569133099,0.11477860259649396
23.419552,4.867315633946461,0.11480129138100495
23.421952,4.859027691707073,0.11496217667497345
23.42434,4.849249505400467,0.11517822803937112
23.42672,4.8434755205866935,0.11532208874012567
23.42912,4.844127146892752,0.11532999167721697
23.431508,4.849714140251422,0.11525648510495827
23.433892,4.857303234356508,0.11514933505711651
23.436288,4.870107234767927,0.11494193764029213
23.438676,4.884354257418322,0.11474216072302958
23.44106,4.90367641674819,0.11445084219132079
23.443456,4.9211362449585,0.11418736868097602
23.445848,4.942088417982448,0.11383909775643732
23.448232,4.967044792499228,0.11342982168225384
23.450628,4.988788361456093,0.11308352321641697
23.453016,5.016538232652208,0.11263193296468176
23.455396,5.043356938288546,0.11219086005517884
23.457792,5.06496073761855,0.11184621891621772
23.46018,5.088287098441252,0.11148678437591443
23.46256,5.105187848144122,0.11125903002940027
23.464956,5.119155331540796,0.1110779570867632
23.467344,5.13256373643003,0.11093787177990379
23.469728,5.153189148372012,0.11066461352876192
23.472124,5.177818761806829,0.11032226510910513
23.474512,5.196022764121816,0.11011097678790521
23.476896,5.2095237168096675,0.1100186811386916
23.479292,5.21487649688499,0.11007108754422747
23.48168,5.217296010654118,0.11016909896895323
23.48406,5.215571553303552,0.11034336030946519
23.48646,5.213195469646931,0.11050874548530686
23.488848,5.211890321176946,0.11065112102234514
23.491228,5.208583071960542,0.11082597586917568
23.493628,5.200060916437808,0.11109702132786414
23.496016,5.189816199422377,0.11137566133145464
23.4984,5.185997093526777,0.11152976665239347
23.500796,5.183528462071536,0.11164308865942028
23.503184,5.182782392108992,0.11174431951065285
23.505564,5.186739371773584,0.11173698312086462
23.507964,5.190975890691895,0.11171116000489884
23.510352,5.201917559983757,0.1115459801526622
23.512732,5.2132785381562,0.11135187800209287
23.515132,5.223196494089668,0.11115110096701707
23.51752,5.228318852597383,0.11101538026055759
23.519904,5.231718649612401,0.11089236599058674
23.522304,5.243685928120528,0.1106119738356453
23.524692,5.26021648662893,0.11023597491902182
23.527072,5.284103821816942,0.10972986120238891
23.529472,5.306920221818313,0.10923910224565564
23.53186,5.33388059293938,0.10868127371682175
23.53424,5.357907697754254,0.1081637264616943
23.536636,5.37900153626293,0.10769246064746754
23.539028,5.403447949958381,0.10715559443558396
23.541408,5.431386708467469,0.1065374453211133
23.543808,5.453831021416504,0.10602574491822761
23.546192,5.4699894928725685,0.10562623188388795
23.548576,5.483074928395577,0.10527982562120702
23.550972,5.49457757205275,0.1049355078798201
23.55336,5.506080215709923,0.10459447892574526
23.555744,5.5178623986208155,0.10423819889500695
23.55814,5.527362941531572,0.10393238042615374
23.560528,5.538446276308163,0.10362564978924559
23.562912,5.552602647017811,0.10327460531703685
23.565308,5.5695525144067926,0.10289680864039122
23.567696,5.585710985862857,0.10251975796073746
23.57008,5.5950717591467525,0.10222922230599696
23.572476,5.5982864605645375,0.10202874620300062
23.574868,5.600150687541963,0.10186526611720081
23.577248,5.604156784892666,0.10166592336305626
23.579648,5.602156580004118,0.10154638162689567
23.582036,5.603229411048627,0.10138250149663673
23.58442,5.601229206160079,0.10126228634345236
23.586816,5.5941538645920605,0.1012131349976824
23.589208,5.589732250076515,0.10114549761828599
23.591588,5.5857299444415505,0.10105150635543973
23.593988,5.582658804366363,0.10094811264745171
23.596376,5.579447894664318,0.1008535042882472
23.59876,5.57716815052205,0.10074955008645137
23.601156,5.572606766379645,0.10069024079000548
23.603548,5.563621871863825,0.10071171554766677
23.605932,5.548630675108755,0.10081683168084803
23.608328,5.532848082420767,0.10092163723919224
23.610716,5.511850583426446,0.1011084355998171
23.6131,5.486988652566151,0.10134094787570491
23.6155,5.462498808758195,0.10160066734652388
