Time,Force,Position
22.106364,0.006155264914060417,0.0
22.108752000000003,0.010184293519362267,0.0
22.111132,0.011814307213440664,0.0
22.113528,0.01584333581874252,0.0
22.115912,0.017870263677627514,0.0
22.118296,0.019897191536512513,0.0
22.120692,0.023646680888093942,0.0
22.12308,0.02618546542617663,0.0
22.125460000000004,0.030866120337536385,0.0
22.127856,0.03861981118195153,0.0
22.130244,0.04623373239950644,0.0
22.132624,0.05196049538503657,0.0
22.135020000000004,0.06197099911712084,0.0
22.137408,0.0741482003349503,0.0
22.139788000000003,0.08991029416503285,0.0
22.142184,0.10367028724869852,0.0
22.144572000000004,0.12143448182519792,0.0
22.146956000000003,0.138267510841919,0.0
22.14936,0.15479617349245148,0.0
22.151748,0.17011413132948525,0.0
22.154128,0.17956555655412865,0.0
22.156524000000005,0.1871546506592154,0.0
22.158912,0.19460397513744196,0.0
22.161292000000003,0.2016339907350879,0.0
22.163692000000005,0.211597272638929,0.0
22.166076000000004,0.21755635304993737,0.0
22.168460000000003,0.21885960566205415,0.0
22.170856,0.22444659902072409,0.0
22.173244000000004,0.22668101719261918,0.0
22.17564,0.2258423994314589,0.0
22.178036,0.22542309055087825,0.0
22.18042,0.22672634316299506,0.0
22.182804000000004,0.22239538058819874,0.0
22.1852,0.2167139435730435,0.0
22.187584,0.2037229517065219,0.0
22.189968,0.194736161332834,0.0
22.192364,0.17760119834661847,0.0
22.194752,0.1615371705470415,0.0
22.197132000000003,0.1456129123743247,0.0
22.199528,0.1299905881711024,0.0
22.201912,0.11730153027407522,0.0
22.204308000000005,0.1056834075636866,0.0
22.206704,0.09527598966679673,0.0
22.209092,0.08421694546384895,0.0
22.211476000000005,0.07222673570112284,0.0
22.213872,0.06424072743122945,0.0
22.21626,0.061075143699556037,0.0
22.21864,0.05590745922146674,0.0
22.221036,0.05008814843731858,0.0
22.223424,0.043197902466531886,0.0
22.225804000000004,0.0360032901295576,0.0
22.2282,0.028017281859664223,0.0
22.230588000000004,0.02231291358990812,0.0
22.232984,0.015817149387233904,0.0
22.23538,0.013046047423672968,0.0
22.237768000000003,0.008272844713695184,0.0
22.240148,0.00764361312341131,0.0
22.242548,0.00687461190626723,0.0
22.244936000000003,0.0059658410622629365,0.0
22.247316,0.00808531671976597,0.0
22.249712,0.012206893123685853,0.0
22.2521,0.015257534340967207,0.0
22.25448,0.02110167223758352,0.0
22.256876,0.026945810134199832,0.0
22.259264,0.03665437989678964,0.0
22.261648,0.04743388484601798,0.0
22.264044,0.05232203007038782,0.0
22.266432,0.05627900973497935,0.0
22.268812000000004,0.065962752385101,0.0
22.271208,0.0797904661549156,0.0
22.2736,0.09936977002272847,0.0
22.275992,0.11708674277098471,0.0
22.278384000000003,0.130659744399548,0.0
22.280772,0.13543294710952578,0.0
22.283152,0.14048568907322398,0.0
22.285544,0.14260516473072704,0.0
22.287932,0.1457955755748686,0.0
22.290328,0.14805482085923183,0.0
22.292732,0.14805482085923186,0.0
22.295116,0.14593534520172882,0.0
22.297496,0.14181376879780894,0.0
22.299892,0.13876312758052758,0.0
22.302276,0.13291898968391128,0.0
22.304656,0.12707485178729497,0.0
22.307064000000004,0.11736628202470516,0.0
22.309448000000003,0.10658677707547683,0.0
22.311828,0.09981147361908219,0.0
22.314228,0.09289640053582736,0.0
22.316612,0.08211689558659901,0.0
22.318996,0.06826435470431624,0.0
22.321400000000004,0.04868505083650337,0.0
22.323788,0.030968078088247128,0.0
22.326168000000003,0.017395076459683828,0.0
22.328564,0.012621873749706044,0.0
22.330952000000003,0.00756913178600784,0.0
22.333332,0.005449656128504806,0.0
22.335728000000003,0.002259245284363243,0.0
22.338116,0.0,0.0
22.340496,0.0,0.0
22.342892,0.0,0.0
22.345276,0.000955992672246469,0.0
22.347672000000003,0.002051754971353148,0.0
22.350068,0.0022163517106815064,0.0
22.352456000000004,0.0022163517106815064,0.0
22.354836,0.0030325747560677654,0.0
22.357240000000004,0.007713229667427515,0.0
22.359628,0.015187381258122228,0.0
22.362008000000003,0.022521763221956728,0.0
22.364412,0.02613148294667795,0.0
22.3668,0.02946166341767972,0.0
22.36918,0.030789743142264642,0.0
22.371576000000005,0.03078974314226465,0.0
22.373960000000004,0.031046887680211042,0.0
22.376344000000003,0.03437706815121281,0.0
22.378748,0.041711450115047316,0.0
22.381136,0.05090816319843846,0.0
22.383516,0.0601048762818296,0.0
22.385912,0.06622855343216634,0.0
22.3883,0.0732833961422814,0.0
22.390680000000003,0.07647380698642296,0.0
22.393076,0.07577495885212289,0.0
22.395464000000004,0.07467919655301622,0.0
22.397844,0.07451459981368785,0.0
22.400240000000004,0.07505128360535467,0.0
22.402628,0.07423506055996841,0.0
22.405008,0.06955440564860867,0.0
22.407404,0.06208025405791393,0.0
22.409792000000003,0.05474587209407943,0.0
22.412168,0.05113615236935821,0.0
22.414572,0.04780597189835644,0.0
22.416960000000003,0.04647789217377151,0.0
22.41934,0.04647789217377151,0.0
22.421744000000004,0.04622074763582513,0.0
22.424132,0.04289056716482335,0.0
22.426512,0.035556185200988855,0.0
22.428916,0.026359472117597704,0.0
22.4313,0.01716275903420656,0.0
22.433684,0.011039081883869824,0.0
22.436084,0.003984239173754768,0.0
22.438472000000004,0.000793828329613204,0.0
22.440852,0.0005366837916668122,0.0
22.443256,0.0005366837916668122,0.0
22.445640000000004,0.0005366837916668122,0.0
22.44802,0.0,0.0
22.450428,0.0,0.0
22.452812,0.0,0.0
22.455192000000004,0.0,0.0
22.457596,0.0,0.0
22.459984,0.0,0.0
22.462364,0.0,0.0
22.46476,0.0,0.0
22.467148,0.0,0.0
22.469528000000004,0.0,0.0
22.471932,0.0,0.0
22.47432,0.0,0.0
22.4767,0.0,0.0
22.479100000000003,0.0,0.0
22.481484,0.00025714453794639175,0.0
22.483864000000004,0.005589425755364042,0.0
22.486264,0.009850771786144135,0.0
22.488648,0.012110017070507378,0.0
22.491032000000004,0.013298327168232092,0.0
22.493428,0.014905946146536458,0.0
22.495816,0.01637379549798159,0.0
22.498200000000004,0.019843745595842604,0.0
22.500596,0.02303415643998417,0.0
22.50298,0.02729550247076426,0.0
22.505364,0.031417078874684146,0.0
22.50776,0.03660959046524256,0.0
22.510148,0.04087093649602265,0.0
22.512528000000003,0.048345088086717364,0.0
22.514924,0.0528859733712169,0.0
22.517312000000004,0.056216153842218675,0.0
22.519696000000003,0.06247960061941465,0.0
22.522092,0.06874304739661062,0.0
22.524480000000004,0.07579789010672566,0.0
22.52686,0.08085063207042388,0.0
22.529256000000004,0.08364412874975884,0.0
22.531644,0.07856899207028759,0.0
22.534024,0.07763782651050927,0.0
22.536432,0.08071086244356367,0.0
22.53882,0.08499460319011681,0.0
22.541200000000003,0.09072136617564695,0.0
22.543596,0.09980070434795191,0.0
22.545984000000004,0.10580700658720246,0.0
22.548364,0.11088214326667371,0.0
22.550760000000004,0.11395517919972814,0.0
22.553148,0.11530565364008612,0.0
22.555544,0.11344332252052947,0.0
22.55794,0.11144122177411261,0.0
22.560328,0.10529514990800283,0.0
22.562708,0.10087163953458947,0.0
22.565108,0.09765883397467387,0.0
22.567496,0.0913953871974779,0.0
22.569876,0.08513194042028194,0.0
22.572272,0.07807709771016688,0.0
22.57466,0.07302435574646868,0.0
22.577044,0.06997371452918733,0.0
22.57944,0.06971656999124094,0.0
22.581828,0.06638638952023916,0.0
22.584208000000004,0.06105410830282152,0.0
22.586604,0.05558205745854366,0.0
22.588992000000005,0.04824767549470915,0.0
22.591372,0.03770048797095906,0.0
22.593772,0.028224235633847496,0.0
22.596156,0.01995868811023467,0.0
22.598548,0.012624306146400165,0.0
22.600944,0.007152255302122303,0.0
22.603332,0.003822074831120529,0.0
22.605712000000004,0.002658591845863965,0.0
22.608116000000003,0.0013553392337471908,0.0
22.6105,0.0064776977414616,0.0
22.612880000000004,0.014533322555371181,0.0
22.615284000000003,0.024848192653644005,0.0
22.617672,0.03195025719200124,0.0
22.620052,0.03993626546189461,0.0
22.622456,0.04847945638135959,0.0
22.62484,0.06167657924184691,0.0
22.62722,0.07840947702847491,0.0
22.629624,0.1079898053390268,0.0
22.632012000000003,0.14469080118797242,0.0
22.634392,0.18995548681428778,0.009389409880611937
22.636796000000004,0.24606550221811024,0.018483844094721882
22.639184,0.31129828590674324,0.027519091396830224
22.641564,0.38579360750704705,0.036469869811457424
22.643968,0.4698310062727421,0.04528464157605015
22.646356000000004,0.5628514036963875,0.05411694832600833
22.648736,0.6660655045914822,0.06284845343570487
22.651132000000004,0.780264704890944,0.07147185796836455
22.65352,0.9015597456163315,0.08014618955759654
22.655900000000003,1.0342591946266668,0.08873225611795989
22.658296,1.1703546489362826,0.09730284550977075
22.660684000000003,1.309194482239121,0.10599652201758446
22.663064,1.455154983080353,0.11467017793937977
22.665468000000004,1.6175950288860053,0.12315414745694146
22.667856,1.7892522866329532,0.13153483815424508
22.670236000000003,1.9657051418056533,0.1399081472728842
22.672632,2.1430438365677573,0.14818281660840557
22.675020000000004,2.3208509578965546,0.1563155155275103
22.6774,2.484926704969893,0.16440051105469727
22.679808,2.6443031941318345,0.17237358172798617
22.682196,2.794604136837209,0.17094048074165946
22.684576,2.935130684951716,0.16976168946080003
22.68698,3.0654635295947728,0.1686827510529769
22.689368,3.1922605993116893,0.16751999543457718
22.691748000000004,3.3123090885425492,0.16641946933612334
22.694144,3.422722952809401,0.1652983429541679
22.696532,3.522291487298746,0.16427493321414122
22.698912,3.60715026014461,0.16345898267097397
22.701308000000004,3.6816755598921653,0.16267170243035806
22.703696,3.7445169121010515,0.1620419447642799
22.706076000000003,3.7973968782639664,0.16149788497666018
22.708472,3.844459429500603,0.1608453229742011
22.710860000000004,3.8786745502133155,0.16030825036722315
22.71324,3.9001820100289653,0.15990127852999753
22.715636000000003,3.907863651932669,0.1597105024882345
22.718024,3.912334384134326,0.15944005749803214
22.720408,3.912987906298253,0.15922754388458127
22.7228,3.911220018835183,0.15913169961931206
22.725188000000003,3.9088458310364285,0.15917023038333145
22.727568,3.9051211687973155,0.15927818340780417
22.729968,3.901256736931342,0.1594008920451408
22.732356000000003,3.895669743572672,0.15956224679222636
22.734736,3.8942267213336965,0.159571978022511
22.737132000000003,3.8809108642430794,0.15997553832537748
22.73952,3.862799409726711,0.16052623593204285
22.7419,3.8464105167030387,0.16103548053465305
22.744296,3.8316044155452027,0.1615189682640771
22.746684,3.8246669477461737,0.161746217330081
22.749068,3.8221529903205593,0.16179617231424465
22.751464,3.8209895073353035,0.16177686975273914
22.753852,3.820105563603768,0.1617286007776782
22.756248,3.8241569869248453,0.16152036362958397
22.758644000000004,3.8344470299106495,0.161155004939594
22.761032,3.845900555881709,0.16081361887847526
22.763412,3.861218513718743,0.16034554822793506
22.765808,3.872392500436083,0.16002783852775276
22.768192,3.8810525297278082,0.15976194286184675
22.770576,3.8871986015939193,0.1595466180846337
22.772972000000003,3.898699349393222,0.15913118716309724
22.775356,3.909920557938806,0.15874765596738283
22.77774,3.922724558350225,0.1583420011923578
22.780136,3.93711135062748,0.15791445526524148
22.782524,3.9485648765985406,0.15758435430252507
22.784904000000004,3.9693772799956273,0.1569187430504745
22.787304,3.992983180072049,0.1561701603379283
22.789688,4.017100936827668,0.155447089480751
22.792084000000003,4.042801485449123,0.15471199661901547
22.794488,4.0622161925776075,0.15420432658527844
22.796872,4.080280425265733,0.15377187474193338
22.799252000000003,4.097693031647801,0.153335833786197
22.801656,4.118178673962925,0.1528011977288974
22.80404,4.132937553292518,0.15243401437114334
22.806420000000003,4.143971770382998,0.15216375512335933
22.808824,4.155145757100337,0.1518846337415005
22.811212,4.169113240497012,0.15154134449118303
22.813592,4.185222594266965,0.1511221035184499
22.815996,4.202263113596695,0.15067913191142554
22.818384,4.225449704792536,0.15005773474727227
22.820764000000004,4.241698828189347,0.14963580861939127
22.82316,4.253943750093326,0.14932566375779865
22.825548,4.267911233490001,0.1489884003377331
22.827928,4.277874515393842,0.1487644750076896
22.830332,4.284624991737767,0.14864607793984577
22.832716,4.28536916584244,0.14870590128555394
22.835096,4.283599382521501,0.14880850232991358
22.837496,4.278384476215169,0.148977321038534
22.83988,4.270003986177165,0.1491838135449939
22.842260000000003,4.264836301699075,0.1492825370541458
22.844664,4.259668617220986,0.14938025674657948
22.847052,4.256223494235592,0.14944500904052918
22.849432,4.2521267449441424,0.14950458813975545
22.851832,4.248029995652691,0.14956486598729252
22.854216,4.246075116734518,0.14955396491745124
22.8566,4.239324640390593,0.14966959761710832
22.858996,4.230572063300251,0.14983998688014966
22.861384,4.222750651769686,0.14998683211603045
22.863768,4.2149292402391225,0.15013310686956938
22.86616,4.196957555349615,0.15057590263654136
22.868548000000004,4.187273812699494,0.1507629584791975
22.870928,4.1829447459825655,0.1507781085375563
22.873324000000004,4.1761017218400225,0.15083154392649462
22.875712,4.1734026688171735,0.15076081120440252
22.878096,4.173916421354241,0.15058520490234223
22.880492000000004,4.178154836130421,0.15031981047179957
22.88288,4.184255582026158,0.15000847856501767
22.88526,4.191287493481673,0.14967140050195285
22.887656,4.19696893049683,0.1493939938872768
22.890044000000003,4.201439662698487,0.1491668138985599
22.892424,4.206981330086783,0.1489064755086409
22.894824,4.212243458221359,0.14867394637529296
22.897208,4.21187137116902,0.1486439677886811
22.899608,4.211499284116682,0.14861389591170507
22.902004,4.21513139855718,0.14846982466146907
22.904392,4.220765613744093,0.14826537024414005
22.906772000000004,4.222535397065033,0.14816338343661636
22.909172,4.224165410759112,0.14807525389183446
22.91156,4.22537611557261,0.1480264417074067
22.913940000000004,4.235386619304696,0.14773353885791496
22.916344,4.237388720051112,0.14767579159092134
22.918728,4.234455453744916,0.14775597728631595
22.921108000000004,4.231382417811861,0.14784912595505442
22.923504,4.22509657631889,0.14804958015844782
22.925892000000005,4.2205332963186155,0.14821677865106314
22.928272,4.215178620385422,0.14839227785892162
22.930676,4.212477671504705,0.148513123276507
22.933064,4.209916492250847,0.14862170992429694
22.935444000000004,4.210428348930044,0.14863863149396808
22.93784,4.211359514489823,0.14861664381524542
22.940228,4.209497183370266,0.14866028415243837
22.942612000000004,4.205772521131154,0.14874785491410136
22.945008,4.212477671504706,0.1485146676326652
22.947392,4.221045152997814,0.14823802658152715
22.949776,4.223606332251671,0.14813207132756992
22.952172000000004,4.228961008184863,0.14796306042148685
22.95456,4.242463856730584,0.1475659230262384
22.956940000000003,4.257037640462942,0.14714066699590866
22.959336,4.272170502702742,0.14666544826475467
22.961724000000004,4.279574501210594,0.14638002493279526
22.96412,4.290563392330699,0.1460217318633479
22.966516,4.305416715316779,0.14556475068308836
22.968904,4.318267937556442,0.14515884676202112
22.971284000000004,4.336334066102437,0.1445981189260821
22.97368,4.354679733902152,0.14402202455086593
22.976068,4.375958668008062,0.14338069571641582
22.978452000000004,4.394723644688359,0.14278359997799758
22.980848,4.418144449167546,0.1420952923069836
22.983236,4.441565253646733,0.1414136304111906
22.985616,4.466708619618617,0.14071271924674514
22.988016,4.4915724463367805,0.14003091142751128
22.9904,4.519788848241721,0.1392469142889163
22.992780000000003,4.543069883094048,0.1386051168274609
22.995176,4.565559522013457,0.13797311192522607
22.997564000000004,4.587117995373087,0.13735316190501393
22.99996,4.60709367686688,0.13675244755872784
23.002356,4.619060955375008,0.13635047532224626
23.004744,4.628234737203801,0.13600458084424674
23.007124000000005,4.6392708501521485,0.13562669112419506
23.009528000000003,4.656313265339749,0.1351048978251536
23.011912,4.672704054221291,0.13457953395791317
23.014292,4.692028109409028,0.13400062040312916
23.016692,4.713773574223762,0.13333843051452587
23.019076,4.730583671985886,0.1327895004714908
23.021456,4.743389568255174,0.1323335332857444
23.023856,4.750189162285212,0.13201526960295576
23.02624,4.7576403826213065,0.13170396780511892
23.028624,4.758573444038953,0.13151255872760867
23.03102,4.758575339896822,0.13133851189592882
23.033408,4.7575063005680525,0.13119324298938634
23.035788000000004,4.755645865306366,0.1310527742046285
23.038188,4.751783329298261,0.13095689165608004
23.040576,4.742566117356965,0.13100078118959832
23.042956000000004,4.733348905415668,0.13104420429724992
23.04536,4.726273563847648,0.13103192979881417
23.047744,4.719058452652768,0.1310303886761118
23.050128,4.713705672577444,0.13099595933656202
23.052524,4.711425928435177,0.13088802052966178
23.054912,4.705002213173215,0.1308809024583241
23.057292000000004,4.697507562724615,0.13090034500410264
23.059692,4.691223617089514,0.13088020351503
23.062076,4.682146174775077,0.13090628450617411
23.064472,4.67264942358006,0.13096456457194525
23.066868,4.668088039437654,0.13092168048517627
23.06926,4.667670626414942,0.13078343041557536
23.07164,4.67419068119126,0.13050419193112117
23.074040000000004,4.678988174474881,0.1302453535592667
23.076424000000003,4.688581265184253,0.12989803917706694
23.078804,4.695241089587431,0.1296059886545841
23.081208000000004,4.698316021378356,0.129364600764395
23.083592000000003,4.706466089848753,0.1290133698526047
23.085972,4.7143366190654294,0.12868455885380045
23.088368000000003,4.729563924961715,0.1281795606974108
23.090756,4.747724497164196,0.12762330593081989
23.093136,4.764394825299458,0.12712445599302338
23.095532,4.782927484554276,0.1265990028674169
23.09792,4.804393410115291,0.12601912525333303
23.100296,4.82143582530289,0.12555480163584423
23.102704000000003,4.843413607543101,0.12499451131521971
23.105088,4.861387188290479,0.12451347598439445
23.107472,4.8760081938510815,0.12412113183945156
23.109876,4.886624997918849,0.12381015384881423
23.11226,4.8973815716134785,0.12348866107711487
23.114644,4.902411382322577,0.12327007707336579
23.117040000000003,4.906230488218177,0.12309026203992324
23.119424,4.903251895941607,0.12303596990091438
23.121808,4.902135634784594,0.12295213092279249
23.124204,4.8998086688140825,0.12290434106368102
23.126588,4.903208465829102,0.1227590403539807
23.128972000000005,4.912195256202791,0.12252729872830526
23.131368,4.917969241016564,0.12237250939156394
23.133756,4.9237432258303375,0.12221772005482262
23.136152000000003,4.926583944337915,0.12211727548372685
23.138548,4.924768835046602,0.1220863181754734
23.140936000000004,4.925514905009146,0.12197623605488017
23.143316,4.923467478292355,0.12190742849466313
23.145712000000003,4.918486785269369,0.1218896588782342
23.1481,4.917929602619797,0.12176632516271324
23.15048,4.913927296984833,0.12167659640217598
23.152880000000003,4.915931293589119,0.12147624615484413
23.155264000000003,4.919937390939822,0.12123777687466615
23.157644,4.929670251276055,0.12090848501506378
23.160044,4.942336377918484,0.12053275174813927
23.162428,4.958866936426887,0.12009261509629637
23.164812,4.9744663293755105,0.11966787429529008
23.167208,4.992998988630328,0.11918965632850893
23.169596,5.00938977751187,0.11875858733639162
23.171988,5.024849400833633,0.1183420581565184
23.174388,5.037375757849201,0.11797895165443345
23.176772,5.046968848558574,0.11766800361488687
23.179156,5.057632874454585,0.11733528320085225
23.181552000000003,5.068576439604318,0.11698317832466988
23.18394,5.0792404655003285,0.11665166557752032
23.18632,5.090136808821817,0.11635453176509108
23.188716,5.100474073635865,0.11609963582226235
23.191104000000003,5.110531799196193,0.11586335656496448
23.193484,5.121520690316298,0.11561344775805013
23.195884,5.12808607106299,0.11546573239609832
23.198272000000003,5.133952603675381,0.11536776872369103
23.200652,5.136094474048657,0.11532216515382397
23.203048000000003,5.139307279608573,0.11525404789105607
23.205436,5.138655653302514,0.11524674699085188
23.207832000000003,5.133068659943844,0.11532178147839024
23.210228,5.126131192144816,0.11543852572587128
