Time,Force,Position
3.83572,0.2597039847029092,0.0
3.838060000000001,0.2434667185970705,0.0
3.840404,0.2262982869314535,0.0
3.842739999999999,0.20512565377300282,0.0
3.84508,0.18516372542805082,0.0
3.847424,0.16240830040376392,0.0
3.849764,0.14086358019297573,0.0
3.852108,0.1171769896089105,0.0
3.854452,0.09763437014453918,0.0
3.8567959999999992,0.0791626858668064,0.0
3.859131999999999,0.06362426789526879,0.0
3.861476,0.05101911622992633,0.0
3.8638239999999993,0.03962466937808263,0.0
3.866176,0.03237419364593284,0.0
3.868516,0.02419255235400472,0.0
3.87086,0.022422769033065136,0.0
3.873208,0.018245329233970722,0.0
3.875548,0.012205558315319668,0.0
3.877896,0.006165787396668614,0.0
3.880240000000001,0.002407656478154831,0.0
3.882579999999999,0.002407656478154831,0.0
3.884924,0.002407656478154831,0.0
3.887267999999999,0.002407656478154831,0.0
3.889607999999999,0.002407656478154831,0.0
3.891944000000001,0.002407656478154831,0.0
3.894292,0.002407656478154831,0.0
3.896635999999999,0.002407656478154831,0.0
3.89898,0.002407656478154831,0.0
3.90132,0.002407656478154831,0.0
3.903663999999999,0.002407656478154831,0.0
3.906012000000001,0.002407656478154831,0.0
3.908348,0.002407656478154831,0.0
3.910691999999999,0.002407656478154831,0.0
3.9130439999999993,0.002407656478154831,0.0
3.915379999999999,0.002407656478154831,0.0
3.917724,0.0,0.0
3.920064,0.0,0.0
3.922407999999999,0.0,0.0
3.9247479999999992,0.0,0.0
3.927092,0.0,0.0
3.92944,0.0,0.0
3.9317759999999993,0.0,0.0
3.93412,0.0,0.0
3.936468,0.0,0.0
3.938808,0.0,0.0
3.941148,0.0,0.0
3.943491999999999,0.0,0.0
3.9458439999999992,0.0,0.0
3.948179999999999,0.0,0.0
3.950524,0.0,0.0
3.9528719999999993,0.0,0.0
3.955207999999999,0.0,0.0
3.957552,0.0,0.0
3.959896000000001,0.0,0.0
3.962235999999999,0.0,0.0
3.964575999999999,0.0,0.0
3.966916,0.0,0.0
3.969263999999999,0.0,0.0
3.971608,0.0,0.0
3.9739520000000006,0.0,0.0
3.976296,0.0,0.0
3.9786319999999993,0.0,0.0
3.980972,0.0,0.0
3.983316,0.0,0.0
3.9856599999999993,0.0,0.0
3.988,0.0,0.0
3.990344,0.0,0.0
3.9926879999999993,0.0,0.0
3.995035999999999,0.0,0.0
3.997372,0.0,0.0
3.999716,0.0,0.0
4.002068,0.0,0.0
4.004412,0.0,0.0
4.006755999999999,0.0,0.0
4.0091,0.0008248646123186106,0.0
4.011448,0.0024411251575553313,0.0
4.013783999999999,0.0024411251575553313,0.0
4.016131999999999,0.0024411251575553313,0.0
4.018483999999999,0.0024411251575553313,0.0
4.020828,0.0024411251575553313,0.0
4.023171999999999,0.0024411251575553313,0.0
4.025516,0.0024411251575553313,0.0
4.02786,0.0024411251575553313,0.0
4.030192,0.0024411251575553313,0.0
4.032539999999999,0.0024411251575553313,0.0
4.034891999999999,0.0024411251575553313,0.0
4.037232,0.0024411251575553313,0.0
4.039576,0.0024411251575553313,0.0
4.041919999999999,0.0024411251575553313,0.0
4.04426,0.0024411251575553318,0.0
4.046604,0.0024411251575553318,0.0
4.048947999999999,0.0024411251575553318,0.0
4.0513,0.0024411251575553318,0.0
4.053635999999999,0.0024411251575553318,0.0
4.05598,0.0016162605452367212,0.0
4.058328,0.0,0.0
4.060663999999999,0.0,0.0
4.0630120000000005,0.0,0.0
4.065356,0.0,0.0
4.067703999999999,0.0,0.0
4.070043999999999,0.0,0.0
4.072388,0.0,0.0
4.07474,0.0,0.0
4.0770800000000005,0.0,0.0
4.079419999999999,0.0,0.0
4.081764,0.0,0.0
4.084104,0.0,0.0
4.086444,0.0,0.0
4.088787999999999,0.0,0.0
4.091132,0.0,0.0
4.093463999999999,0.0,0.0
4.095803999999999,0.0,0.0
4.098148,0.0,0.0
4.100491999999999,0.0,0.0
4.102831999999999,0.0,0.0
4.105176,0.0,0.0
4.107516,0.0,0.0
4.109848,0.0,0.0
4.112188,0.0,0.0
4.1145320000000005,0.0,0.0
4.116876,0.0,0.0
4.119211999999999,0.0,0.0
4.121556,0.0,0.0
4.123899999999999,0.0,0.0
4.126239999999999,0.0,0.0
4.12858,0.0,0.0
4.130924,0.0,0.0
4.133267999999999,0.0,0.0
4.135603999999999,0.0,0.0
4.137948,0.0,0.0
4.140295999999999,0.0,0.0
4.142643999999999,0.0,0.0
4.144983999999999,0.0,0.0
4.147328,0.0,0.0
4.149668,0.0,0.0
4.152004,0.0,0.0
4.154351999999999,0.0,0.0
4.156696,0.0,0.0
4.159048,0.0,0.0
4.161391999999999,0.0,0.0
4.163736,0.0,0.0
4.166076,0.0,0.0
4.168408,0.0,0.0
4.170755999999999,0.0,0.0
4.1731,0.0,0.0
4.17544,0.0,0.0
4.177788,0.0,0.0
4.180128,0.0,0.0
4.182471999999999,0.0,0.0
4.184808,0.0,0.0
4.187156,0.0,0.0
4.189499999999999,0.008119252600731014,0.0
4.191839999999999,0.038210599868065756,0.0
4.194184,0.0828719391520208,0.012800904075508508
4.196527999999999,0.12915950041431676,0.026781789158979778
4.198876,0.18233351593165992,0.04095385873957422
4.201212,0.2519379587273108,0.05378546701678653
4.203564,0.35068428141407154,0.06432447276003952
4.205904,0.4714499205956792,0.07386993623756988
4.208247999999999,0.6045511336220131,0.08313688646330106
4.210592,0.7399301949327456,0.0928468685697478
4.212932,0.8861999119913593,0.10259931480654973
4.2152840000000005,1.0549535803957741,0.11184424866965637
4.21762,1.2454470260413157,0.12064040354314784
4.219963999999999,1.4520007077706967,0.12918646323928673
4.2223120000000005,1.6613913162919172,0.13797134252935
4.224648,1.881160723881821,0.14681730263409057
4.226991999999999,2.1181066287125767,0.15551500545026756
4.229348,2.3751641929482488,0.16384705322249182
4.231688,2.647027858341757,0.17181081842204055
4.23404,2.9194978240709486,0.17967968445439003
4.236383999999999,3.176678751974904,0.18768099222228785
4.238724,3.408115701144899,0.19581781877652252
4.241068,3.629731033895782,0.19109745923995622
4.243411999999999,3.8578683172808517,0.18499115576424946
4.245763999999999,4.081355460440638,0.17853119713040227
4.248104,4.28506149699321,0.1733571963548886
4.250448,4.448172127683612,0.17072145986575188
4.252792,4.581068047438395,0.16935382045153646
4.255136,4.702791876333708,0.16827840852305437
4.257467999999999,4.829222546571895,0.16652733579173004
4.259812,4.945089322144164,0.1646566940963949
4.262155999999999,5.031115369691022,0.16350004132314575
4.264495999999999,5.089580433354737,0.16304836367535516
4.26684,5.134451996531985,0.16286160332240135
4.269183999999999,5.186776675903198,0.16214697388504223
4.2715320000000006,5.229328856541412,0.16127244700609167
4.273876,5.249536855460683,0.1606343341430367
4.276228,5.2465129372137405,0.16050382752914819
4.278575999999999,5.225702429674523,0.1608756319751804
4.280932,5.208988671426755,0.16117721111852298
4.283275999999999,5.202192869112455,0.16118219670387024
4.285615999999999,5.196794763066758,0.16107970933191637
4.28796,5.1833882540353935,0.16118699482082496
4.290291999999999,5.167233574295067,0.16144249834131197
4.292643999999999,5.154941430562846,0.16175143106327192
4.294984,5.145860196532671,0.16212557688328355
4.297328,5.150234589219972,0.16220401755205865
4.299671999999999,5.165690420825997,0.1619935921400474
4.302016,5.1844516057905565,0.16173824672277445
4.304356,5.202466720792571,0.16160666710183663
4.306692,5.2216453187798395,0.1614943693548191
4.309044,5.247436519342042,0.16113156433971867
4.311392,5.28053917061348,0.16045543130899712
4.313727999999999,5.312478338899663,0.1597690885767396
4.316072,5.339434918304991,0.15928897269844566
4.31842,5.36871846368083,0.15884843702495183
4.3207640000000005,5.404520167975117,0.15827515282086976
4.323108,5.446235626710038,0.15751185631751985
4.325452,5.497402510669603,0.15655395419312837
4.3278,5.5503372820922365,0.15570313910212333
4.33014,5.600523882805911,0.15501647583356531
4.332483999999999,5.655086772064758,0.15426347370743615
4.3348320000000005,5.716913890204593,0.15328185639770117
4.337176,5.77627427274706,0.15230714661808342
4.339516,5.827533704505242,0.15147813064844287
4.3418600000000005,5.881354315517282,0.15057620187565424
4.344204,5.932009342797647,0.14970944031817737
4.346539999999999,5.9804771737343625,0.1488144320235185
4.348879999999999,6.023684772394374,0.14795585489920102
4.351227999999999,6.061445147322573,0.14720091550166123
4.353567999999999,6.098366904489612,0.14650707284084014
4.355912,6.139757498000439,0.14580314718676668
4.358255999999999,6.175374106697492,0.14524443447782906
4.360595999999999,6.210618628342208,0.14466733929839612
4.36294,6.238413825508697,0.1442177787154936
4.365283999999999,6.266069253048326,0.14378595796866137
4.367623999999999,6.2922344365207366,0.14340719271857696
4.369964,6.314163101074835,0.1430785795496329
4.372308,6.3315303814865285,0.14273762393563866
4.374651999999999,6.340332076262983,0.14245312136692967
4.377004,6.3502047062260765,0.14214661412134108
4.379348,6.357563378763555,0.14186654842562915
4.381696,6.361476928315641,0.1416278697297749
4.384043999999999,6.359943254135917,0.14146343808982262
4.386388,6.3614826158892495,0.1412404017729428
4.388731999999999,6.360972655067921,0.1410999588979512
4.391076,6.362929429843964,0.1409812666029546
4.393419999999999,6.361533629433231,0.14093726022285413
4.395756,6.360696907529939,0.14085908878185352
4.398104,6.358137624133951,0.14079974371488127
4.400447999999999,6.357440671857519,0.14071346125518314
4.402792,6.352087891782195,0.14069479589454587
4.405139999999999,6.352276779095168,0.1405119563570691
4.40748,6.3489279956241305,0.14032846434448643
4.409832,6.345858751406814,0.1401270862047279
4.4121760000000005,6.337434831256305,0.14003749908591695
4.41452,6.332363486292571,0.13987274763552862
4.416867999999999,6.327571680582557,0.1396901433134146
4.419212,6.314631702260017,0.13965926833931377
4.421555999999999,6.3002940276688735,0.13971676959524415
4.423912,6.286048900876348,0.1398119082837843
4.426264,6.274177961882576,0.13989024879976528
4.4286080000000005,6.25965329583633,0.1400009679198103
4.430952,6.245128629790083,0.1401137374974793
4.433299999999999,6.229253489303478,0.14026639271959299
4.435636000000001,6.215799758443869,0.1403552641879695
4.43798,6.197877191240472,0.14045932706769731
4.440332,6.1827953425446545,0.14047403889540744
4.4426760000000005,6.166083480154757,0.1405465984916684
4.44502,6.151606035936755,0.14061249168957735
4.447364,6.1343350950394155,0.14072001989720445
4.449719999999999,6.11655229746288,0.14081621628358137
4.452064,6.094857846192128,0.1410237264210974
4.454416,6.073348490518609,0.14131253184537862
4.456764,6.055935884136541,0.141565873605955
4.459111999999999,6.046671450367001,0.14166009720565248
4.461456,6.035684455104764,0.14177090601031336
4.463799999999999,6.02334698540217,0.14192281733396717
4.466144,6.018039531297219,0.14199040831264254
4.468484,6.019669544991299,0.14193177148354968
4.470832,6.022417715700261,0.14180308638393643
4.473179999999999,6.02078959786405,0.14172744737953985
4.475524,6.017391696706901,0.14171915955835448
4.477864,6.018881940774119,0.14166904412523196
4.480216,6.023957077453592,0.14157078139220397
4.482552,6.028101048573285,0.14148796578430295
4.484895999999999,6.038483639357707,0.14132457003798507
4.487235999999999,6.0511931961126395,0.14119506291019338
4.489583999999999,6.067068336599245,0.14104391674423383
4.49192,6.083782094847011,0.14084241757591315
4.494263999999999,6.10133447085594,0.14058934370106133
4.496611999999999,6.12261150910398,0.1402832542389824
4.498956,6.150546475897331,0.13987503419285718
4.5013000000000005,6.1856984497434295,0.13933062187873496
4.503639999999999,6.2207578757909125,0.13875494531518934
4.505984,6.251068926240885,0.13822048161497297
4.508328000000001,6.280029502250498,0.13772822158695466
4.510672,6.31508892829798,0.13717223964929315
4.513019999999999,6.349217188785684,0.13662957951021
4.515359999999999,6.379388469608798,0.13611436487955664
4.517704,6.407417880058634,0.13564574761060263
4.520047999999999,6.436098916814528,0.13517571956200694
4.5223960000000005,6.4715776517425905,0.13459753085386575
4.524735999999999,6.507895004431814,0.13397888835670166
4.52708,6.539463981523528,0.13338955347313589
4.52942,6.566796439696932,0.13283844789660018
4.531763999999999,6.5911956315641405,0.13233808361295657
4.534103999999999,6.6132206356325955,0.131853287288905
4.536451999999999,6.636643335969652,0.13129284032516816
4.538791999999999,6.654339273321178,0.13081211708871832
4.541136,6.673478232911681,0.1303351728429537
4.543483999999999,6.689264617315408,0.12992781168347559
4.545819999999999,6.700255404293383,0.1295906785293085
4.548164,6.7057989675395495,0.12931841817884834
4.550507999999999,6.709619969293017,0.12906275744571893
4.552852,6.711671187725546,0.12886575869091071
4.555199999999999,6.713722406158076,0.12866889093450434
4.55754,6.712608040858932,0.12848710118053672
4.559887999999999,6.711912984440369,0.128281997119388
4.562232,6.713871655074281,0.12805178157797584
4.564572,6.716901260894833,0.1278033642161937
4.56692,6.724074837835078,0.12748804609752148
4.56926,6.726732356603291,0.12722067917731755
4.571612,6.72538567387867,0.12701304531655183
4.573948,6.72948621488586,0.12674953766316743
4.576295999999999,6.734890008505166,0.12649359036299995
4.578647999999999,6.741504506937969,0.12621255067454704
4.580988,6.7462566742512164,0.12595228009677015
4.583332,6.750170223803302,0.12573988669262376
4.5856840000000005,6.763535198580032,0.12541629470329924
4.588028,6.7770399429836194,0.12508840296997065
4.590375999999999,6.791755392200709,0.12473449111438653
4.592715999999999,6.807262237350716,0.1243772611978799
4.595068,6.822489543247,0.12403415428960882
4.597403999999999,6.83543520914315,0.1237338578796285
4.599748,6.848520644666159,0.12342497386507582
4.602096,6.86053514500253,0.1231337322939707
4.60444,6.872130336458319,0.1228657939957166
4.6067800000000005,6.8865190245934444,0.12256930552065502
4.609124,6.896763741608874,0.12233674744271676
4.611464,6.904726818624168,0.1221474341431258
4.6138,6.909197550825826,0.122026790530109
4.616144,6.917253175639736,0.12187311671176619
4.618487999999999,6.925169030826786,0.12172641659087677
4.620835999999999,6.929360223774723,0.12162171684643001
4.62318,6.93490189116302,0.12148441784073072
4.625524,6.9370909833645396,0.12140714670941606
4.627863999999999,6.944075672991812,0.12127257478631782
4.630203999999999,6.947335700379971,0.12117809338503434
4.632548,6.941935698476404,0.12118828333151435
4.634896,6.936535696572838,0.12119787601212964
4.63724,6.93206686022905,0.1211975502254769
4.639583999999999,6.927458254258402,0.12120459940663404
4.641924,6.924572209780449,0.12119955763941778
4.644268,6.9264817627282484,0.12113864742970926
4.646611999999999,6.931976208288302,0.12104673014500439
4.648963999999999,6.938541589034993,0.12093773920500783
4.651311999999999,6.945106969781684,0.12082874826501128
4.653656,6.9478079186624,0.12076602277427796
4.655999999999999,6.95665493940923,0.12061770873987578
4.658344,6.968574996089114,0.12042683384204951
4.660691999999999,6.981845527209357,0.12020413778671384
4.663027999999999,6.992834418329462,0.12002282759546652
4.665379999999999,7.005685640569125,0.11982257101519075
4.667724,7.017838014674487,0.11965827784040908
4.670064,7.0335752813921015,0.11946572304112099
4.672407999999999,7.056250015908745,0.11918835978031361
4.674752,7.0778538152387505,0.11893130476064892
4.677104,7.102251111248091,0.11864616281880694
4.679444,7.1322354006161,0.11830599514122023
4.681787999999999,7.157935949237555,0.11803089822090801
4.684139999999999,7.182565562672372,0.11777300082619385
4.686472,7.208545650547547,0.11748575279378175
4.688815999999999,7.234945047303304,0.11717908632709727
4.6911760000000005,7.259342343312643,0.11690048795240104
4.693512,7.280946142642649,0.11665043314159806
4.695864,7.305343438651988,0.11637631569861058
4.6982040000000005,7.332813770594383,0.11606483046979198
4.700543999999999,7.362937829589253,0.11573526513919093
4.70288,7.388917917464429,0.11546445989592337
4.705219999999999,7.411173343100492,0.1152282874353583
4.707568,7.438364135789166,0.1149404895100225
4.709904,7.46718494217192,0.11461155741243893
4.712244,7.497495992621893,0.11425099580856986
4.714587999999999,7.529716596019666,0.11383640971239319
4.7169360000000005,7.557421141245408,0.11345952012771332
4.71928,7.5764656571794236,0.11317001396275705
4.72162,7.593787611620745,0.11289166987196263
4.7239640000000005,7.611528874942644,0.11259522184122248
4.726303999999999,7.623822914532736,0.11233989214017556
4.728648,7.6377469678169065,0.1120423849805534
4.7309920000000005,7.65008822923524,0.11174692418640822
4.733331999999999,7.660706929160877,0.11146153318599998
4.735671999999999,7.672536333900013,0.11115744557623437
4.738016,7.6827829467733135,0.11085614788150969
4.740359999999999,7.692517702967416,0.11054290606885891
4.742708,7.698667566549265,0.11025539008867222
4.745047999999999,7.7023034727055,0.10997956102219725
4.747392,7.704356586995899,0.1097067874727235
4.749736,7.7048269094204604,0.10943560076105413
4.752079999999999,7.708230498151219,0.10913509817160812
4.754427999999999,7.708188963896584,0.10885429420654963
4.756767999999999,7.705214163335754,0.10860183052645284
4.759112,7.700097492401645,0.10837729348538958
4.761455999999999,7.692978720721121,0.10817347504858439
4.7638,7.687722280160153,0.1079552716938589
4.766152,7.6866098107188785,0.10768828943806731
4.768488,7.6844264060909655,0.10743467816968344
4.770835999999999,7.681032296649554,0.10720132044153773
4.7731840000000005,7.681782158327837,0.10691994133360162
4.775528,7.681321315192621,0.10665766129230382
4.777872,7.685795839110016,0.10634788578027554
4.780215999999999,7.69092198933347,0.10604374599113171
4.78256,7.692835333997008,0.10578050673684818
4.7849,7.695819613847185,0.10550394773964747
4.7872520000000005,7.699874828884,0.10521429996760835
4.789596,7.703790274293956,0.1049304827382242
4.791936,7.705284310076914,0.10468549850329052
4.794276,7.706638576233011,0.1044470318255797
4.796624,7.710646569441585,0.10419413120867382
4.798959999999999,7.7127922315306,0.10395523969358926
4.801304,7.71116600955226,0.10378111759231756
4.803644,7.713124680186172,0.10358615588337913
4.805996,7.7148038115663615,0.10340395793074564
4.808323999999999,7.7182055044392515,0.10321482010433265
4.810668,7.716671830259527,0.10307159539834133
4.81302,7.715789782385861,0.10293450551294413
4.815363999999999,7.715838900071973,0.10279056992601035
4.817703999999999,7.714305225892248,0.10264715880129568
4.820048,7.710350142085527,0.10254247299626355
4.822391999999999,7.712121821264336,0.10239187909027685
4.824731999999999,7.713474191562565,0.10226137977976714
4.827076,7.718039367420708,0.10209375031640146
4.829428,7.724606644025268,0.10190737344170965
4.831776,7.732616942868805,0.10172767541453746
4.83412,7.7388574583914025,0.10159126271873697
4.836463999999999,7.748171009847055,0.10142422876085999
4.838816,7.758695266116207,0.1012379188042214
4.841151999999999,7.767496960892661,0.10105776296472939
4.843496,7.773644928616641,0.10089031236963315
4.845839999999999,7.7816552274601785,0.10071066118458664
4.848179999999999,7.791435309624655,0.10048684677894665
4.850524,7.799772369550154,0.10025821520362405
4.852867999999999,7.804664306490261,0.10004104942958719
4.855207999999999,7.808485308243731,0.09983682096782391
4.857552,7.820314712982866,0.09955866395776686
4.8599,7.836567628095416,0.09922926183691096
4.862288,7.850027046528633,0.0989168996273396
4.864668,7.8650692568276845,0.09860438879314674
4.867072,7.883464042313512,0.09825046329156907
4.869463999999999,7.895200899254031,0.09794571393602775
4.871843999999999,7.901490532462741,0.09767098979744061
4.87426,7.9017738634322,0.09745044659379953
4.876647999999999,7.899263697722324,0.09724744254971457
4.879028,7.894519113840553,0.09703791420470026
4.881444,7.89354641402614,0.09676879262248232
4.883827999999999,7.892573714211725,0.09650114914403995
4.886208,7.894394511076645,0.09621703342785179
4.888608,7.899288343874622,0.09590412099938896
4.890996,7.908977774098351,0.09555826403995121
4.893376,7.917875808389161,0.09521310011496109
4.895771999999999,7.924352433052975,0.09490157808101894
4.898159999999999,7.931480684022845,0.0945975401998647
4.90054,7.9434045324184686,0.0942594797905554
4.902951999999999,7.955607920067812,0.09391007807528048
4.905339999999999,7.9658092069707385,0.09358120151847198
4.907736,7.96450974607436,0.09336366235652986
4.910131999999999,7.970427292230733,0.09308057312582768
4.912519999999999,7.978486708760382,0.092776514875241
4.914899999999999,7.985335420476533,0.09249107356991526
4.917304,7.995257168125739,0.09217792876149344
4.919692,8.009043347640919,0.09183836243133192
