Time,Force,Position
4.159304,0.006414567085664676,0.0
4.1616480000000005,0.006414567085664676,0.0
4.163988000000001,0.006414567085664676,0.0
4.166332,0.006414567085664676,0.0
4.168672,0.006414567085664676,0.0
4.171016000000001,0.004806030101289715,0.0
4.173355999999999,0.004806030101289715,0.0
4.175695999999999,0.004806030101289715,0.0
4.17804,0.004806030101289715,0.0
4.18038,0.004806030101289715,0.0
4.182716,0.008044580779744046,0.0
4.185059999999999,0.011283131458198377,0.0
4.187396000000001,0.01265935101709607,0.0
4.189736000000001,0.018039772068827464,0.0
4.19208,0.025422293866975705,0.0
4.194424000000001,0.03173388047848542,0.0
4.196768,0.034155290105482905,0.0
4.19912,0.036297160478759964,0.0
4.201467999999999,0.035785303799562275,0.0
4.203808,0.03778740454597913,0.0
4.206152,0.04316782559771052,0.0
4.208492000000001,0.05027080814213834,0.0
4.210836,0.056582394753648055,0.0
4.213188,0.06289398136515777,0.0
4.215523999999999,0.07241837353658308,0.0
4.217872000000001,0.08180299608114816,0.0
4.220216,0.09225855381235179,0.0
4.222568,0.10378504673019397,0.0
4.224908,0.1142406044613976,0.0
4.227251999999999,0.12376499663282291,0.0
4.229591999999999,0.12497570144632164,0.0
4.231932,0.1271175718195987,0.0
4.234276,0.13377550036490715,0.0
4.236624,0.13242502592454822,0.0
4.238964,0.128792911484052,0.0
4.241307999999999,0.12422963148377744,0.0
4.243647999999999,0.12446194890925472,0.0
4.245992,0.12483403596159219,0.0
4.248335999999999,0.12785985006640443,0.0
4.250676,0.12930287230538043,0.0
4.253024000000001,0.1248793619319661,0.0
4.255356,0.11777637938753827,0.0
4.257700000000001,0.1116303075214275,0.0
4.260052000000001,0.10562400528217696,0.0
4.2623880000000005,0.09747583266964933,0.0
4.264724,0.08867603375106382,0.0
4.267067999999999,0.0782204760198602,0.0
4.269412,0.06669398310201805,0.0
4.271752,0.05623842537081441,0.0
4.274095999999999,0.04715908719850848,0.0
4.276452,0.04501721682523142,0.0
4.278796000000001,0.0416646416384556,0.0
4.28114,0.03458740421256652,0.0
4.2834840000000005,0.034447634585706315,0.0
4.285824000000001,0.036869044212703796,0.0
4.288168,0.0442258208923133,0.0
4.290508,0.04972026645236616,0.0
4.292856,0.051070740892725106,0.0
4.295196,0.04855678346711057,0.0
4.297540000000001,0.04469235160113708,0.0
4.299884,0.04655468272069372,0.0
4.302228,0.05044485970520596,0.0
4.304564,0.0529588171308205,0.0
4.306908000000001,0.05519323530271462,0.0
4.3092440000000005,0.05381701574381693,0.0
4.311588,0.05323219211783734,0.0
4.313928,0.05335048503499314,0.0
4.3162720000000006,0.05453971313878748,0.0
4.318616,0.05453971313878747,0.0
4.320951999999999,0.0540946591396681,0.0
4.323296,0.05178727402099209,0.0
4.325640000000001,0.050017490700052514,0.0
4.327979999999999,0.05066911700611041,0.0
4.330324,0.049458412192611684,0.0
4.332668000000001,0.043286595207962165,0.0
4.335007999999999,0.03418151191711749,0.0
4.337344000000001,0.027755900797286313,0.0
4.339692,0.023472160050732188,0.0
4.342035999999999,0.023984016729929874,0.0
4.34438,0.025706578222626304,0.0
4.34672,0.025846347849486515,0.0
4.349063999999999,0.023844247103069666,0.0
4.351412000000001,0.022121685610373237,0.0
4.353748,0.022540994490953866,0.0
4.356096,0.027641876288964844,0.0
4.358448,0.03288252771383603,0.0
4.360791999999999,0.03814465584841162,0.0
4.363136,0.040333748049931825,0.0
4.365480000000001,0.0446432339150247,0.0
4.367819999999999,0.04988388533989588,0.0
4.370159999999999,0.05419337120498874,0.0
4.372508000000001,0.056382463406508945,0.0
4.374847999999999,0.05615014598103168,0.0
4.377192,0.05563828930183399,0.0
4.379536000000001,0.05873707035342811,0.0
4.38188,0.06090468584524391,0.0
4.38422,0.06053259879290643,0.0
4.386564000000001,0.0621626124869858,0.0
4.388912,0.06193029506150853,0.0
4.39126,0.06383984800930832,0.0
4.393596,0.06933429356936119,0.0
4.39594,0.0769706095026911,0.0
4.398288,0.08460692543602102,0.0
4.400628,0.08730787431673893,0.0
4.402968,0.08400252095820628,0.0
4.405312,0.0793466931593147,0.0
4.407660000000001,0.07562203092020141,0.0
4.4099960000000005,0.07511017424100372,0.0
4.41234,0.0728757560691096,0.0
4.414692,0.06971017233743718,0.0
4.417027999999999,0.0664048189789045,0.0
4.419379999999999,0.06589296229970683,0.0
4.421724,0.06738320636692598,0.0
4.42406,0.06521559087511017,0.0
4.426396,0.06211680982351604,0.0
4.428743999999999,0.05994919433170025,0.0
4.431095999999999,0.05857297477280256,0.0
4.433428,0.056125820027266335,0.0
4.435771999999999,0.05367866528173011,0.0
4.438116,0.04908964016291682,0.0
4.440460000000001,0.04063618317813006,0.0
4.442796,0.03111179100670475,0.0
4.445139999999999,0.022518564395057766,0.0
4.44748,0.016858604089605954,0.0
4.449824,0.01506307565012763,0.0
4.452168,0.014478252024148049,0.0
4.454508,0.012822493211529937,0.0
4.45686,0.009956029585413083,0.0
4.459196,0.00788096189221434,0.0
4.461548,0.005805894199015598,0.0
4.463895999999999,0.004801761692455386,0.0
4.4662440000000005,0.002866463626116853,0.0
4.468584000000001,0.0,0.0
4.470928,0.0,0.0
4.473272000000001,0.0,0.0
4.475604,0.0,0.0
4.477951999999999,0.0,0.0
4.480296,0.0,0.0
4.482640000000001,0.0,0.0
4.484984,0.0,0.0
4.487324,0.0,0.0
4.489676,0.0,0.0
4.492012,0.0,0.0
4.494364,0.0,0.0
4.496704,0.0,0.0
4.499052,0.0,0.0
4.501396000000001,0.010022977845538298,0.0
4.50374,0.040760123715938436,0.0
4.506087999999999,0.08629957902843613,0.011862390642631056
4.508432,0.1400306370659661,0.023346983325634327
4.510776000000001,0.201766306373425,0.034845270376538895
4.513124,0.276627049600659,0.04600395603004286
4.51546,0.3719224215990343,0.05629210636934385
4.517808,0.4861168523309581,0.06595458664113357
4.520164,0.6143694184003045,0.07523513717447725
4.5225,0.7525361486873794,0.08445082602809335
4.524848,0.899870973229639,0.09381104497776843
4.527188,1.0672683394907025,0.10286186853727733
4.52954,1.2585001315379265,0.1114682818664932
4.531884000000001,1.4684458867214647,0.11977441664266814
4.534232,1.6833704390701194,0.12823849111353525
4.53658,1.9097447256740958,0.13673884649106402
4.538924000000001,2.1525966613846235,0.14517863535528286
4.541263999999999,2.4181195398960558,0.1533411914525676
4.543608,2.704872234827286,0.16113399211375445
4.545955999999999,3.002194511998041,0.1686731448487715
4.5483,3.2757133193816865,0.17640449460454524
4.550648,3.5169246631425497,0.18438575256934875
4.552988,3.7510153393650194,0.18038779126128132
4.555332000000001,3.980359535847849,0.1767155407407928
4.557676,4.20509891807577,0.17288686030892686
4.560020000000001,4.410801367801151,0.16942872624379524
4.562359999999999,4.589178942784604,0.16694475491129557
4.564699999999999,4.745165114220875,0.16519415740217905
4.567044,4.891050129984312,0.163783179762793
4.569387999999999,5.02702098153002,0.16243706380313452
4.571732,5.152939795089009,0.1609117589581412
4.574072,5.252277908010745,0.15982870901027155
4.576415999999999,5.323078545519186,0.15934463735608145
4.57876,5.37497822843621,0.1592273775204561
4.581092000000001,5.425903315680951,0.15884958093745566
4.583436,5.460770062699723,0.15848108450454948
4.585780000000001,5.474410785014433,0.158231491536063
4.588124,5.458862405609792,0.15841016325001442
4.590464,5.422596066464551,0.15897092474116223
4.592808000000001,5.378693411385978,0.15970833545263696
4.595147999999999,5.350341031569917,0.16016472502530424
4.597484000000001,5.3286938021274075,0.1604434451112289
4.599832,5.292008154101584,0.16106698078804924
4.60218,5.261141816859909,0.1615756291456372
4.6045240000000005,5.231624058200724,0.1621652865736699
4.606868,5.206155827004745,0.16276678906335604
4.609212,5.186786445846635,0.16327500030509945
4.611555999999999,5.173423366927775,0.16363352997013675
4.613896,5.157918417635638,0.16404847514471915
4.61624,5.148140231329029,0.1643281715335228
4.618588,5.13873413207476,0.1646304445848498
4.620928,5.133891312820765,0.1647958719136923
4.623271999999999,5.133099916887847,0.1648053891832892
4.6256200000000005,5.133938534649008,0.16474021747953668
4.627956,5.137942736141842,0.1646406651807833
4.630292,5.14948880991152,0.16442794449029416
4.632636000000001,5.163129532226232,0.16420355853895263
4.634984,5.183008874205671,0.1638490563168297
4.637324,5.200466806558112,0.16357544447112304
4.639664000000001,5.221881718575144,0.16326613016879526
4.642024,5.250326646189822,0.1628512366080698
4.64436,5.289014394962061,0.1622291521734099
4.6467,5.336409394854269,0.16133358949963855
4.649044000000001,5.376542061723354,0.16056243639593734
4.651383999999999,5.414440310420545,0.15982294889350654
4.653724,5.457413695797208,0.15896489427356694
4.656068,5.496150562255559,0.15815518168283635
4.658423999999999,5.526134851623569,0.15748423176456422
4.660764,5.553512635767347,0.156806422434204
4.663108,5.5733938736046555,0.15633943685554944
4.665451999999999,5.598303026293193,0.15580896796174326
4.667803999999999,5.624747749019323,0.15531132538804177
4.670139999999999,5.649702227678234,0.15486850511632302
4.672484,5.674005080031088,0.15442637196396175
4.674824,5.688856507159297,0.15418509560803115
4.677167999999999,5.704080021339845,0.1539713267992563
4.679512,5.7259614640657,0.15362411215709185
4.681852,5.748681524552717,0.15321806251434053
4.684204,5.775872317241392,0.15263918720319136
4.6865440000000005,5.793519136906806,0.1522123254945228
4.688896000000001,5.799013582466859,0.15206777121746864
4.691244,5.799804978399777,0.1520605143046903
4.693587999999999,5.797383568772779,0.15213259444088686
4.695932,5.793379367279946,0.15221831539126568
4.698276000000001,5.78593004280172,0.15235106618317756
4.700624,5.7787130357489715,0.15251140944249567
4.702967999999999,5.7809002320926215,0.15254974547135755
4.705316000000001,5.795192580713392,0.15237751455578155
4.707664,5.815491231573411,0.15208572526119024
4.709992000000001,5.842634802433843,0.151618531197327
4.712336,5.858976473629273,0.15135964188704398
4.71468,5.87759978482484,0.1510418821537687
4.717023999999999,5.901997080834178,0.15057362644603117
4.719368,5.923648101992427,0.15010365244611354
4.721711999999999,5.94399587053856,0.14961966658005332
4.724060000000001,5.962621077591995,0.14916398754127813
4.726400000000001,5.977753939831793,0.14880696062824245
4.728744,5.996611464310706,0.1483947039259193
4.731091999999999,6.007740125057672,0.14812251933437204
4.733427999999999,6.018449476924057,0.14787346849724378
4.735767999999999,6.036608153268669,0.1474978818645404
4.738112,6.0619838366660295,0.1469792859475979
4.740464,6.092062569690526,0.1463397418776435
4.7428,6.114552208609935,0.14582269819505128
4.745144000000001,6.130244149357176,0.1454225418095537
4.747492,6.145144694171497,0.14503512246766684
4.7498320000000005,6.160604317493261,0.14462132564840102
4.752176,6.169965090777158,0.14429193232256765
4.75452,6.163868136597159,0.14423520140792326
4.756868,6.148691844244855,0.14435780098724213
4.759204,6.148321653050386,0.14420284074688058
4.761548,6.150093332229195,0.1440024824543303
4.763896,6.148652205848088,0.14387290506522318
4.766240000000001,6.150097123944933,0.14373842121082522
4.768584,6.160574158385841,0.14347976964683187
4.7709280000000005,6.173984459132944,0.14317430107572415
4.773276,6.189304312827846,0.14279746430627255
4.775612,6.195172741298107,0.14256752431314973
4.7779560000000005,6.2042067535000385,0.1423124266898459
4.7803,6.2209696294339185,0.14192829861843512
4.782644,6.2364292527556815,0.1415437738338227
4.784987999999999,6.244439551599219,0.14127513949037257
4.787328,6.249097275255979,0.1410816558793981
4.789668,6.261576410443305,0.1407983040412588
4.792004,6.292306769773859,0.1402289919141367
4.794348,6.323037129104412,0.13966740713599166
4.7967,6.350973991755631,0.13915652892665756
4.799040000000001,6.3803538766458265,0.13864797246006358
4.801384,6.424911949746194,0.13790721199367978
4.803728,6.477850512884568,0.13704702539443864
4.806068000000001,6.525341852291131,0.13628446128156937
4.808404,6.5695278383391615,0.13556038404196696
4.810752,6.611991262894496,0.13485409876453452
4.813096000000001,6.651661190770494,0.13418313575000793
4.815435999999999,6.687746226034241,0.13356524424550556
4.81778,6.720805447193175,0.13296596333988514
4.820124000000001,6.752933502792332,0.13238652932047032
4.822468,6.791160408429355,0.13174311413809794
4.824803999999999,6.83404314186527,0.13104121908348512
4.827152000000001,6.873201213062073,0.13039586351357424
4.829491999999999,6.909333470154062,0.12976356173296535
4.831836,6.942113152059276,0.1291934023118924
4.834180000000001,6.974193985830188,0.12865994391792238
4.836519999999999,7.004692027735265,0.12813304161062547
4.838871999999999,7.024016082923002,0.12775388327350495
4.841207999999999,7.040454093632788,0.12737605959348422
4.843556,7.05237604617054,0.12704601911739044
4.8459080000000005,7.0602937972154605,0.12677426979872378
4.848248000000001,7.0623450156479874,0.12658489746533075
4.850592,7.060579024042788,0.12640559080528468
4.852939999999999,7.058021636504668,0.12623049676057638
4.855284,7.055836336018886,0.1260747392324071
4.857627999999999,7.0545349792646395,0.12594952355151093
4.859972,7.057237824003226,0.12576801376381763
4.86232,7.057566480943059,0.1255958759588655
4.864655999999999,7.054542562696117,0.1254840107869958
4.867,7.055103537061426,0.12533972236462246
4.869344000000001,7.0599482521732915,0.125128527631756
4.871683999999999,7.0634897146730395,0.12490978713167612
4.874035999999999,7.065588154933812,0.12468929563835815
4.876376,7.070060782993339,0.12446205224753074
4.878716,7.07881715179942,0.12416725759826142
4.881052,7.089063764672719,0.12383377145165383
4.883396,7.101592017546156,0.12346013559875169
4.885744,7.11705353672579,0.12305233487428871
4.888091999999999,7.129674337397844,0.12271150994022911
4.890436,7.147742361801709,0.12232131152059603
4.892779999999999,7.169674818071547,0.12188421664466548
4.895124,7.194680310274441,0.12140554487199295
4.89746,7.216053688036837,0.1209965801333399
4.8998,7.23328309467954,0.12064832193897623
4.902144000000001,7.247719004642907,0.12032862370961463
4.904488,7.263273071621156,0.11995217117449421
4.906828,7.274822937106571,0.11962861487998117
4.909172000000001,7.287024428898044,0.11930995813826033
4.911523999999999,7.302438726249433,0.11894131421387147
4.913860000000001,7.308122059122458,0.11868946273497795
4.916204,7.30365511863654,0.11857492556305389
4.918548,7.297046307777344,0.11849330379410564
4.920888000000001,7.289878418410709,0.11844006013562082
4.923236,7.279637493111015,0.11842901016724183
4.925576,7.269117028557604,0.11843148815835094
4.927924,7.262460995870165,0.11838936103781195
4.930255999999999,7.253383553555729,0.11839340536359799
4.932604,7.240022370494738,0.11846168180782003
4.934948,7.232807259299857,0.11844737495625904
4.937292,7.2227986514256415,0.1184595120025079
4.939635999999999,7.211998647618508,0.1184731869185371
4.942036000000001,7.1981256078783185,0.118527009989548
4.944424000000001,7.187744912951767,0.11851977499173126
4.946815999999999,7.18029748433141,0.11847875249016178
4.94922,7.178576818696583,0.11837732134297936
4.951604000000001,7.176017535300595,0.11831748631230515
4.954007999999999,7.176671057464522,0.11821032004071594
4.9564,7.1783955148150875,0.11808770111856859
4.958796,7.178909267352154,0.11798790365182704
4.961192,7.185010013247891,0.11783483711942105
4.963576000000001,7.199398701383015,0.1175691144577806
4.965972,7.216069029518277,0.11726594860975631
4.968368000000001,7.235300536907396,0.11691124190120064
4.970756000000001,7.254671813923377,0.11654845490015811
4.973152,7.27232052944666,0.1161970012043094
4.975548000000001,7.284894108290471,0.11591220743135511
4.977936000000001,7.30096003194792,0.1155682162522944
4.980332,7.318236660418865,0.11519982225396203
4.982736,7.334721892956893,0.11483759483891047
4.985119999999999,7.348134089561865,0.11451325813415394
4.9875,7.363548386913254,0.1141672438802954
4.989904,7.384317360197836,0.1137483584802579
4.992292,7.406808894975114,0.11332259476633748
4.994672,7.426646702699917,0.11291488197577028
4.997076000000001,7.438755646692775,0.11258697265031038
4.999464000000001,7.451283899566212,0.11223894738779105
5.001843999999999,7.464743317999428,0.11188563684974132
5.00424,7.47391899568609,0.1115905657255889
5.006628,7.4833742126264715,0.11128259840466324
5.009008000000001,7.493108968820575,0.1109624911124194
5.011404,7.496697653148566,0.11071756371649731
5.013792,7.49758538859584,0.1105287881639373
5.016172,7.497122649602754,0.11036833348084679
5.018576,7.499732946542723,0.11017144070139157
5.020964,7.506067905721807,0.1099443573843201
5.023344000000001,7.5138931089681105,0.10968313935466073
5.02574,7.52250970814733,0.10942372558782584
5.028123999999999,7.5304746810204914,0.10915803188288214
5.030504,7.534295682773961,0.10894258710718124
5.032908,7.543331590833761,0.10866321831383775
5.035296,7.550225628520287,0.10841322386240068
5.037676,7.547900558407645,0.10826938507836023
5.040076,7.542502452361948,0.1081609327112165
5.042464,7.5437622748615585,0.1079950434633869
5.044844,7.5496779251600605,0.10779173955391987
5.04724,7.555314036204843,0.10760161072621553
5.049627999999999,7.5595996728092665,0.10743923691253036
5.052012,7.569239985346883,0.10720801148881352
5.054408,7.579392154563696,0.10698967956500464
5.056795999999999,7.591406654900066,0.10675905836422553
5.059176,7.60714581747555,0.1064990296618634
5.061571999999999,7.627448260051309,0.10617339198464802
5.063960000000001,7.649752803373483,0.10582910680338004
5.066356,7.669496167441801,0.1055321591881856
5.068756,7.685095560390425,0.1052833739548938
5.071143999999999,7.698925170018109,0.105079522589024
5.073524,7.706468938152822,0.10494916465117164
5.075919999999999,7.717178290019207,0.1048166476261581
5.078308000000001,7.732823008938205,0.10463751909937423
5.080687999999999,7.746837714163122,0.10449819980108566
5.083084,7.759641714574542,0.1043780170427854
5.085472,7.782176679464326,0.10417081754778433
5.087852000000001,7.806713745100525,0.10394388802364761
5.090248,7.824173573310836,0.10379124291199636
5.092636,7.841912940774868,0.10362710844996051
5.095020000000001,7.862725344171955,0.10343201119195226
5.097416,7.882606582009263,0.103243944385593
5.099799999999999,7.899135244659796,0.10310117992906515
5.102184,7.91487251137741,0.10295925637983806
5.104588000000001,7.922461605482496,0.10290033617472412
5.106972,7.934194670707276,0.10279809434378928
5.109352,7.94350632630506,0.10273430366830623
5.111752,7.949325637089206,0.1027201593879991
5.11414,7.960639393433405,0.1026387202912405
5.11652,7.972232689031326,0.10254478454162984
5.11892,7.984105523882967,0.10243806514740965
5.121308,8.000122329854301,0.10228687354506477
5.1236880000000005,8.014416574332941,0.10214281659232605
5.126084,8.025777552505383,0.1020249949671007
5.128468000000001,8.034345033998493,0.10192575042478336
5.130868,8.049198356984572,0.10175977109970026
5.133264,8.060047478477816,0.1016324898227408
5.135651999999999,8.073829866277258,0.10148252524102198
5.138032,8.089754124449975,0.10130792201223117
5.140427999999999,8.107540713742251,0.10112315268875932
5.142816000000001,8.123464971914968,0.1009522233992502
5.145195999999999,8.140739704528045,0.10075856449665181
5.147592,8.160156307514399,0.10054140526875217
5.14998,8.17957291050075,0.1003245966283253
5.152360000000001,8.207277455726494,0.100024490738706
5.154756,8.227113367593427,0.0997906537362705
5.157144,8.245226717967665,0.09956284027813887
5.159528000000001,8.26725172203612,0.0992715816738267
5.161924,8.283270423865323,0.09903503650423395
5.164307999999999,8.30450403200086,0.09874923645197517
5.166708000000001,8.33109231606959,0.09840921508853154
5.169104,8.359962240138456,0.09804449205570095
5.171492,8.392324509020959,0.09763815722674293
5.173876000000001,8.426688878649877,0.09721753639160438
5.176272,8.46733908977177,0.09673881483608404
5.178664,8.497978797161574,0.09634265748358424
5.18104,8.527035712685544,0.09594641793390922
5.183436,8.55143680041062,0.09557925464875275
5.1858200000000005,8.578119528135836,0.09518722135682674
5.188199999999999,8.600006658435301,0.09482778792873886
5.190592,8.620031457615207,0.09447938931724094
5.192976000000001,8.638845551981616,0.0941483651452571
