Time,Force,Position
4.784864,0.0683089948235182,0.0
4.787208000000001,0.05734512684016894,0.0
4.789548000000001,0.04798435355627334,0.0
4.791892,0.04206680739990136,0.0
4.794228,0.038706648781648575,0.0
4.796572,0.05238321777738752,0.0
4.7989120000000005,0.08919536442498573,0.009788154892670561
4.801252000000001,0.1457451875672936,0.018631275636109404
4.803596,0.21742408123366264,0.027048844790842432
4.8059400000000005,0.3022049215409195,0.035395511652014496
4.808280000000001,0.3944312946106644,0.044148402559190274
4.810616,0.5063009005186326,0.05262587327185242
4.81296,0.6385125873991252,0.060801789731694464
4.815304,0.7862254318560165,0.06877263868875107
4.8176440000000005,0.9420151325478362,0.07676620772479215
4.819988,1.1048782789498066,0.085017703710879
4.822328,1.2788643985251351,0.09335050543609541
4.8246720000000005,1.4766599207498676,0.101439625607046
4.827008,1.6914246459267313,0.10937114263007687
4.829352000000001,1.9157064251322296,0.11730762446208724
4.831696,2.1417792190796856,0.12549702503562352
4.834036,2.3817906815713212,0.13370069963496523
4.836380000000001,2.643661388097326,0.1416660077459014
4.838724,2.9184758646616102,0.14938361410281176
4.841072,3.1960876296209677,0.15696558636769642
4.843416,3.4578280458094586,0.16450820241950787
4.845764,3.691404969494861,0.16236379848344368
4.848116,3.910272131536783,0.1611640747939068
4.850460000000001,4.118479059398433,0.16040924056357111
4.852804,4.316911592669213,0.15969818414450682
4.855148000000001,4.506502792766773,0.15853431961133713
4.857496,4.669048657376126,0.15773376019149657
4.8598360000000005,4.806037534706623,0.1573673858247333
4.862184,4.926407097445839,0.15728964258027367
4.864536,5.037094813392803,0.15722069561124585
4.866880000000001,5.144900276577553,0.1567622063368745
4.869224,5.2334818158046605,0.1563129372450775
4.871572,5.296087058872331,0.1562397782290673
4.873908000000001,5.345285792908638,0.15630016746078904
4.876252,5.391972465377198,0.15624352154427945
4.878592,5.441596195867693,0.15578065366353014
4.880944,5.474509959826159,0.15531266950009898
4.88328,5.4726476287066035,0.15535246399132396
4.885624000000001,5.452209208219724,0.1557162156858538
4.887972,5.433585897024158,0.15607815884187248
4.890312000000001,5.416777695119905,0.15645651190506926
4.892664000000001,5.399457636536455,0.1568379748982533
4.895008,5.37459570567616,0.15733371614185376
4.897355999999999,5.347219817390251,0.15786734156120227
4.899692000000001,5.321659038395656,0.1584107390168693
4.902036,5.301358491677767,0.1589074799663978
4.904380000000001,5.287156794997745,0.15931340384350243
4.906724,5.274445342384944,0.15966924976061644
4.909068,5.26280482495878,0.1599983851054423
4.911412,5.2583340927571225,0.16018545125054418
4.913756,5.251394729100225,0.16050551463817858
4.9160960000000005,5.252323998802134,0.16064015104806317
4.91844,5.252509094399367,0.16073028144479223
4.920788000000001,5.244733008839177,0.16097176685680176
4.923136,5.234303196226512,0.16125397082691495
4.925476000000001,5.220892895479409,0.1616499320669339
4.92782,5.212370739956674,0.1619843066923377
4.930168000000001,5.2118569874196075,0.1621290094564838
4.932504000000001,5.209248586337506,0.16228215337853003
4.934852,5.204498314882128,0.16249193402952403
4.937204,5.20449641902426,0.16264544199415346
4.939547999999999,5.212595473950675,0.16264316580792762
4.941888,5.223255708130948,0.1625435124014591
4.944232,5.238898531192076,0.1622685555704127
4.946575999999999,5.254448806454588,0.16195447494954526
4.948912000000001,5.266274419477985,0.16172336214340188
4.951264000000001,5.2826160906734145,0.1614096194483621
4.953612000000001,5.304452207428897,0.16093511016168627
4.955952000000001,5.329967660453118,0.16029207335196108
4.958296,5.347661701946776,0.15978662010170167
4.960640000000001,5.368289009746627,0.15922133652327006
4.962988,5.389800261278015,0.15870087556445248
4.965332000000001,5.421554333966966,0.15798298567159377
4.967676,5.4580114562830495,0.15710970413611966
4.970024,5.4863676278148485,0.15638122472537158
4.972364,5.51407217304059,0.15566003827510613
4.974708000000001,5.544942301998004,0.15492168033285492
4.977056,5.591270158419312,0.15388509249754898
4.979392,5.644303165214171,0.15266899978795784
4.981744,5.690213608612766,0.1515319546685194
4.984088000000001,5.734029403466329,0.15042038568149582
4.986432,5.776494723879532,0.14936035601054537
4.9887760000000005,5.824267498397686,0.14822594706930592
4.99112,5.866872588437749,0.14718031626507685
4.993468000000001,5.908034656238836,0.14615242108653542
4.9958160000000005,5.947706479972706,0.1451735392776145
4.99816,5.981883858146523,0.14433283123880275
5.0005,6.017224719305593,0.14352145517014964
5.0028440000000005,6.0497720837853315,0.14277081155882193
5.00518,6.079433403787114,0.1420166828619892
5.007524000000001,6.102576564870452,0.14137011867465518
5.009863999999999,6.12343808595365,0.1407860520530233
5.012204,6.141785649611235,0.14024137433259035
5.014548,6.158038564723785,0.13969597581176627
5.016892,6.175130097597497,0.13908740386999752
5.019240000000001,6.1863550978588195,0.13858332135595294
5.021584,6.195857536627444,0.13810760090172808
5.023931999999999,6.191764579051732,0.13787392347887675
5.026272,6.178220196251376,0.1377885547207743
5.028616,6.161043699010524,0.13780130888217637
5.030959999999999,6.137673908075318,0.13798798310222965
5.033304,6.122824376804978,0.13803065230346026
5.0356440000000005,6.1076027584823,0.13804824798170046
5.03798,6.090658578666925,0.1380836016987214
5.040332,6.068499492545218,0.13822437626532263
5.0426720000000005,6.052206939035902,0.13826359528601617
5.045016,6.04592488925867,0.13812210769441194
5.04736,6.0394105220559595,0.13795098261148112
5.049703999999999,6.027401709293197,0.13789714141579643
5.052048,6.018790797687584,0.1378549355315435
5.054384,6.018420606493115,0.13770070619302088
5.056731999999999,6.020891133806226,0.1374607933700569
5.059072,6.0193574596265025,0.13729112182858033
5.061412,6.016286319551316,0.13721520637864748
5.063759999999999,6.019127038058892,0.1371281581624811
5.066104,6.0311396425373935,0.13691697600434805
5.068448000000001,6.041429685523199,0.1367259697410763
5.070787999999999,6.053861598882279,0.13649047586305604
5.073136000000001,6.071041887838871,0.13622249750053356
5.075484,6.096323127579746,0.13584549918609365
5.077824000000001,6.127657891388115,0.13530683221121645
5.080168,6.151962639598836,0.13486694995748844
5.082516000000001,6.169841776689728,0.1345591118907504
5.084855999999999,6.188325318258435,0.13430041608274376
5.087196,6.2143979539322265,0.1339252530359067
5.08954,6.239027567367043,0.1335599765095536
5.091888,6.254485294830938,0.13332235507278292
5.094224,6.26430880710792,0.1332081161277222
5.096568,6.282512809422905,0.13297880123879685
5.098916,6.3059317180442225,0.13265495692702603
5.101252,6.323531315881395,0.13238158582381385
5.1035960000000005,6.3368471729720115,0.132193195294847
5.105936000000001,6.3503953474881065,0.13203268287766926
5.108288000000001,6.371300298683811,0.13173629027892453
5.11062,6.392159923909141,0.13136250945254033
5.112964000000001,6.407759316857764,0.13100453257796188
5.115324,6.420565213127052,0.1306820317260194
5.117672,6.436536693128012,0.1303471420498436
5.120016000000001,6.457303770554725,0.12994767187318998
5.12236,6.479980400929238,0.12948779827445134
5.124696000000001,6.500794700184194,0.12905422681506587
5.127032000000001,6.518908050558431,0.1286915264782268
5.129376,6.541537459104701,0.12827683018552175
5.1317200000000005,6.567519442837746,0.12779618139994456
5.134064,6.591127238772038,0.12733247837864242
5.136408,6.610730833213494,0.12693192033286682
5.138812000000001,6.631777449893927,0.12653180208220216
5.141196,6.658970138440472,0.12603398821248446
5.1436,6.683788639188261,0.12555270733966692
5.146,6.70423085139088,0.12511599009821778
5.148388,6.726907481765392,0.12467948994240917
5.150792,6.749304572886184,0.12425579958854603
5.153192,6.773191908074196,0.12378935827089621
5.15558,6.790933171396096,0.12342098508578296
5.157984,6.801410205837004,0.12320870124070957
5.160376,6.812631414382587,0.12303732783460955
5.162772,6.82864822035392,0.12280606616680831
5.165168,6.841871529645919,0.12260812749467717
5.167556,6.851509946325666,0.12244630382220592
5.169951999999999,6.855933456699081,0.12236759623873206
5.172348,6.866223499684885,0.1222152775208765
5.174736,6.8767930819244105,0.12204700421422675
5.177131999999999,6.888713138604294,0.12184769788501007
5.179532000000001,6.897560159351124,0.12169364028025274
5.181920000000001,6.902914835284316,0.121606523092386
5.1843,6.909480216031008,0.12149448767139168
5.186704,6.917907927897256,0.12136305474150663
5.189092,6.921120733457172,0.12131119959922303
5.191472,6.919910028643673,0.12133596318376214
5.193876,6.916557453456898,0.12139558361325187
5.196264,6.910690920844508,0.12147003465196
5.198644000000001,6.907385567485974,0.12148746254804477
5.20104,6.905802775620138,0.12149235407378285
5.203424000000001,6.906361854127579,0.12146271249707961
5.205804,6.91469701819521,0.12129668846527591
5.208200000000001,6.924662195956921,0.12108503082759017
5.210588,6.931554337785574,0.12091884783776602
5.212972,6.936584148494673,0.12077159667909142
5.215372,6.940822563270852,0.12062672969376487
5.217759999999999,6.945060978047033,0.1204813516109436
5.22014,6.941011450583826,0.12045876966316892
5.222536000000001,6.9361705271877,0.12043861742154231
5.224924000000001,6.929187733418297,0.12045235563716856
5.227316000000001,6.923834953342975,0.12041955944103955
5.229716000000001,6.921834748454427,0.12032824513224336
5.2321040000000005,6.920625939498797,0.12023471408793665
5.234484000000001,6.916763403490693,0.12016278605736146
5.23688,6.913971802669227,0.12007369953199346
5.239268,6.914532777034537,0.11992545880949981
5.241651999999999,6.9170958521462635,0.11974978677428359
5.244048,6.920590092817768,0.11956414786258623
5.246436,6.924735959795332,0.11938477230996299
5.248816000000001,6.926739956399619,0.11923998258925556
5.251212,6.936472816735852,0.11900751320660805
5.2536,6.945786368191504,0.11879988271839914
5.255984000000001,6.950676409273742,0.1186649176597816
5.25838,6.955706219982841,0.11852286799376327
5.260768,6.96674233293119,0.11830565271295082
5.263148,6.9784300721855965,0.11809350284646766
5.265543999999999,6.992399451440141,0.11784231925342306
5.267932000000001,7.008790240321682,0.11754326877712698
5.270328,7.031047561815613,0.11717787482972697
5.272723999999999,7.05679722812318,0.1167540511871685
5.275112000000001,7.080125484803752,0.1163760541096439
5.277496,7.105176302977019,0.11599153714869878
5.279891999999999,7.133579696337062,0.11555915054745976
5.282280000000001,7.163054024883743,0.11511133689608845
5.28466,7.19574115899034,0.11461893661595965
5.287056000000001,7.229359458656715,0.11412066850639653
5.2894440000000005,7.267121729442784,0.11357433062347672
5.291828,7.306094705042352,0.113008875099941
5.294224000000001,7.348560025455556,0.11239640119491917
5.2966120000000005,7.3927951291896985,0.11173846983168663
5.298991999999999,7.425856246206502,0.11118410532458838
5.301388,7.4564034057976905,0.11064456316222633
5.303776,7.491793384642876,0.11002219381134
5.3061560000000005,7.526671506808863,0.10938863996818458
5.308556,7.555962635616179,0.10880584142583521
5.310944,7.5848816773711585,0.10820466578829353
5.313324000000001,7.61179861837972,0.10762705990067538
5.31572,7.637132767522446,0.10705142991772312
5.318108,7.659021793679779,0.1064987313133539
5.320504000000001,7.675695913530779,0.10601121120263432
5.3229,7.695582838941695,0.1054822376582481
5.325288,7.707368813568326,0.10500440112238135
5.327668,7.710075450022651,0.10462466080509068
5.330064000000001,7.713992791290477,0.10422581533438134
5.332452000000001,7.713254304759409,0.10386271653269875
5.334832,7.711864191922283,0.10349453625018014
5.337231999999999,7.7056784816594055,0.10316914027841716
5.339616,7.696559505090334,0.10287055666898592
5.341996000000001,7.678361190348956,0.10266543351705154
5.344392,7.656018904487885,0.10250567757135552
5.34678,7.6351196408657875,0.10235109103166563
5.349164000000001,7.60914524056422,0.10225013250476644
5.35156,7.577536625075737,0.10222819532578895
5.353948,7.547510801453092,0.10220390231141654
5.356328,7.517996834509645,0.10219219862309754
5.358732000000001,7.488063558685616,0.10219925031665685
5.3611200000000006,7.456128182115172,0.10222700005549229
5.363504,7.424564892597066,0.10227390186391642
5.365900000000001,7.389229719011601,0.1023879145049537
5.368288000000001,7.353894545426137,0.102503167630553
5.370672,7.317348667027175,0.10263673666851386
5.373068000000001,7.288903739412498,0.1027209909802567
5.375456000000001,7.268839301835825,0.10274291630525206
5.377835999999999,7.246353454632154,0.10280436667037618
5.380228,7.229035291906572,0.10284358703486789
5.382612000000001,7.211949446606469,0.10290814499246621
5.385008,7.195515227612423,0.10297860903398447
5.3874,7.184668001977047,0.10300744402786
5.389788,7.176194964140424,0.10303631568914341
5.392180000000001,7.170096114102557,0.10306465594085441
5.394571999999999,7.16986379667708,0.10303850879884817
5.396956,7.175218472610273,0.102970826591296
5.399352,7.188581551529133,0.10282228082949399
5.401756,7.203387652686967,0.10268129186822324
5.404140000000001,7.221127020150998,0.1025139546746128
5.40652,7.24431361134684,0.10231472089106958
5.408924,7.276811858140463,0.10205168950142399
5.411312,7.314105702359841,0.10175152884386497
5.413688,7.356195144004969,0.10140990931428842
5.4160960000000005,7.401729708635489,0.10105471531666402
5.41848,7.446984734012289,0.1007125055202729
5.420864000000001,7.489306493082894,0.100399412255857
5.423267999999999,7.526181028421689,0.10012095333031039
5.425652,7.564778125253181,0.09983550791648706
5.428032000000001,7.599510790218699,0.0995834675339525
5.430428,7.634522994437938,0.09931985345324319
5.432811999999999,7.670186824963234,0.09906318907635803
5.435192,7.700775518809059,0.09885971101891203
5.437596,7.731643751908604,0.09864187367190401
5.439979999999999,7.764374316127705,0.09841165885438018
5.44236,7.7910985781075555,0.09824013466241091
5.444764,7.820756106393602,0.09804586895625213
5.447147999999999,7.843988023559818,0.09792835478895277
5.449528,7.86256411292714,0.0978418063186868
5.451928,7.875133900055213,0.09781084157779386
5.454312000000001,7.883047859384394,0.0978113951401477
5.456691999999999,7.8830931853547686,0.09787943732123197
5.459096,7.876992439459031,0.09800841001453149
5.461484,7.871962628749933,0.09812432316621127
5.463864,7.868143522854333,0.0982212686888433
5.466264,7.868328618451566,0.09828202793816232
5.468652,7.869165340354859,0.0983489310372836
5.471032,7.876380451549739,0.09838078389328321
5.473427999999999,7.885597663491036,0.09839508833860083
5.475812,7.900681408044724,0.09836326450681532
5.478192000000001,7.9142749085311905,0.09836088997154362
5.480588,7.927728639390798,0.09836435221936095
5.482971999999999,7.943184470996823,0.09835028441855095
5.485352,7.9622251952151,0.0983193719474342
5.487752,7.9815454586870995,0.09827733935186413
5.490136000000001,8.004590384398211,0.09821223478199062
5.492532,8.024702043803128,0.0981712080444875
5.494936,8.049237213581458,0.09807872714053067
5.497324,8.076565880039123,0.09796867444328232
5.499704,8.113625510975153,0.0977851822292927
5.502108000000001,8.149614206724545,0.09761245118043976
5.5044960000000005,8.188164081727793,0.09739937122404003
5.506872,8.232068632664234,0.09712887941535155
5.509276000000001,8.272388290988422,0.09687662511386523
5.511664000000001,8.308703747819777,0.09665952571641612
5.514043999999999,8.342225707971796,0.09646197838130324
5.516448,8.379379782564312,0.09621640213529002
5.518835999999999,8.40894476305174,0.09602060698353121
5.521216,8.434924850926919,0.09584165229447625
5.52362,8.455457715070285,0.09569089577470878
5.526004,8.476829196974812,0.09550610275389888
5.5283880000000005,8.498759757386779,0.09529935239002128
5.530784,8.520830087425608,0.09508787138830654
5.533168000000001,8.543739035225599,0.09484575590889595
5.535548,8.567207061533027,0.09458416079428802
5.537944,8.588300900041704,0.09432169368925537
5.540332,8.608882881871182,0.09404859077170782
5.542708,8.625740201461548,0.09379688939391291
5.545103999999999,8.641434038066658,0.09352799355946989
5.547488,8.656755787619428,0.09324718422694084
5.549872,8.674778486052919,0.09292492199014532
5.552276,8.690938853366852,0.09261309137379098
5.554659999999999,8.706587364001589,0.09229293990007173
5.55704,8.722655183516904,0.09195658466154419
5.559436000000001,8.74049278635316,0.09158360794999118
5.56182,8.756747597323583,0.09120974640708555
5.564203999999999,8.763131674188779,0.09090264666066648
5.566604000000001,8.77193716068097,0.09056357191618959
5.568992000000001,8.784095222359941,0.0901904644326312
5.571371999999999,8.796672592919492,0.0898012709155682
5.573768,8.809529502732762,0.08940248430547022
5.576152,8.822154095120553,0.08898320218219774
5.5785480000000005,8.829471233403396,0.08857820845800822
5.580948,8.82985090388721,0.08822011735702831
5.583332,8.824084502504915,0.0879090476381836
5.585712,8.820739510749615,0.08756818935132366
5.588116,8.815532187874759,0.08723537864000212
5.5905,8.809673238693845,0.08689527494528482
5.592884000000001,8.806887325445986,0.08653249899829281
5.595275999999999,8.795581152533266,0.08621282026834129
5.597664000000001,8.780922404433765,0.08592618160540502
5.600044,8.767846448200103,0.08564182671383523
5.602452,8.751837225660244,0.08537466480470658
5.604836,8.74090313979986,0.08507235387075347
5.607216,8.731971154685892,0.08475756236346178
5.609623999999999,8.720105903265727,0.08445799440197732
5.612008,8.718530694831369,0.0840831361416849
5.614388000000001,8.718026421583646,0.08369924900301343
5.616788000000001,8.713517946843092,0.0833411272117921
5.619172,8.710452494341514,0.0829914298107445
5.621556000000001,8.706967732959354,0.08265753344708594
5.623948,8.70078202269648,0.08236150126692576
5.626335999999999,8.702185406538689,0.08203115391120112
5.628728,8.708524157433512,0.08167187358091677
5.631124000000001,8.721940145754221,0.08126717257530075
5.6335120000000005,8.732003558888158,0.08089438276408306
5.6358880000000005,8.74392930314165,0.08051446102321971
5.638284,8.758648544074477,0.08012479100642399
5.640668000000001,8.769875440193667,0.07977261032698336
5.643064,8.783756063365331,0.0794141998778145
5.645468,8.798847391350495,0.07904127391506874
5.647851999999999,8.810493596350266,0.07867116650470696
5.650232,8.82078932690968,0.0783193561938682
5.652636,8.820515475229566,0.07804760743690081
5.65502,8.817680444295597,0.07780919847653678
5.6574,8.821782881160653,0.07753241959170187
5.659804,8.821322038025437,0.07730094956245964
5.662192,8.82258375638292,0.07706907928083331
5.664568,8.826638971419735,0.07682794743438598
5.666972,8.828040459404075,0.07659095520049425
5.669356,8.828790321082357,0.07634681301928171
5.671736,8.833544384253472,0.07608057920008533
5.67414,8.833502849998839,0.07583505829918938
5.676524,8.832530150184423,0.0755930195508831
5.678904,8.828344644810095,0.07537562691001344
5.6813080000000005,8.828954736861519,0.07513937472272486
5.683696,8.827702497793386,0.07490846641979976
5.686076000000001,8.825239553911752,0.07469074274342889
5.688479999999999,8.82091427891056,0.0744777159663874
5.690868000000001,8.81616969502879,0.07427939319629075
5.693248,8.813287442266578,0.07407563645072553
5.695652,8.8119879813702,0.07387573676784669
5.698036000000001,8.810688520473823,0.0736750552835279
5.700416,8.81953933293639,0.07341613483511321
5.702815999999999,8.824525713532985,0.07317224555713477
5.705203999999999,8.826019749315941,0.07296298957916744
5.707584,8.826722389165981,0.07275127083539068
5.709988,8.824491762709826,0.07255302187463944
5.712371999999999,8.818256934760837,0.07237517135515426
5.714752,8.81532746017038,0.07220190427649884
5.717144,8.81356146856518,0.07204866171312259
5.719532,8.80979337621356,0.07190599297059996
5.7219120000000006,8.81226390352667,0.07175595566672213
5.724316000000001,8.814966748265258,0.07162864307876983
