Time,Force,Position
3.957796,0.01100881396830983,0.0
3.960144,0.018498535529769784,0.0
3.962484,0.026267796344950155,0.0
3.964824,0.03203495641371368,0.0
3.967167999999999,0.04101492204239279,0.0
3.969508,0.04613045580509842,0.0
3.971852,0.049383658448247394,0.0
3.974192,0.05170569553161806,0.0
3.976536,0.05174609261485145,0.0
3.978888,0.05485952563114022,0.0
3.981235999999999,0.06062668569990374,0.0
3.9835759999999993,0.06560244983574916,0.0
3.98592,0.07057821397159457,0.0
3.988263999999999,0.07541420848057977,0.0
3.990604,0.08048934516005199,0.0
3.992944,0.08477308590660612,0.0
3.9952799999999993,0.09747771377439851,0.0
3.997627999999999,0.1069695360822753,0.0
3.999967999999999,0.11646135839015213,0.0
4.002312,0.12460953100267975,0.0
4.004655999999999,0.12540092693559787,0.0
4.007,0.12754279730887494,0.0
4.00934,0.13140722917484843,0.0
4.01168,0.14048656734715434,0.0
4.014028,0.14234889846671098,0.0
4.016375999999999,0.1511486973852965,0.0
4.01872,0.16474409372963383,0.0
4.021063999999999,0.17899111638002907,0.0
4.023408,0.19966375015025545,0.0
4.025751999999999,0.21605264317392775,0.0
4.028091999999999,0.22499221171937347,0.0
4.030439999999999,0.23351247138423856,0.0
4.032788,0.24003063030268681,0.0
4.035128,0.24841112034069165,0.0
4.037471999999999,0.25399811369936165,0.0
4.039819999999999,0.2575830063116147,0.0
4.042156,0.25395089187111847,0.0
4.044504,0.25688415817731364,0.0
4.046847999999999,0.25981742448350886,0.0
4.049187999999999,0.2628904604165642,0.0
4.051527999999999,0.2688967626558148,0.0
4.053868,0.27183002896201,0.0
4.056215999999999,0.2744837560144847,0.0
4.058555999999999,0.2768579438132391,0.0
4.060908,0.28710076497080056,0.0
4.063248,0.29305984538180796,0.0
4.065591999999999,0.29515449392684184,0.0
4.067928,0.30074148728551175,0.0
4.070271999999999,0.2989717039645721,0.0
4.072623999999999,0.2976212295242132,0.0
4.074964,0.3009265828827458,0.0
4.077308,0.3065135762414158,0.0
4.079647999999999,0.3111694040403074,0.0
4.081992,0.3123801088538062,0.0
4.084327999999999,0.31452197922708325,0.0
4.086672,0.31652407997350007,0.0
4.089015999999999,0.32080782072005415,0.0
4.091355999999999,0.31759501516013855,0.0
4.0937,0.3113091736671676,0.0
4.096043999999999,0.3058147281071147,0.0
4.098383999999999,0.298318181800645,0.0
4.100719999999999,0.28774859956112,0.0
4.103064,0.2774585565753153,0.0
4.105404,0.2602378705354916,0.0
4.107744,0.23915275262969427,0.0
4.110087999999999,0.21927833953739573,0.0
4.112432,0.2003350920048755,0.0
4.114772,0.17817903891243966,0.0
4.117111999999999,0.15923579137991942,0.0
4.11946,0.1410839397803173,0.0
4.121803999999999,0.12413596824920418,0.0
4.124143999999999,0.10505295108982377,0.0
4.126488,0.08996731067826727,0.0
4.128831999999999,0.07767516694604573,0.0
4.131179999999999,0.06673349765418315,0.0
4.133528,0.05579182836232058,0.0
4.135876,0.04243557418847029,0.0
4.138216,0.033635775269884774,0.0
4.140559999999999,0.03205298340404855,0.0
4.142904,0.02498257072316922,0.0
4.145244,0.01898309322892843,0.0
4.147587999999999,0.02168404210964633,0.0
4.149927999999999,0.017686665361822392,0.0
4.152275999999999,0.020101250243810112,0.0
4.154624,0.02265560475265804,0.0
4.156964,0.022655604752658046,0.0
4.159303999999999,0.022655604752658046,0.0
4.161648,0.022655604752658046,0.0
4.164,0.02427879370172765,0.0
4.16634,0.02497081709101894,0.0
4.168683999999999,0.02390670664939017,0.0
4.171035999999999,0.02390670664939017,0.0
4.173371999999999,0.024465785156831014,0.0
4.175716,0.022330739528563712,0.0
4.178072,0.0215393435956456,0.0
4.180408,0.02181888284936602,0.0
4.182748,0.02437323735821395,0.0
4.185088,0.02558394217171269,0.0
4.187439999999999,0.02143997105201878,0.0
4.189776,0.02399432556086671,0.0
4.192119999999999,0.028271241562411068,0.0
4.194467999999999,0.026920767122052124,0.0
4.196819999999999,0.030266517563818165,0.0
4.199164,0.028264416817401314,0.0
4.201504,0.025710062308553383,0.0
4.203856,0.026262316070984462,0.0
4.206192,0.026262316070984462,0.0
4.208535999999999,0.026262316070984462,0.0
4.21088,0.024639127121914853,0.0
4.21322,0.023947103732623563,0.0
4.215563999999999,0.025290753427972754,0.0
4.217908,0.025290753427972754,0.0
4.220248,0.023667564478903145,0.0
4.222584,0.023667564478903145,0.0
4.224931999999999,0.022044375529833533,0.0
4.22728,0.020421186580763924,0.0
4.229631999999999,0.017866832071915993,0.0
4.231976,0.016243643122846384,0.0
4.234316,0.015831158987275513,0.0
4.236659999999999,0.013276804478427584,0.0
4.238999999999999,0.008999888476883221,0.0
4.241348,0.00565413803511718,0.0
4.243687999999999,0.0023083875933511385,0.0
4.246044,0.0020760701678738695,0.0
4.248388,0.002116467251107259,0.0
4.250731999999999,0.0025357761316878893,0.0
4.253076,0.00457827396133813,0.0
4.255419999999999,0.0067605414178485805,0.0
4.257768,0.010944909620775881,0.0
4.260116,0.015129277823703182,0.0
4.262456,0.017038830771502974,0.0
4.264799999999999,0.024436004534345867,0.0
4.267151999999999,0.0303429342299696,0.0
4.269496,0.03825196467201018,0.0
4.271848,0.04816309586046762,0.0
4.274187999999999,0.05807422704892505,0.0
4.276536,0.06984768935693912,0.0
4.278872,0.08068998610517487,0.0
4.281215999999999,0.08738831173371672,0.0
4.283564,0.0959489684818152,0.0
4.285907999999999,0.10450962522991368,0.0
4.288247999999999,0.1099972460449568,0.0
4.290595999999999,0.11348276611358304,0.0
4.292944,0.1167881194721157,0.0
4.29528,0.12344604801742415,0.0
4.297623999999999,0.12810187581631574,0.0
4.299963999999999,0.12968466768215195,0.0
4.302304,0.13098792029426778,0.0
4.304648,0.12949767622704864,0.0
4.306991999999999,0.1258655617865524,0.0
4.309336,0.12381623921189241,0.0
4.311688,0.11641906544904952,0.0
4.314031999999999,0.11051213575342578,0.0
4.316376,0.10315535907381627,0.0
4.318719999999999,0.09458787758070804,0.0
4.321059999999999,0.08616016571445999,0.0
4.323404,0.0743867034064459,0.0
4.325747999999999,0.06354440665821015,0.0
4.328083999999999,0.056846081029668295,0.0
4.330432,0.04828542428156982,0.0
4.332775999999999,0.03972476753347134,0.0
4.33512,0.03423714671842824,0.0
4.337463999999999,0.03075162664980199,0.0
4.339808,0.02726610658117574,0.0
4.342155999999999,0.020567780952633896,0.0
4.344496,0.014940390510730582,0.0
4.346843999999999,0.01237921125687289,0.0
4.3492,0.012891067936070578,0.0
4.351528,0.015125486107964698,0.0
4.353871999999999,0.022435040959331052,0.0
4.356216,0.027370408011943074,0.0
4.358559999999999,0.034301051065962186,0.0
4.360908,0.0413714637468415,0.0
4.363251999999999,0.04509612598595479,0.0
4.365596,0.049100327478788494,0.0
4.367939999999999,0.05096265859834513,0.0
4.370284,0.05430840904011117,0.0
4.372631999999999,0.05937672097457365,0.0
4.374967999999999,0.06062592701343654,0.0
4.377303999999999,0.06062592701343654,0.0
4.379648,0.06969085700925573,0.0
4.382,0.09611737984316097,0.0
4.38434,0.14418923626170635,0.009667552066086552
4.386683999999999,0.21148691249576368,0.018139080330640277
4.38904,0.28618479552193515,0.02674769092176
4.39138,0.36702495869847884,0.035794606787131686
4.393723999999999,0.4556423446066148,0.045325559534268534
4.396063999999999,0.5580364307405837,0.05463912439350048
4.398403999999999,0.6798886541155418,0.06338863986576665
4.400739999999999,0.806347587603279,0.07217724814624116
4.403084,0.9421616068013042,0.08108299401227394
4.405431999999999,1.0880748858142921,0.09008668212006594
4.407776,1.251349757665366,0.0989876292784549
4.410119999999999,1.4401816167952968,0.10751363187231816
4.412464,1.64293184163579,0.11585360271059869
4.414816,1.8558757699477324,0.12423312596590667
4.417156,2.0761254613953026,0.132791990288311
4.419508,2.310990470829867,0.14129764061665956
4.421847999999999,2.5758378737745717,0.14940248151892618
4.424192,2.8617212769389613,0.1571480861141499
4.426535999999999,3.135561157830963,0.16486329754355378
4.42888,3.378678262823887,0.1727586686368085
4.431224,3.591769544194167,0.1711628917501268
4.433555999999999,3.7830266046668335,0.17091523763265803
4.435903999999999,3.9691178765192796,0.1705119352013683
4.438248,4.1512559604228745,0.16955203808547203
4.440591999999999,4.319572018130263,0.16813078774905374
4.442931999999999,4.466801820760452,0.16700936349581325
4.445276,4.588659731709018,0.16664208170074438
4.447619999999999,4.709867912209394,0.16610634022220766
4.449956,4.826424056626617,0.16532270672893803
4.452304,4.923476737832479,0.16459751906639697
4.454656,4.995718501722028,0.16414383484714723
4.456996,5.039422790198281,0.16428163350874006
4.459339999999999,5.071675448561344,0.1645812695886634
4.461684,5.101463267184903,0.16468779269710915
4.464027999999999,5.124411853381659,0.1645205533262807
4.466367999999999,5.123992544501079,0.1645568460273945
4.468712,5.093917603192322,0.1651281561376434
4.471064,5.046010746620917,0.1660586620110519
4.4734,5.009602741990945,0.1667942656964326
4.475743999999999,4.987254768556266,0.16729125657621186
4.478092,4.968910996614419,0.16770304317649198
4.480428,4.951405842433735,0.16805828507567858
4.482771999999999,4.945726301276447,0.16813950225368027
4.485116,4.9360878845967004,0.16842855103611243
4.487463999999999,4.9347827361267145,0.16858498975572422
4.489799999999999,4.938412954709342,0.1686144570370936
4.492144,4.94860855403866,0.16843401269568423
4.4945,4.9546601822482845,0.1683766981268553
4.496843999999999,4.9615485323612,0.16841295981032325
4.499184,4.980402265124375,0.16819055470746472
4.501528,5.009266501619634,0.16769791265991463
4.503879999999999,5.043764953301806,0.16699912816752702
4.506216,5.073887116438806,0.16638713887251558
4.508559999999999,5.102379265881728,0.16587448925164539
4.510911999999999,5.1352004820415775,0.16535323821214512
4.513259999999999,5.178264519358989,0.16459775191818446
4.515604,5.223889735930257,0.16372587249748488
4.517947999999999,5.268723556568606,0.16286792756741586
4.520299999999999,5.310065032393321,0.16216900341486323
4.522632,5.355503257509485,0.16143381081616237
4.524979999999999,5.406668245611182,0.1605624025943998
4.527324,5.463095361847452,0.15949987347291594
4.529667999999999,5.5031808068882935,0.158790269057587
4.532012,5.555278856407636,0.1578174496585753
4.534355999999999,5.60602643148662,0.15691531390977387
4.536704,5.649696769139715,0.15616527717026207
4.539035999999999,5.688990818247638,0.1554825984587409
4.541383999999999,5.723536491758054,0.1548476822471518
4.543728,5.756918682283213,0.15421093150650506
4.546071999999999,5.791464355793629,0.15360690869539995
4.54842,5.822517684490407,0.1531108258664799
4.550763999999999,5.853059156507989,0.15260172929414442
4.553108,5.8849983247941715,0.1519936468527
4.555451999999999,5.910838643042487,0.15148005492453565
4.5578,5.93160382461133,0.15108782025214082
4.560148,5.946362703940923,0.15082723047202296
4.562484,5.9656848632707895,0.15044619701879605
4.564828,5.982540287003285,0.15004584214029124
4.567179999999999,5.989572198458801,0.14980033176371646
4.569524,5.992460138794622,0.14965211143857451
4.571868,5.998001806182919,0.14946693465544678
4.574207999999999,6.0003306680112996,0.1493590008224834
4.576559999999999,6.003777686854563,0.149176034300949
4.578896,5.994048618234067,0.14922320895012475
4.581244,5.982177679240295,0.14931893060001183
4.583599999999999,5.97775606472475,0.14929119017318374
4.585948,5.979760061329037,0.14911398811882762
4.588291999999999,5.988049899426294,0.14879883432432897
4.590636,5.9948967152845745,0.1484901156928105
4.592984,5.999881200023299,0.14821613075360923
4.595324,6.009381742934054,0.14787861704176725
4.597667999999999,6.022234861031586,0.14746421911823782
4.600016,6.032154712822923,0.14710187170412342
4.602359999999999,6.045007830920454,0.14668540550320955
4.604707999999999,6.061585611257098,0.14621298087284545
4.607052,6.088545982378165,0.1455786990533008
4.609404,6.1113623823795376,0.14503521230843985
4.611739999999999,6.133247616821133,0.14450287056646832
4.614087999999999,6.1579263479420625,0.14391647049858763
4.616427999999999,6.184187870928827,0.14332150922532008
4.618779999999999,6.2100300850350125,0.14276504557027253
4.621124,6.239085104701113,0.14214833496994092
4.623467999999999,6.265998253993937,0.1415720997250657
4.625816,6.2927716336599,0.14099418846353814
4.628159999999999,6.323129905938116,0.14037221885216758
4.630504,6.359494480455583,0.13965519369115856
4.632852,6.389712983106938,0.13906065835379477
4.635187999999999,6.409269355720155,0.13864187029576341
4.637532,6.425053844266011,0.13832274501867803
4.63988,6.438976001692312,0.13803373785869932
4.642211999999999,6.4522465328125564,0.13774679795294079
4.644556,6.461373092813106,0.13754019283539307
4.646896,6.468869639119575,0.13738625218843858
4.649244,6.475295250239405,0.1372545237358952
4.651579999999999,6.484002501359374,0.1370747074126208
4.653924,6.483677636135279,0.13700981644577137
4.656272,6.479628108672071,0.1369962618066255
4.658604,6.4748797330745615,0.13702481166777636
4.66094,6.475578581208863,0.13698303294873146
4.663283999999999,6.4779074430372425,0.1368875234532614
4.665631999999999,6.479212591507228,0.13676954841410965
4.667968,6.471717941058627,0.13678933971833462
4.670311999999999,6.468180270274618,0.13678711715634223
4.672668,6.473302628782334,0.1366547667535656
4.674999999999999,6.473769159491158,0.13658580081485397
4.677351999999999,6.4695798624010905,0.13657878978095161
4.679696,6.469534536430716,0.13649894460645842
4.682039999999999,6.477729930871488,0.1363158412531218
4.684376,6.490069296431953,0.13605776639074824
4.686719999999999,6.503479597179057,0.1357808755707206
4.689067999999999,6.511442674194351,0.1355706045938041
4.691412,6.518986442329064,0.1353832496464108
4.693755999999999,6.53626117494214,0.13504931026686173
4.696095999999999,6.555538008301633,0.13468409028590012
4.69844,6.565363416436483,0.1344506719252309
4.700783999999999,6.57719092531775,0.13418512791212583
4.703128,6.594977514610024,0.13386489027836268
4.705475999999999,6.616348996514552,0.133500925767323
4.707827999999999,6.637488160993602,0.13311574259868236
4.710172,6.656392907300759,0.1327410309976078
4.712512,6.670082747301583,0.13245779804292226
4.714864,6.688009106220718,0.13213424374893915
4.7172,6.704352673274014,0.1318181826415731
4.719548,6.713526455102807,0.13158459488063554
4.721892,6.725680725066036,0.13126467602146766
4.724235999999999,6.734110332790154,0.13099290508768843
4.72658,6.740770157193331,0.1307811460572524
4.728919999999999,6.745427880850092,0.13060107613261873
4.731271999999999,6.74785118633496,0.130424613170871
4.733616,6.748971239207709,0.13024064340045508
4.735963999999999,6.754747119879352,0.12999983923117678
4.738315999999999,6.765598137230467,0.12967995897531165
4.740651999999999,6.769139599730215,0.12944459198962416
4.742991999999999,6.772960601483684,0.12919562442202934
4.745336,6.781716970289764,0.12887496007557436
4.747688,6.7908454261481825,0.12857516791640777
4.750028,6.798670629394485,0.12826812112792763
4.752371999999999,6.806403284842172,0.12792713628878344
4.754719999999999,6.810271508423883,0.12763854009249057
4.757056,6.809716221632181,0.1274302448368156
4.759399999999999,6.810883496333175,0.12720687366923716
4.761744,6.813541015101389,0.12694197833584603
4.764087999999999,6.818619943496599,0.1266254238912707
4.766432,6.826492368571144,0.1262765754653543
4.768772,6.83259501032475,0.12598542777410182
4.77112,6.841211609503971,0.1256775709202843
4.773456,6.849316352003995,0.12535718902823412
4.7758,6.859190877824957,0.12498200795229052
4.778148,6.871207274019197,0.12457183182558901
4.780479999999999,6.885877397265912,0.12414184794906434
4.782824,6.896543319019791,0.1237689645008359
4.785164,6.904275974467477,0.12343684252599434
4.787516,6.914522587340777,0.1230889149746194
4.789847999999999,6.9216961642810215,0.12278705233346981
4.792192,6.928078345288347,0.12248899148596418
4.794535999999999,6.936742166295811,0.12215155770285493
4.796887999999999,6.945126448049554,0.12182939836411738
4.799227999999999,6.953882816855635,0.12152784359931595
4.801572,6.962359646407996,0.12124017415911922
4.803924,6.975911612639828,0.12088168182234413
4.80626,6.994538715551133,0.12045567353602618
4.808603999999999,7.0184732725673875,0.11999317025833317
4.810955999999999,7.038775715143146,0.11960210935425136
4.813295999999999,7.056796517718768,0.11925186166912023
4.81564,7.074817320294389,0.1189016139839891
4.817983999999999,7.091115561377314,0.11856376983827634
4.820331999999999,7.108856824699213,0.11822891304805255
4.822671999999999,7.123897139140396,0.11795682677603692
4.82502,7.137167670260639,0.11773796736047033
4.827371999999999,7.144431899141631,0.11759666893602397
4.829711999999999,7.158214286941072,0.11739222007327112
4.83206,7.170506430673293,0.11722501021310838
4.834399999999999,7.182007178472596,0.11706038413164511
4.836751999999999,7.196580962204956,0.11685488332038592
4.839088,7.209524732243235,0.11669374199782259
4.84144,7.220186862281378,0.11657370233686432
4.843791999999999,7.231500618625578,0.11645904923244257
4.846128,7.245887410902833,0.11630562398794772
4.848467999999999,7.260134433553229,0.11615828188708482
4.850819999999999,7.273682608069324,0.11604733563008104
4.853147999999999,7.2810847107193055,0.11601734889261067
4.855492,7.281177258517924,0.11605000686932694
4.857832,7.286764251876594,0.1159986679650039
4.86018,7.2946328852354005,0.11590971898441921
4.86252,7.305574554527263,0.1157825173201743
4.864863999999999,7.319821577177659,0.11564275349663114
4.867212,7.333696512775717,0.11548487018592038
4.869555999999999,7.3494337794933315,0.11530987583087635
4.871896,7.368803160651442,0.11507091030830466
4.87424,7.391897204048665,0.11479742467989623
4.876583999999999,7.408333318900581,0.11459081499685439
4.878919999999999,7.42919294412591,0.11431868338644025
4.881264,7.453637461963494,0.1140231062852144
4.883619999999999,7.475008943868022,0.11376640423587488
4.885964,7.5026662672655196,0.11343076724625184
4.888308,7.528601029170321,0.11310486572738793
4.890647999999999,7.556026035142342,0.11274722041738416
4.892992,7.577444738875112,0.11245844023093235
4.895332,7.599003212234743,0.11216167066728142
4.897675999999999,7.616185397049202,0.1118904872961007
4.90002,7.636720157050438,0.11156882236283204
4.902367999999999,7.658046312984592,0.11124465383014319
4.904707999999999,7.676951059291747,0.11096607672182164
4.907052,7.694784870412265,0.11070308729104965
4.909395999999999,7.709685415226587,0.1104719898328162
4.911731999999999,7.71820757074932,0.11028814334307518
4.914076,7.726310417391474,0.11012420858795814
4.916419999999999,7.733110011421514,0.10994980882634742
4.918759999999999,7.7328323680256625,0.10985546373720151
4.921104,7.732834263883532,0.10974837215585997
4.923447999999999,7.737119900487954,0.10958498326716716
4.925799999999999,7.734468069293349,0.1094941812324607
4.928144,7.724786222501098,0.10944441220553472
4.930491999999999,7.7175257853358445,0.10935339043008711
4.932839999999999,7.703607419625283,0.10932068725096422
4.935191999999999,7.689689053914719,0.10928795252345905
4.937536,7.672977191524822,0.1092765791116817
4.939879999999999,7.657615803575284,0.10923872584556801
4.942219999999999,7.645606990812523,0.10915245498985379
4.944559999999999,7.6390926236098124,0.10899049626893642
4.946907999999999,7.631507321220463,0.1088422140708773
4.949256,7.622711314017616,0.10871379090112782
4.951592,7.612332514948934,0.10858699059181329
4.953932,7.603024651066888,0.10844639111141742
4.956275999999999,7.593996326438564,0.10829277158050572
4.95862,7.5920452392361275,0.10806288890221212
4.96096,7.589302756100775,0.10783356169427992
4.963303999999999,7.588143064831258,0.10760278208969985
4.965652,7.59378107173391,0.10730879859283604
4.967988,7.597277208263284,0.10704212949793991
4.970331999999999,7.595558438486325,0.10683667829163836
4.972683999999999,7.6007771365083965,0.10656199794475213
4.975019999999999,7.610511892702499,0.10625738812819972
4.977359999999999,7.616754304082967,0.1060062208323117
4.979704,7.622856945836572,0.10576033821043432
4.982052,7.631101457963457,0.10548769889836064
4.984392,7.636784790836482,0.1052602961609261
4.986735999999999,7.644330454829063,0.10501895267159392
