Time,Force,Position
4.320668,0.017421974174605438,0.0
4.32302,0.016351038987966908,0.0
4.3253520000000005,0.014348938241550056,0.0
4.327696,0.017421974174605434,0.0
4.330036,0.018912218241824597,0.0
4.332380000000001,0.019703614174742708,0.0
4.334716,0.02249711085407767,0.0
4.3370560000000005,0.02742707018730321,0.0
4.339408000000001,0.03664077026708287,0.0
4.341736000000001,0.044923304787084214,0.0
4.34408,0.05027257300089038,0.0
4.34642,0.05683254602819529,0.0
4.348768,0.06367205830922062,0.0
4.351108,0.07079110984396637,0.0
4.353448,0.07777039175185192,0.0
4.355796,0.08488944328659766,0.0
4.358128000000001,0.09214826444820362,0.0
4.360468000000001,0.0994070856098096,0.0
4.362812,0.10573474121163724,0.0
4.36516,0.10992052644018782,0.0
4.3675,0.11210961864170803,0.0
4.3698440000000005,0.1124363797236716,0.0
4.372192,0.11155243599213642,0.0
4.374524000000001,0.10852662188732419,0.0
4.37688,0.1072233692752084,0.0
4.37922,0.10647919517053343,0.0
4.381564000000001,0.10159104994616455,0.0
4.383904000000001,0.09666109061293901,0.0
4.386248,0.08744739053315935,0.0
4.388596,0.07916485601315801,0.0
4.390936,0.07381558779935184,0.0
4.393276,0.06725561477204693,0.0
4.395620000000001,0.06041610249102161,0.0
4.397956000000001,0.05329705095627586,0.0
4.400292,0.046317769048390314,0.0
4.402636000000001,0.039198717513644565,0.0
4.40498,0.0319398963520386,0.0
4.40732,0.024681075190432642,0.0
4.409660000000001,0.018353419588605,0.0
4.412004,0.014167634360054419,0.0
4.414340000000001,0.01105278431814237,0.0
4.416676000000001,0.007937934276230322,0.0
4.41902,0.005894019420956804,0.0
4.4213640000000005,0.003989874192543495,0.0
4.423704000000001,0.0020857289641301856,0.0
4.426044000000001,4.181410885666758e-05,0.0
4.428388,0.0,0.0
4.430728,0.0,0.0
4.4330680000000005,0.0,0.0
4.435412,0.0,0.0
4.437760000000001,0.0,0.0
4.440104,0.0,0.0
4.442448000000001,0.0,0.0
4.444792,0.0,0.0
4.447140000000001,0.0,0.0
4.449479999999999,0.0,0.0
4.451828000000001,0.0,0.0
4.454168000000001,8.714007923057579e-05,0.0
4.456512,0.00017428015846115155,0.0
4.458856000000001,0.00017428015846115155,0.0
4.461196000000001,0.00017428015846115155,0.0
4.463536,0.00017428015846115158,0.0
4.465876,0.00017428015846115158,0.0
4.468224000000001,0.00017428015846115158,0.0
4.470568,0.00017428015846115158,0.0
4.47292,0.00017428015846115158,0.0
4.475264000000001,0.00017428015846115158,0.0
4.477604,0.00017428015846115158,0.0
4.479952000000001,0.00017428015846115158,0.0
4.482292000000001,0.00017428015846115158,0.0
4.484640000000001,0.00017428015846115158,0.0
4.486988,0.00017428015846115158,0.0
4.489328,0.0001742801584611516,0.0
4.491671999999999,0.0001742801584611516,0.0
4.494012,0.0001742801584611516,0.0
4.4963560000000005,0.0018819546424248656,0.0
4.498704,0.022301696404833593,0.0
4.501048000000001,0.06390754462031442,0.011501117687552711
4.503396,0.12301665115861071,0.02127738428072052
4.505732,0.18933356531453133,0.031155203954377673
4.508072,0.26430671704643877,0.04120536224436979
4.51042,0.3531963386310394,0.05113820668638461
4.51276,0.4632194371210825,0.060403977999397944
4.515116000000001,0.5888362409861412,0.06938668662868343
4.517456000000001,0.7266488490690659,0.07817228460919784
4.5198,0.8710230461829437,0.0871347533136292
4.52214,1.026008359790982,0.09622804021819593
4.524484000000001,1.2002648191849057,0.1050735203278022
4.526835999999999,1.4027792147384046,0.11333222341254016
4.52918,1.6201431415622438,0.12144442934380908
4.531524000000001,1.8423460959243398,0.12972653938781797
4.533864,2.0732052878624225,0.13812444993629816
4.536204,2.3170970059216636,0.14653696472331074
4.538540000000001,2.5821240967442156,0.15463950138956234
4.540884,2.86312077170986,0.1624105673733764
4.543224,3.1442267773407226,0.17005316278553148
4.545568000000001,3.3993583826700173,0.1777746422138156
4.547908,3.6280018351606773,0.1741279372165492
4.550248,3.841468995299033,0.17223447739788333
4.552592000000001,4.055264812377221,0.17009360274971935
4.554932000000001,4.261941857774885,0.16767142081708303
4.557276,4.447859409177314,0.16541497153584092
4.559616,4.603192058449655,0.16402130158118042
4.561964,4.743954715705376,0.16293569405795386
4.5643080000000005,4.876990405087022,0.16201683582960955
4.566648000000001,5.005746145437849,0.1608529736625468
4.568992,5.121424033697146,0.15953954980475984
4.571332,5.210381451692329,0.15862624565211988
4.57368,5.263025308714029,0.15856254960876778
4.576024,5.307150801928732,0.1585675255151949
4.578376,5.353234965777348,0.15824245286388058
4.58072,5.390710113878221,0.1577472830266801
4.58306,5.411195756193344,0.15728124397489
4.5854040000000005,5.403329018692406,0.15732063473784108
4.58774,5.382750828578666,0.15769811817813062
4.590088,5.367385648913388,0.15807584390995436
4.5924320000000005,5.356256988166423,0.1584003738462927
4.594784000000001,5.3406594910756695,0.1587745804706266
4.597128,5.320825475066605,0.1592210179395668
4.599472,5.299453993162077,0.1597646905709701
4.601816,5.2832955217060125,0.160306252194803
4.604164000000001,5.279194980698823,0.1606580121166734
4.606508,5.282171677117522,0.16084102973421896
4.608855999999999,5.283565581670386,0.1610413903697992
4.6112,5.280024119170638,0.1613585214802312
4.61354,5.280951493014677,0.1616385609249206
4.615888,5.288489573575782,0.16183068775550954
4.618232000000001,5.300451164510301,0.16189465465336414
4.620584000000001,5.31567278283298,0.161802640430857
4.622928,5.322513911117653,0.16189295798689932
4.62528,5.326374551267889,0.1621069963562477
4.627616,5.338847998881605,0.16218273585166454
4.629956,5.355837504667353,0.1621745955187421
4.632308,5.3753881897069595,0.16206422208890953
4.634648,5.391401203962556,0.16196771110654065
4.636992000000001,5.404620721538817,0.1619359313599536
4.639332,5.426453046578561,0.16176935075864923
4.641676,5.4653258909480344,0.1612410510556778
4.644016000000001,5.500288977481161,0.16068383141043607
4.64636,5.52519623431183,0.16027536662432804
4.6487,5.54824116002294,0.1599206618954056
4.65104,5.567653971293556,0.15969187787878905
4.653384000000001,5.595075185549837,0.1592848575753926
4.655724000000001,5.623894096074722,0.15877930267584256
4.658068,5.6554611773085695,0.15812717231105397
4.660404,5.680649869250827,0.15760120391329271
4.662748000000001,5.703277381939228,0.15716835919556427
4.665088000000001,5.733214449478995,0.15661238609137065
4.667428000000001,5.773721099258286,0.15580332264833577
4.669768,5.816836150119678,0.15485471376594157
4.672112,5.854643746876119,0.1539922755439485
4.67446,5.885793415087256,0.15328436560062758
4.676796,5.920807515164363,0.15251617393059383
4.679136,5.961036521547803,0.1516205505861721
4.6814800000000005,6.000893440878906,0.1507012797624886
4.683816,6.0335805749855025,0.14989634946650443
4.686156,6.063613982039625,0.14914968832123748
4.6885,6.087501317227635,0.14855120677760666
4.69084,6.11921006394621,0.14784514765431728
4.693176000000001,6.157344421784617,0.14698680663575348
4.695516,6.18793690734618,0.1462177631753917
4.69786,6.216015435482129,0.14547778291577695
4.700200000000001,6.236457647684747,0.14492505386777987
4.702544,6.252476349513952,0.14447584546349881
4.704888,6.264351080223461,0.1441152383026473
4.707236,6.273619305708741,0.14374176352082618
4.709580000000001,6.286379876007655,0.14328488980462525
4.711924,6.295508331866073,0.14293028641350083
4.714268000000001,6.294858601417884,0.14279560105349115
4.716620000000001,6.292067000596418,0.1427071263541374
4.718964,6.291604261603334,0.14251634935106494
4.7213080000000005,6.288068486677194,0.14238665516287552
4.723648000000001,6.279689892497058,0.14238375207061751
4.725984,6.2756875868620945,0.14232678422112058
4.728332,6.268472475667214,0.14233811912760716
4.730684,6.261536903726055,0.14233304323342214
4.733024,6.2499455039860035,0.14239912871069466
4.735372,6.234861759432316,0.14255264001758677
4.737712,6.221780115625046,0.1426652097498983
4.740056000000001,6.206044744765299,0.14280903189606844
4.742388,6.190588913159274,0.14293789606036916
4.744736,6.17499331192639,0.1430768183541719
4.747076,6.16205143774598,0.14318292677381153
4.749416,6.156419118416935,0.1431834249767105
4.751756,6.157352179834583,0.1430379843725043
4.754100000000001,6.161730364237623,0.1428535036926572
4.75644,6.157960376028135,0.14282474184465382
4.758788000000001,6.154190387818647,0.142796080372438
4.761132,6.155495536288633,0.1426711657554629
4.763484,6.155217892892781,0.14255616076222966
4.765824,6.152518839869932,0.14250441489704851
4.768168000000001,6.148888621287306,0.14246702270170475
4.770516000000001,6.150473309011012,0.1423237753891161
4.772852,6.146610773002908,0.14225662822945986
4.775196000000001,6.145728725129242,0.14209115141072542
4.777536,6.148990648375269,0.14184279957478407
4.779884000000001,6.1564890905396075,0.14155072838707197
4.782216,6.169854065316338,0.1411574480687454
4.784560000000001,6.178982521174755,0.1408118822928355
4.786916,6.186108876286758,0.14050126006107524
4.789251999999999,6.196959893637873,0.14013502038416498
4.791596,6.212606508414741,0.13969350437648376
4.793936,6.231605698378382,0.13918197827909995
4.796284,6.246508139050573,0.13870829573377505
4.79862,6.252191471923599,0.13840645925225326
4.8009640000000005,6.258526431102682,0.1381103571877956
4.803316000000001,6.2675151173342405,0.13778035694141766
4.805656000000001,6.281206853192933,0.137343985866396
4.808,6.2955974371859265,0.13686963737737007
4.81034,6.3122224393508155,0.13638613187011495
4.812684000000001,6.330010924500959,0.1359162053500207
4.8150200000000005,6.3493822015169386,0.13543325528244363
4.817364,6.36237508924133,0.1350378420003065
4.819716,6.374436811405944,0.13465452266456748
4.822056,6.385100837301955,0.13435389533342437
4.824400000000001,6.3927843750635285,0.13414756821337717
4.826744,6.399024890586126,0.13394367589988845
4.829080000000001,6.401448196070992,0.13375552345265126
4.831416000000001,6.402381257488639,0.1336132854212302
4.83376,6.409692708197875,0.1333906166087578
4.836104000000001,6.417376245959448,0.13319029437749058
4.838448,6.420683495175851,0.13303740846097392
4.840792,6.420545621406859,0.1329186870774494
4.843132000000001,6.418777733943789,0.13285288895152048
4.845476,6.422457070212529,0.13272055044550166
4.8478200000000005,6.426276176108129,0.13258113196316937
4.850168,6.432936000511305,0.13236074685519048
4.852512000000001,6.430516486742178,0.13229085969876805
4.854852000000001,6.42590788077153,0.13230602676465072
4.857196,6.425163706666854,0.13226517967140686
4.859540000000001,6.426189315883119,0.13216407650114562
4.861888,6.431266348420459,0.13195618265286713
4.864224,6.438857338383416,0.13172892041239007
4.866572,6.448682746518266,0.13149834487387618
4.868912,6.46293166502653,0.1311802762632402
4.871264,6.478019201295956,0.1308118195222926
4.873608000000001,6.492175572005604,0.1304565210896147
4.875952,6.510288922379843,0.1300864550445459
4.878299999999999,6.531847395739473,0.12968571754169306
4.88064,6.549401667606271,0.12935136848456968
4.882988000000001,6.562160342047316,0.12908117912858175
4.885340000000001,6.577572743540836,0.12878569650140942
4.88768,6.594148628019611,0.12850904119603734
4.890024,6.614868483618081,0.12816342042191514
4.892372,6.634005547350714,0.12782537547814016
4.894708,6.652351215150429,0.12749400013086826
4.897056000000001,6.671068970002482,0.12718761869752118
4.899395999999999,6.694442552653426,0.12682346553141083
4.901744000000001,6.71972568825217,0.1263949352709538
4.904084000000001,6.743286262358218,0.12598569393933912
4.906428,6.766567297210546,0.1255951372567423
4.908776,6.787938779115074,0.12527464505064356
4.911112000000001,6.809450030646462,0.12494841409116601
4.913456,6.834313857364625,0.12456552506979778
4.915800000000001,6.861040015202346,0.12416901694931903
4.9181360000000005,6.888278029719264,0.12378410685283563
4.920472,6.916307440169099,0.12339778066857293
4.922816000000001,6.940891727633542,0.12304110863150353
4.9251640000000005,6.964032992859008,0.1226842286163756
4.927504000000001,6.988245193271115,0.12231125563893606
4.929844000000001,7.017672299989552,0.12185847172047269
4.932188,7.047099406707989,0.12141052917316429
4.93454,7.073081390441034,0.12098719030740297
4.936872000000001,7.100925705293636,0.12055152162701752
4.939220000000001,7.129142107198577,0.12013416979437823
4.941560000000001,7.157078969849795,0.11973379634661988
4.9438960000000005,7.1803600047021225,0.11938188662629395
4.94624,7.204851744367948,0.11900919252020166
4.948584,7.227713470339695,0.11868319830463481
4.950928000000001,7.252297757804138,0.11834955826625873
4.953264000000001,7.276602506014861,0.11803149442546658
4.955608,7.301326563106164,0.11769558400918825
4.957952000000001,7.327261325010966,0.11734020591758597
4.960292000000001,7.347050015049656,0.11706802943749656
4.962636,7.3609721724759565,0.11686412953349355
4.964980000000001,7.377315739529255,0.11661645958775148
4.967328,7.393799076209414,0.11636315219397161
4.969672000000001,7.407861003262576,0.11615373991375633
4.9720200000000006,7.422574556621795,0.11595011913394383
4.974372000000001,7.4363569444212345,0.11575591768240551
4.976716,7.449208166660897,0.11557211225504833
4.9790600000000005,7.459405661848086,0.11540780072276234
4.981404,7.4723966537146085,0.1152179744728957
4.983756,7.478729717035822,0.11509474230301464
4.9861,7.488694894797533,0.11490695750135703
4.988448,7.49493541032013,0.11475201660757883
4.990788,7.503317796216003,0.11456638394596409
4.993132000000001,7.50969808136546,0.11440513668007518
4.995472,7.514635344275941,0.11423990563657717
4.997816,7.513845844200892,0.11413160743440474
5.0001560000000005,7.5136154226332845,0.1139966979963022
5.0025,7.512453835505898,0.11387056362366713
5.004844,7.50607734207218,0.11381200066209327
5.007192,7.5047759853179326,0.11369258116173683
5.009528,7.504545563750325,0.11355785703203863
5.011872,7.505246307742495,0.113416041641713
5.01422,7.505155655801747,0.11327588567041945
5.016556,7.507626183114858,0.11308615400519371
5.0189,7.510516019308549,0.11287727720190813
5.021240000000001,7.513545625129099,0.11266198747593745
5.023592000000001,7.5153645261361515,0.11246820387180848
5.025928,7.519045758262761,0.1122589097918131
5.028271999999999,7.519933493710035,0.11207303623739136
5.030620000000001,7.521612625090226,0.11188469227169842
5.032956,7.516214519044527,0.11177829286650635
5.035299999999999,7.514960384118524,0.11161999412005301
5.037644,7.512635314005881,0.11147613725494426
5.039992,7.509518847960322,0.11133341354228499
5.042332,7.510266813780735,0.11115257971598683
5.044676000000001,7.511154549228009,0.1109636901152898
5.047024,7.51297345023506,0.11076793404177075
5.049367999999999,7.50971721456264,0.11063099774308655
5.051712,7.510604950009915,0.11044196396208476
5.054052,7.505905692098519,0.11030048912452407
5.056396,7.5053504053068165,0.1101080111330519
5.058732000000001,7.5009306866491405,0.10995365795591147
5.061072000000001,7.494648636871908,0.1098144112734955
5.063416,7.488226817467815,0.1096816304192998
5.065756,7.479663127690445,0.10957719681585419
5.068099999999999,7.470028502726437,0.10948678271702061
5.07044,7.461884121829647,0.10936219767855371
5.072784,7.449595769813164,0.10928760921649203
5.075124000000001,7.444105115968848,0.10914692270435832
5.077468,7.441827267684451,0.10896388072018458
5.079812,7.445415952012442,0.10872223190922782
5.082152000000001,7.449935801900212,0.10847464168457997
5.084496,7.457668457347897,0.10818625875632858
5.086836,7.464330177608945,0.10791084510389776
5.089180000000001,7.467918861936936,0.10767123142230914
5.091516,7.477513848504178,0.10736889933273337
5.093864,7.48138207208589,0.10711635188184335
5.0962,7.488602870854378,0.10681401855624154
5.098544,7.493030172943531,0.10653362325267902
5.100887999999999,7.498109101338741,0.10625726434266734
5.103228,7.500114993800897,0.10601755225228225
5.105572,7.499839246262915,0.10581103569599364
5.107916,7.503288160964046,0.10557553653062401
5.110264000000001,7.505666140478539,0.1053537887037765
5.112616000000001,7.510046220739449,0.10511116471417042
5.11496,7.5165681713736365,0.10484132804714048
5.1173,7.51773544607463,0.10463970838823718
5.119644000000001,7.520113425589123,0.10441616793460257
5.121980000000001,7.511689505438614,0.10429950356210047
5.124316,7.500332318981909,0.1042110035225588
5.126664,7.489254671778925,0.1041088300553123
5.129008000000001,7.473241657523328,0.10405516836265247
5.131352,7.453084672148037,0.10404893683078069
5.1336960000000005,7.434929787519165,0.10402175618732123
5.13604,7.418637234009847,0.10398010595798131
5.138388000000001,7.398200709380836,0.1039852089815469
5.1407240000000005,7.380138372550581,0.103989688830755
5.143072,7.364869532399658,0.10397202255193078
5.145424,7.35346512411471,0.10391934057987427
5.14776,7.3471358525092345,0.10381222129908804
5.150104000000001,7.3409463505306185,0.10369839942535267
5.152444000000001,7.3387610500448375,0.10354376232384366
5.154788,7.331780152133304,0.10342991510812795
5.157128,7.3288034557146045,0.10327580902373201
5.159472000000001,7.321962327429931,0.10315515227856334
5.161824000000001,7.314841659891537,0.10304752512443988
5.164160000000001,7.312656359405755,0.10289267848670486
5.166504,7.317408526719003,0.1026720701007599
5.168852000000001,7.332171197764335,0.10235146045453557
5.171196,7.351589696608558,0.10199879694646337
5.173536,7.367515850639145,0.10169967386926546
5.175879999999999,7.386235501349066,0.10137943099156949
5.178232,7.406537943924825,0.10105769329756012
5.180568000000001,7.42856294799328,0.1007310600391011
5.182912,7.450867491315455,0.10039371602015412
5.185268000000001,7.474103200197407,0.10004970395022271
5.187608000000001,7.499620549079498,0.09967344559172604
5.189952,7.521925092401673,0.09933763435917903
5.1923,7.541156599790793,0.09903566037833862
5.194636000000001,7.558525776060356,0.09874980320094472
5.196975999999999,7.5742649386358405,0.09850187637491155
5.199316,7.591214806024823,0.0982370354980176
5.201668,7.612820501212696,0.09794085463170168
5.204008,7.627488728601542,0.09770755095887865
5.206352000000001,7.648023488602778,0.09742502938363132
5.208696,7.6648335863649,0.09716678281923087
5.211044000000001,7.683925324127158,0.09688015135675036
5.213388,7.697941925209945,0.09664576168595812
5.215736,7.708885490359679,0.09644422232778038
5.218084000000001,7.718758120322771,0.09625657633914067
5.220428,7.728910289539585,0.09605601447522538
5.222772000000001,7.738922689129538,0.09586172567228698
5.225116,7.750285563159851,0.09564366520095406
5.227468,7.760996810884105,0.09542061479714636
5.229804,7.7714285193546395,0.09521091947304258
5.232152000000001,7.785864429318008,0.09496874183293846
5.234496,7.799089634467876,0.09474483911603906
5.236836,7.8132460051775245,0.09451505355207385
5.239180000000001,7.831127038126285,0.09426437051889083
5.241524,7.844584560701632,0.09406520890933805
5.243868000000001,7.861534428090615,0.09381995054801075
5.246216,7.87648219473318,0.09359319771029452
5.24856,7.890498795815967,0.09337321498777369
5.250904,7.910102390257424,0.09312020065462286
5.253236000000001,7.927424344698744,0.09289795481324822
5.25558,7.950333292498734,0.0926442443462062
5.257928,7.9678875643655305,0.0924476073419568
5.260263999999999,7.987304167351884,0.0922415487157964
5.262604,8.007372396644296,0.09204354308999435
5.264948,8.02636969075007,0.091857776259117
5.267296,8.047229315975397,0.09166213025418696
5.269636,8.070091041947144,0.09145138403987083
5.271980000000001,8.093744163851808,0.09124318142448094
5.274328000000001,8.117769372808812,0.09105470052578342
5.27666,8.140723646579175,0.0908775146981046
5.278996000000001,8.156460913296788,0.09076419560139376
5.28134,8.177413086320739,0.09060541420160406
5.283688,8.202369460837518,0.0904176445487584
5.286023999999999,8.227186065727437,0.09023784333921887
5.288368,8.261361548043386,0.0899782413911598
5.290716,8.295397260732472,0.08972749786880287
5.293051999999999,8.331295304541115,0.0894696322459236
5.295392,8.367333117976617,0.08920801946476828
5.297736,8.40458163622562,0.08893388473017745
5.300084,8.440898988914844,0.08866469726197027
