Time,Force,Position
4.541192,0.0008542258130007779,0.0
4.54354,0.0024920435329999074,0.0
4.545876,0.005061026812777357,0.0
4.54822,0.009911650092692079,0.0
4.55056,0.015041812626327221,0.0
4.552912,0.020311744786822572,0.0
4.555248,0.025581676947317923,0.0
4.557592,0.0317827746675916,0.0
4.559936,0.035190375708530314,0.0
4.562272,0.036316336749331754,0.0
4.564616,0.03665090185721508,0.0
4.56696,0.038056402151736946,0.0
4.569304,0.04053283763289734,0.0
4.57164,0.04715324423375164,0.0
4.573983999999999,0.053773650834605946,0.0
4.576336,0.06025428780860004,0.0
4.578668,0.062303610383260044,0.0
4.581008,0.0645005066107,0.0
4.583352,0.06776833802477851,0.0
4.585692,0.06846718615907957,0.0
4.588028,0.07373711831957493,0.0
4.590372,0.0745757360807362,0.0
4.592716,0.07200675280095874,0.0
4.595056,0.06715612952104401,0.0
4.5974,0.06202596698740886,0.0
4.599743999999999,0.05802176549457515,0.0
4.602088,0.052751833334079797,0.0
4.604424,0.04655073561380612,0.0
4.606764,0.04534003080030738,0.0
4.609108,0.04762167080044466,0.0
4.611448,0.04776144042730487,0.0
4.613792,0.04855283636022298,0.0
4.616132,0.048133527479642356,0.0
4.618476,0.043290708225647394,0.0
4.620812,0.038447888971652425,0.0
4.623156,0.03374483934451767,0.0
4.625496,0.035327631210353885,0.0
4.62784,0.04212532938252255,0.0
4.630184,0.04785209236805268,0.0
4.632524,0.05572072572685988,0.0
4.634868,0.05865399203305505,0.0
4.637204,0.0653119205783635,0.0
4.639548,0.0764483853512492,0.0
4.641888,0.0874450804972747,0.0
4.644228,0.09765037971038207,0.0
4.646567999999999,0.10565878269604947,0.0
4.648912,0.1181457219092941,0.0
4.651256,0.13021335224195812,0.0
4.653592,0.1372905896678472,0.0
4.65594,0.14208618709359902,0.0
4.658276,0.15232900825116052,0.0
4.660628,0.15805577123669065,0.0
4.662972,0.16164066384894374,0.0
4.665312,0.16084926791602566,0.0
4.66766,0.1628513686624425,0.0
4.669995999999999,0.16685557015527624,0.0
4.672344,0.16657603090155582,0.0
4.674688,0.16029018940858486,0.0
4.677028,0.15307318235583556,0.0
4.679372,0.14557663604936583,0.0
4.681716,0.13737343758267528,0.0
4.68406,0.12823907355620642,0.0
4.6864,0.11710260878332075,0.0
4.688752,0.10610591363729525,0.0
4.691091999999999,0.09590061442418789,0.0
4.693436,0.08662648077085883,0.0
4.69578,0.07413954155761418,0.0
4.698124,0.06207191122495016,0.0
4.700472,0.0527977775716211,0.0
4.702815999999999,0.04459457910493058,0.0
4.70516,0.03387742321262551,0.0
4.707512,0.02595376399965541,0.0
4.709848,0.020311744786822575,0.0
4.712192,0.020451514413682786,0.0
4.714544,0.016671826320406594,0.0
4.71688,0.01089003748071355,0.0
4.71922,0.007250119014297569,0.0
4.721564,0.00454136610765991,0.0
4.723912,0.00276377876080057,0.0
4.726248,0.00112596104080144,0.0
4.728591999999999,0.00112596104080144,0.0
4.73094,0.00239169170846309,0.0
4.733276,0.007521854242098232,0.0
4.735628,0.012652016775733374,0.0
4.737968,0.016059617816672086,0.0
4.740311999999999,0.019327449230750585,0.0
4.742652,0.022735050271689303,0.0
4.744996,0.031078018365240035,0.0
4.747344,0.03928121683193056,0.0
4.749692,0.04962628567189815,0.0
4.752032,0.05796925376544887,0.0
4.754376000000001,0.06431012111258275,0.0
4.75672,0.06864888771329979,0.0
4.75906,0.07386379401963222,0.0
4.7614,0.0809960572996842,0.0
4.763743999999999,0.08798855095287601,0.0
4.766095999999999,0.09283917423279073,0.0
4.76844,0.09661886232606692,0.0
4.77078,0.10039855041934312,0.0
4.773123999999999,0.10632010888589638,0.0
4.775464,0.11317283291222795,0.0
4.777811999999999,0.1158265599647027,0.0
4.780151999999999,0.11368468959142562,0.0
4.782508,0.11275352403164732,0.0
4.784848,0.11433631589748354,0.0
4.787191999999999,0.11712981257681848,0.0
4.789532,0.12043516593535113,0.0
4.791872,0.11815352593521387,0.0
4.794219999999999,0.11480095074843806,0.0
4.79656,0.10837533962860688,0.0
4.798912,0.10502276444183108,0.0
4.801256,0.10767649149430583,0.0
4.803596000000001,0.11554512485311301,0.0
4.80594,0.11740745597266965,0.0
4.80828,0.11475372892019492,0.0
4.810628,0.1163837426142743,0.0
4.812975999999999,0.12015562668163073,0.0
4.8153120000000005,0.12392751074898715,0.0
4.817656,0.12769939481634357,0.0
4.820003999999999,0.12918963888356275,0.0
4.8223400000000005,0.12867778220436507,0.0
4.824688,0.1329615229509192,0.0
4.827031999999999,0.14017853000366848,0.0
4.8293800000000005,0.14418273149650218,0.0
4.831716,0.14739553705641775,0.0
4.834056,0.14553320593686112,0.0
4.836404,0.1440901836978851,0.0
4.83874,0.1399462125781912,0.0
4.84108,0.13729248552571646,0.0
4.843424000000001,0.13570969365988023,0.0
4.845768,0.13398713216718383,0.0
4.848108,0.1281205995547935,0.0
4.850448,0.11703916063607073,0.0
4.852803999999999,0.10996192321018163,0.0
4.855143999999999,0.10926307507588057,0.0
4.857488,0.10255792470232897,0.0
4.859831999999999,0.09571300470191714,0.0
4.862171999999999,0.0911497247016426,0.0
4.864512,0.08458434395495121,0.0
4.866856,0.07717254142117878,0.0
4.869204,0.07083167407404489,0.0
4.871544,0.06262847560735436,0.0
4.873887999999999,0.05242317639424699,0.0
4.876232,0.04421997792755646,0.0
4.878584,0.03601677946086595,0.0
4.88092,0.03181778248700913,0.0
4.883267999999999,0.026547850326513772,0.0
4.885612,0.02463049335279422,0.0
4.887955999999999,0.02243359712535425,0.0
4.890295999999999,0.020096931271054067,0.0
4.89264,0.017163664964858896,0.0
4.894992,0.015161564218442041,0.0
4.897328,0.014090629031803512,0.0
4.899676,0.015021794591581832,0.0
4.90202,0.012787376419687711,0.0
4.904363999999999,0.010870019445968162,0.0
4.906708,0.009092432099108821,0.0
4.909051999999999,0.007789179486993021,0.0
4.9113880000000005,0.0068580139272147005,0.0
4.913724,0.009240005751888788,0.0
4.916076,0.01241149765161175,0.0
4.918424,0.019630621156673075,0.0
4.920764,0.03438782522283953,0.0
4.923107999999999,0.06571522619417389,0.0
4.925447999999999,0.11873518257839155,0.009911743063001993
4.927795999999999,0.19112072840498134,0.01860392689574011
4.930144,0.27113879844916255,0.027513112023331576
4.932487999999999,0.3573916964423331,0.03694688409855016
4.934836000000001,0.4575610642881969,0.04636218682113521
4.937175999999999,0.5810057794127801,0.05511667711582169
4.939515999999999,0.7232019796181319,0.06345018500546251
4.941863999999999,0.8710758251229014,0.07189636440299468
4.944208,1.024440324471985,0.0806345846129842
4.9465520000000005,1.1864138395688126,0.08951091576637644
4.948891999999999,1.3670994219440848,0.09822251493626831
4.95124,1.574003317788061,0.1064775829272251
4.953583999999999,1.7917525434095443,0.11471313866822877
4.955928,2.012888074446519,0.12315522627150893
4.958276,2.2525505771647043,0.13150380991934424
4.960611999999999,2.507342150406951,0.13972665381869143
4.962952,2.779873091113229,0.14766182337072883
4.965296,3.057156199132754,0.15540417482864013
4.967632,3.3260645046878814,0.16306141680956074
4.969975999999999,3.5699295755012193,0.1708360241152402
4.972315999999999,3.785956019035564,0.16885209697479656
4.974664000000001,3.984711521672569,0.1680827002534748
4.976996,4.1790473056519,0.16700925572721975
4.979336,4.367102935711866,0.16531525943214945
4.981679999999999,4.533188366963097,0.16373222244084606
4.984016,4.664265385710831,0.16309262807071007
4.98636,4.775929593187947,0.16295373035319355
4.9887,4.888946170963292,0.16256033120577765
4.991052,5.00489980676057,0.1616749312118176
4.993388,5.103352080092902,0.16076346257360574
4.995732,5.177458070959876,0.16018209250636994
4.9980720000000005,5.226424487570705,0.16014758467443566
5.000411999999999,5.273810008173568,0.15998309868548502
5.002751999999999,5.3216186293727485,0.15945159047205937
5.005096,5.343545398068978,0.15913258203082264
5.007439999999999,5.342988215419407,0.15901779355752385
5.009779999999999,5.321061446723177,0.15931097338032296
5.01212,5.290147887653258,0.1598657490325649
5.014464,5.266217122352742,0.16033456859568032
5.0168040000000005,5.249735681530453,0.16066128698545823
5.019148,5.234604715148522,0.16095056165550337
5.021488,5.214910468766317,0.1613914080403262
5.0238320000000005,5.197915275406961,0.1618696231504606
5.026171999999999,5.190649150668099,0.1622598900079495
5.028511999999999,5.193578625258556,0.16249687233446714
5.030856,5.208660473954375,0.16241966100316846
5.033196,5.221507904478298,0.1623550934686813
5.035532,5.232493003882665,0.16233718463048707
5.037875999999999,5.245572751832066,0.1623233806089956
5.040224,5.269174860192749,0.16208559032733041
5.042567999999999,5.2951058303818135,0.16171105421463675
5.044912,5.317778669040587,0.16131782912492978
5.047252,5.330627995422381,0.1611144237880528
5.049595999999999,5.34301079109535,0.1610032246516065
5.051936,5.371036409829447,0.16064182673745636
5.054276,5.40171575561602,0.16022415788815178
5.056611999999999,5.4369583814028655,0.15966172433633197
5.058959999999999,5.482071741294936,0.1588871021142443
5.061304,5.527137879358764,0.15820112561000932
5.063648000000001,5.577651241154401,0.15743470924997177
5.065987999999999,5.637803019629786,0.15642434092220694
5.068332,5.700191112134932,0.15523842634919274
5.070679999999999,5.754525475684038,0.1541481488534408
5.07302,5.795963291023109,0.15331192002941302
5.075372,5.840893451175815,0.15240312373323486
5.077716000000001,5.890247121701936,0.15140231794944936
5.080055999999999,5.939648014056298,0.15033308908412335
5.0824,5.976664214879824,0.14949523137010107
5.08474,6.00059687603821,0.1489501448742989
5.087088,6.02527371130127,0.14846121034911297
5.089428,6.05977405884131,0.14783252436244748
5.091772000000001,6.0972076726875475,0.14713757200035393
5.094116,6.134269199481445,0.14641628333840315
5.09646,6.16243837955814,0.14582881449166632
5.098796,6.18422917034325,0.14535510363541906
5.101139999999999,6.211746724113887,0.14478213507496188
5.103484,6.235307298219934,0.14424121782698043
5.105832,6.2429455100111335,0.1439266319764525
5.108172,6.242203231764327,0.1437507249610086
5.1105160000000005,6.239551400569722,0.14365342415190643
5.112855999999999,6.230985814934484,0.1437079657156601
5.1152,6.2226525467247225,0.14379151062102735
5.11754,6.217811623328597,0.14378771054564637
5.119883999999999,6.219116771798582,0.14366152067466267
5.122232,6.2180930584401874,0.14363792385739063
5.124568,6.214740483253411,0.1437131050674235
5.126911999999999,6.215252339932609,0.1437249205328071
5.12926,6.224890756612355,0.1435226740255884
5.131600000000001,6.239651531799818,0.14317672365911027
5.133948,6.25031555769583,0.14286989069734085
5.136288,6.257766778031924,0.14263512960324154
5.138636,6.2673598687412975,0.14235751717317072
5.140976,6.276441102771473,0.14206683573988135
5.143319999999999,6.287384667921204,0.14174466922955614
5.145664,6.303635687175885,0.14136337102929863
5.147992,6.319979254229184,0.14102553334116175
5.150335999999999,6.34256144094721,0.1406155721235024
5.152676,6.373524117703241,0.14008315865721024
5.155023999999999,6.40704797371313,0.13947883528330343
5.157360000000001,6.438429959349741,0.13892058035171534
5.159704,6.470463571292411,0.13836215456370868
5.162048,6.502916492115661,0.13778024432984598
5.164384,6.533646851446214,0.13722022083995838
5.166724,6.561863253351154,0.13668902370605573
5.169067999999999,6.5826303307778655,0.13625956995128666
5.171408,6.600883450778964,0.13585491112136744
5.173748,6.620347275593561,0.13542649870695406
5.176088,6.634596194101826,0.135095675275716
5.17844,6.645073228542735,0.13485947973535498
5.180788,6.658436307461595,0.1346235903608884
5.183128,6.66900588970112,0.134426759823784
5.185471999999999,6.678923845634586,0.1342279918481645
5.187811999999999,6.69084390231447,0.13399688740148638
5.190156,6.707699326046968,0.13368912974655545
5.192499999999999,6.7165463467937965,0.13351234206464938
5.194839999999999,6.723158949368731,0.1333418481502098
5.197188000000001,6.722601766719158,0.13325130309286182
5.199527999999999,6.7158059644048596,0.13322794173825805
5.201872,6.708451083583119,0.13323621102952493
5.204212,6.701795050895679,0.1332050088986789
5.206543999999999,6.699842067835375,0.1330717071639367
5.208883999999999,6.699099789588569,0.13291142024393515
5.211231999999999,6.697938202461183,0.13277425117574745
5.213588,6.696589623878694,0.13268801948896114
5.215928,6.704972009774568,0.13246303059417405
5.218268,6.712423230110664,0.13224918473194477
5.220611999999999,6.710515573020733,0.13219396923968987
5.222956,6.711121873356416,0.13211902681127338
5.225304,6.71773447593135,0.13195009350015383
5.227651999999999,6.7216008036551935,0.1317742908468254
5.229996,6.725095044326699,0.13157885393731616
5.232336,6.727238810557846,0.13141863962801992
5.234679999999999,6.724679527161856,0.13135914331290682
5.237024,6.721049308579229,0.13131910838516478
5.23936,6.723193074810375,0.13115952484644947
5.241707999999999,6.7194703084291305,0.13108408362102275
5.244044000000001,6.719844291339339,0.130981740454242
5.246388,6.728831081713028,0.1308029056380806
5.248728,6.738237180967297,0.13060039610823018
5.251068,6.747783049848427,0.13039141772445278
5.253408,6.754535422050222,0.1302195811046415
5.255751999999999,6.758726614998159,0.1301091230153988
5.258100000000001,6.7637092038790145,0.1299950460186215
5.260439999999999,6.772231359401751,0.12976818537149132
5.262784,6.774934204140336,0.12958212487243953
5.265127999999999,6.780337997759642,0.1293296524621944
5.267467999999999,6.798825331044087,0.1288843509719904
5.269807999999999,6.819454534701808,0.12840494901951605
5.272152,6.835847219441219,0.1279597647080932
5.2745,6.856244105673463,0.12746377685997223
5.276847999999999,6.878084014144684,0.12697096601967195
5.279188,6.9033690456012975,0.1264545650030507
5.281532,6.938152724110797,0.1257890360202682
5.28388,6.970562214821542,0.1251348488134688
5.286216,6.996825633666178,0.12457252763802777
5.288556,7.030166289936702,0.12390792878046412
5.290896,7.065136959901304,0.12320317218899221
5.293244,7.095219484641538,0.12252857657943043
5.295584,7.126512714195272,0.12183276420065119
5.297928000000001,7.158085483002724,0.12112794835040527
5.300272,7.185374511063624,0.12048982063097596
5.302616,7.212011912818465,0.11984413372170441
5.304968000000001,7.242001889760082,0.11914605896044553
5.307312,7.26407601151465,0.11858733184422955
5.309656,7.286382450694694,0.11805558740707904
5.311992,7.30584817136716,0.11759453941745433
5.314335999999999,7.316514093121041,0.11724301318028986
5.316687999999999,7.3243865181955865,0.11692041938208571
5.3190360000000005,7.329977303269994,0.11663604009494777
5.321375999999999,7.328211311664795,0.11645946125970524
5.32372,7.324582988940036,0.11630126295936398
5.326064000000001,7.314716046550551,0.11619294157882519
5.3284,7.297911636362038,0.11616845236823947
5.330743999999999,7.280827686919802,0.11615778108471936
5.333084,7.2648146726642056,0.11613171574422032
5.335431999999999,7.245449083221834,0.11616041870699285
5.337771999999999,7.222451379338965,0.11625746898020707
5.340116,7.198754827321795,0.11638999490085138
5.342456,7.173847570491127,0.11654409856693249
5.344799999999999,7.1434458681004065,0.11678687853871136
5.347144,7.118119302389157,0.11696291618505314
5.349484,7.094375528543744,0.11713560412178409
5.351824000000001,7.063414747645583,0.11740684039931859
5.354168,7.038879577867252,0.11758225291896347
5.356512,7.011411141782726,0.11779425788947331
5.358852000000001,6.982220144205504,0.11802050019244997
5.361196,6.956334499986815,0.1182322008968725
5.363543999999999,6.933242352447459,0.11841432339012874
5.365883999999999,6.914806032706997,0.11855070624903431
5.368228,6.900373914459368,0.11863627478491115
5.370571999999999,6.887524588077575,0.11871772777419207
5.372912,6.879842946173872,0.11876538436634182
5.375256,6.874395722442061,0.11881421470073403
5.377592,6.872673160949366,0.1188255313767626
5.379935999999999,6.876397823188479,0.1187886693398888
5.38228,6.881984816547149,0.11873337433668546
5.3846240000000005,6.888642745092457,0.118661385811985
5.386963999999999,6.894229738451127,0.11860522146519853
5.389308,6.898606026996298,0.11857285122053846
5.391655999999999,6.90898861778072,0.11846160180061008
5.394,6.9140165326319485,0.11843408865619734
5.396348,6.917973512296539,0.11842323838117286
5.398695999999999,6.927657254946659,0.11834746842599324
5.401031999999999,6.934919587969783,0.11832068970548806
5.403376,6.946186122485741,0.11824077256638515
5.405716,6.962248254427449,0.11810556093100306
5.408059999999999,6.980452256742435,0.11793839338141156
5.410408,6.996514388684143,0.11780597206629628
5.412748000000001,7.0097830239465155,0.1177020273706773
5.415096,7.021980724022251,0.11761513784490196
5.417436,7.037670768911623,0.11746658809382404
5.419779999999999,7.049775921188741,0.11734736719655525
5.422127999999999,7.061089677532941,0.11723001306399602
5.424467999999999,7.068539002011167,0.11715705946035546
5.426804000000001,7.075336700183335,0.11708038214350253
5.429148,7.085347203915419,0.11695745240002249
5.431495999999999,7.097359808393922,0.1168107444869258
5.433832000000001,7.115658254365394,0.11657787560028955
5.436171999999999,7.136889966643062,0.11631228923959742
5.4385200000000005,7.161986110786701,0.11601135799647547
5.440856,7.194019722729371,0.1156307672951949
5.443208,7.228986600978237,0.1152183055713778
5.4455480000000005,7.26502441441374,0.11479565398954795
5.447892,7.3002708319163245,0.11437321921555615
5.450232,7.33551724941891,0.11395346526599869
5.452572,7.369692731734856,0.11355193705990582
5.454927999999999,7.4001435518116905,0.11318576885248903
5.457267999999999,7.430594371888523,0.11281960064507222
5.459607999999999,7.464118227898412,0.1124169584093196
5.461952,7.496710918348523,0.1120216306846392
5.464295999999999,7.5250198680520795,0.11169015544531613
5.466632000000001,7.554120213688555,0.11135479464698034
5.468976,7.586573134511805,0.11097138061518572
5.471316,7.620096990521693,0.11057273519613729
5.473663999999999,7.647894083546052,0.11023008351813457
5.476004,7.6696848743311605,0.1099574397805011
5.478348,7.687890772504017,0.10971049670496337
5.480692,7.699159202877842,0.10953945970781702
5.483027999999999,7.7111264813859695,0.10933752042881234
5.485372,7.712571399482815,0.10923375210050498
5.487712,7.7115023601540456,0.1091404332006506
5.490055999999999,7.710992399332717,0.10902175071499326
5.4924,7.705966380339357,0.10893373217808361
5.494743999999999,7.702290835786355,0.10881889145610274
5.497088,7.7007571616066315,0.10867711358305822
5.4994320000000005,7.699642796307487,0.10851658609370284
5.50178,7.697457495821706,0.10836916594723521
5.50412,7.695691504216505,0.10820261722462343
5.506475999999999,7.689129915185552,0.10807836058655208
5.508816,7.6840585702218185,0.1079211512990744
5.51116,7.6774044333922475,0.10776524031576522
5.513503999999999,7.674242641376314,0.1075559708426091
5.515844,7.667495956748127,0.1073691356657629
5.518191999999999,7.659818106560162,0.10718915578836266
5.520543999999999,7.654142357118613,0.10698790325896168
5.522884,7.6515396436101195,0.10675235134753565
5.525228,7.650659491594324,0.10650851290334745
5.527571999999999,7.657927512191054,0.10617728277575475
5.529920000000001,7.659840856854593,0.10591308078227235
5.532264,7.667760503757382,0.10558620963534741
5.534608,7.673398510660033,0.1052929418928236
5.536951999999999,7.675823712002769,0.10504057516411566
5.539296,7.679971474838202,0.10478019338784299
5.541639999999999,7.686912734352967,0.10450075849242578
5.543996,7.6889186268151235,0.10426885972498938
5.546332,7.68985358409064,0.10405059917773611
5.548684,7.696143217299349,0.1037679834675237
5.5510280000000005,7.7010823760677,0.10351081182944183
5.553364,7.711888067448442,0.10320153072866535
5.5557,7.722274449948601,0.10291175764970442
5.558044000000001,7.731589897262122,0.10263316378561096
5.5604,7.736761373455949,0.10240053012318083
5.56274,7.741373771142337,0.10219276859092187
5.565084000000001,7.749059204761779,0.10195336105806943
5.567428,7.763682106180251,0.10165278804049824
5.569768,7.778305007598722,0.10135385322325477
5.572104,7.791065577897637,0.10106706255288136
5.574448,7.7978198459573,0.10083910692207032
5.5767880000000005,7.806436445136521,0.10059722228225289
5.579136,7.811840238755826,0.1003927919139345
5.581476,7.819665442002129,0.10015141411459255
