Time,Force,Position
6.138071999999999,0.1141683432427994,0.0
6.140456,0.11095553768288381,0.0
6.142852,0.10429760913757535,0.0
6.145239999999999,0.0976396805922669,0.0
6.14762,0.08819508011263325,0.0
6.150024,0.07982141481963811,0.0
6.152412,0.07623652220738504,0.0
6.154791999999999,0.07051658396686467,0.0
6.157188,0.06665897684590094,0.0
6.159576,0.061730434538298705,0.0
6.161956,0.05773305779047475,0.0
6.164351999999999,0.054666846602429146,0.0
6.166739999999999,0.05025016097402458,0.0
6.169124,0.04676464090539833,0.0
6.171519999999999,0.041277020090355214,0.0
6.173904,0.032064737036198825,0.0
6.176283999999999,0.0249943243553195,0.0
6.178692,0.02006578204771724,0.0
6.181075999999999,0.018070506046310154,0.0
6.18346,0.013141963738707891,0.0
6.185855999999999,0.00942412624460437,0.0
6.188239999999999,0.006817621020372769,0.0
6.190636,0.0038911794591873594,0.0
6.193031999999999,0.0009647378980019488,0.0
6.195419999999999,0.0043577101680111405,0.0
6.197799999999999,0.009613013557576973,0.0
6.200208,0.013152580199456136,0.0
6.202591999999999,0.01961858840252071,0.0
6.204972,0.02408249585916843,0.0
6.207379999999999,0.027335698502317412,0.0
6.209767999999999,0.028307261145329124,0.0
6.212147999999999,0.028347658228562514,0.0
6.214544,0.03225248717776939,0.0
6.216927999999999,0.033084280193920894,0.0
6.219308,0.03377630358321218,0.0
6.221712,0.03377630358321218,0.0
6.2241,0.03377630358321218,0.0
6.226476,0.03377630358321218,0.0
6.22888,0.03377630358321218,0.0
6.231268,0.03377630358321218,0.0
6.233647999999999,0.03377630358321218,0.0
6.236044,0.03373590649997879,0.0
6.238432,0.0337359064999788,0.0
6.240812,0.0337359064999788,0.0
6.243216,0.030342934229969608,0.0
6.2456,0.025087630840403774,0.0
6.24798,0.02062372338375605,0.0
6.250375999999999,0.014157715180691477,0.0
6.252763999999999,0.009693807724043753,0.0
6.255144,0.0064406050808947695,0.0
6.257548,0.007651309894393512,0.0
6.259931999999999,0.010584576200588683,0.0
6.262312,0.00872224508103204,0.0
6.264711999999999,0.01794135288019819,0.0
6.267099999999999,0.027300230306224544,0.0
6.26948,0.03856183593504093,0.0
6.271884,0.05047506786991521,0.0
6.274272,0.06425063092434614,0.0
6.276652,0.07881758991169519,0.0
6.279048,0.09017174333912863,0.0
6.281431999999999,0.1024570623263404,0.0
6.283816,0.11381121575377384,0.0
6.28622,0.1267481610470435,0.0
6.288603999999999,0.13540136559375904,0.0
6.290984,0.14326317420755647,0.0
6.293388,0.15298731394091053,0.0
6.295776,0.16457378479382123,0.0
6.298155999999999,0.17308721971367655,0.0
6.300547999999999,0.1853253168726452,0.0
6.302935999999999,0.19304735585958238,0.0
6.305316,0.19723665294965023,0.0
6.30772,0.19891199261410353,0.0
6.310103999999999,0.19965616671877845,0.0
6.312484,0.18960526590346083,0.0
6.314891999999999,0.17955436508814318,0.0
6.317276,0.17187082732657014,0.0
6.319656,0.16367543288579936,0.0
6.322051999999999,0.15068444101927678,0.0
6.324439999999999,0.13797298840647462,0.0
6.32682,0.13047644210000492,0.0
6.329224,0.12218849986061711,0.0
6.331607999999999,0.11376078799436909,0.0
6.333988,0.10095678758294985,0.0
6.336383999999999,0.0944386286645016,0.0
6.338771999999999,0.09071396642538831,0.0
6.341151999999999,0.08219370676052323,0.0
6.343556,0.07074018078946295,0.0
6.345943999999999,0.06222674586960762,0.0
6.348324,0.049988648710639016,0.0
6.350719999999999,0.04226660972370179,0.0
6.353104,0.03589504517712351,0.0
6.355483999999999,0.031246042123241672,0.0
6.357892,0.029523480630545235,0.0
6.360275999999999,0.029935964766116107,0.0
6.362655999999999,0.029935964766116104,0.0
6.365051999999999,0.026357896898872798,0.0
6.36744,0.022640059404769274,0.0
6.369835999999999,0.021855488216860928,0.0
6.372232,0.019999981842314045,0.0
6.374616,0.016142374721350317,0.0
6.376999999999999,0.012144997973526379,0.0
6.379396,0.009218556412340968,0.0
6.381779999999999,0.010941117905037398,0.0
6.38416,0.009730413091538657,0.0
6.386564,0.005593266716854506,0.0
6.388952,0.005313727463134086,0.0
6.391332,0.005180782581283637,0.0
6.393727999999999,0.005453497089994296,0.0
6.396115999999999,0.007076686039063905,0.0
6.398496,0.011772910921188897,0.0
6.400891999999999,0.017400301363092206,0.0
6.403279999999999,0.025029792551412373,0.0
6.405671999999999,0.025588871058853213,0.0
6.408068,0.02652003661863153,0.0
6.410456,0.028003455940840933,0.0
6.412835999999999,0.030418040822828656,0.0
6.415239999999999,0.030970294585259732,0.0
6.417627999999999,0.030970294585259732,0.0
6.420007999999999,0.030970294585259732,0.0
6.422412,0.030970294585259732,0.0
6.424799999999999,0.030970294585259732,0.0
6.42718,0.030970294585259732,0.0
6.429575999999999,0.029114788210712856,0.0
6.431963999999999,0.028190447395944295,0.0
6.434348,0.028190447395944295,0.0
6.436743999999999,0.027266106581175738,0.0
6.439131999999999,0.02726610658117574,0.0
6.441512,0.026993392072465077,0.0
6.443907999999999,0.025370203123395472,0.0
6.446296,0.02067397824127048,0.0
6.44868,0.015046587799367166,0.0
6.451075999999999,0.007417096611047001,0.0
6.453464,0.0057939076619773905,0.0
6.455843999999999,0.004450257966628201,0.0
6.45824,0.0029668386444188003,0.0
6.460628,0.0005522537624310797,0.0
6.463011999999999,0.0,0.0
6.465408,0.0,0.0
6.467796,0.00250713268060478,0.0
6.470175999999999,0.0060852005478480905,0.0
6.472576,0.01087397322859014,0.0
6.474964,0.0158025155361924,0.0
6.477343999999999,0.024455720082907945,0.0
6.47974,0.03203798944298496,0.0
6.482128,0.04176212917633903,0.0
6.484511999999999,0.050694872976774996,0.0
6.486915999999999,0.05790505528451452,0.0
6.4893,0.06618617277889258,0.0
6.491679999999999,0.07525868620618877,0.0
6.494083999999999,0.08619353075304158,0.0
6.496468,0.09805954085967272,0.0
6.498851999999999,0.10992555096630385,0.0
6.501247999999999,0.11978946032651813,0.0
6.503632,0.12858243450009388,0.0
6.506027999999999,0.1395172790469467,0.0
6.508424,0.14924141878030076,0.0
6.510812,0.16217836407357042,0.0
6.513188,0.17311320862042323,0.0
6.515587999999999,0.17860765418047608,0.0
6.517972,0.18102906380747358,0.0
6.520356,0.1819602293672519,0.0
6.522751999999999,0.1838225604868085,0.0
6.525139999999999,0.1822397686209723,0.0
6.527519999999999,0.1807967463819963,0.0
6.529916,0.17642045783682514,0.0
6.532304,0.16883136373173838,0.0
6.534699999999999,0.16375622705226617,0.0
6.537096,0.1554751095578881,0.0
6.539479999999999,0.14640259613059192,0.0
6.54186,0.1354677515837391,0.0
6.544264,0.12360174147710797,0.0
6.546652,0.11173573137047683,0.0
6.549031999999999,0.10187182201026254,0.0
6.551428,0.0930788478366868,0.0
6.553811999999999,0.08214400328983396,0.0
6.556191999999999,0.07241986355647989,0.0
6.558596,0.05948291826321024,0.0
6.560984,0.04854807371635743,0.0
6.563364,0.04054649547569978,0.0
6.565755999999999,0.03454701798145899,0.0
6.568144,0.028827079740938615,0.0
6.570539999999999,0.022036206313779713,0.0
6.572944,0.014965793632900386,0.0
6.575332,0.008826546511799382,0.0
6.577712,0.0034786953236164903,0.0
6.580116,0.0021350456282673005,0.0
6.582504,0.0,0.0
6.58488,0.0,0.0
6.587283999999999,0.0,0.0
6.589672,0.0,0.0
6.592051999999999,0.0,0.0
6.594455999999999,0.0,0.0
6.596843999999999,0.0026941241357081405,0.0
6.599224,0.008181744950751243,0.0
6.601628,0.016415640616886155,0.0
6.604011999999999,0.026649741171568674,0.0
6.606392,0.04572707075734138,0.0
6.608791999999999,0.08458929866606683,0.0
6.611175999999999,0.13453106963564582,0.006121347585352499
6.61356,0.1887546854939097,0.012551776257589867
6.615955999999999,0.24628175885283698,0.019567815181622636
6.61834,0.3147939316161315,0.02667872143889965
6.620723999999999,0.3934998078508751,0.03388038706321985
6.62312,0.4857991845720868,0.04072889890010698
6.625503999999999,0.5874555428614557,0.0474291420779247
6.627887999999999,0.6880390701063168,0.054601997457565485
6.630291999999999,0.7929497682102367,0.06214289076192378
6.632676,0.9107078968380804,0.06960868362398029
6.635055999999999,1.043362778564508,0.07681353382294988
6.637459999999999,1.1793683396198422,0.08414040867051138
6.639847999999999,1.3188171278027,0.0916680331454038
6.642227999999999,1.4683198498301469,0.0992334912597472
6.644624,1.6242512160066962,0.10686254298457232
6.647012,1.7851160533779882,0.11446977389682902
6.649391999999999,1.9487743874286148,0.1219923557617574
6.651788,2.1130862436431688,0.12944873598414183
6.654176,2.2679032445205745,0.13690056390992375
6.656556,2.397208584089498,0.14453664655634482
6.658951999999999,2.5127334317168497,0.1462109965141198
6.661339999999999,2.6255592263213527,0.1475495930788571
6.66372,2.735500872305773,0.14825251788145713
6.666127999999999,2.8331541662737103,0.1488531067442117
6.668512,2.91968259121042,0.1493928797629354
6.670892,2.989404710100746,0.15042960790893486
6.673295999999999,3.049769847422915,0.15161460471400376
6.675683999999999,3.1147927084018447,0.15222054954027572
6.67806,3.176279794454634,0.15244514842792528
6.68046,3.2230571188639425,0.15280560034610052
6.682843999999999,3.2593612005480814,0.1532243949927585
6.685227999999999,3.2901727325300367,0.15361276415558514
6.687631999999999,3.313676605518495,0.15393902403983378
6.690019999999999,3.3203288464901957,0.15449112986334843
6.692399999999999,3.3200001895503632,0.15487642954387287
6.694799999999999,3.3187422629086214,0.1550275410643519
6.697187999999999,3.3105940902960937,0.15534495697630316
6.699567999999999,3.300164277683429,0.15576605189744702
6.701972,3.2913172569366,0.15616078523971244
6.704359999999999,3.2874056032423833,0.1563850718868889
6.70674,3.2871260639886626,0.1564189523453104
6.709144,3.2868465247349423,0.1564524665405087
6.711532,3.286659533279839,0.15655615989691288
6.713911999999999,3.2884274207429094,0.15667061449308645
6.716308,3.2920576393255363,0.15672519462939358
6.718696,3.299552289774138,0.15663933771394944
6.721079999999999,3.3092813583946317,0.15653081235743813
6.723476,3.319150196641987,0.15641455847372687
6.725864,3.3354446460091727,0.15604770808441787
6.728244,3.3520186346300793,0.15564123672977132
6.730639999999999,3.3518769691453496,0.15589986995540012
6.733027999999999,3.3581136929522084,0.1559680769757731
6.735408,3.3755244034764065,0.15569072245227242
6.737803999999999,3.4073219062778604,0.15492971863366092
6.740191999999999,3.4343238116535626,0.1543319096912846
6.742571999999999,3.4494528821776234,0.1541654539839987
6.744968,3.4652335790077426,0.15399448606642888
6.747356,3.4794314839720255,0.15384475382443305
6.749739999999999,3.4929777626302503,0.15369470467279078
6.752136,3.510668012408169,0.15338828328140106
6.754524,3.524354060693254,0.15322408422479022
6.756903999999999,3.537108943418561,0.1530905746519271
6.7593,3.5537282580098415,0.15283374209060738
6.761688,3.568904550362146,0.1525847898516333
6.764068,3.5798443237961393,0.15242687171802857
6.766463999999999,3.5886894486850984,0.15227360600419992
6.768851999999999,3.5900852490958317,0.15234828996172328
6.771232,3.5904101143199263,0.1524664493202477
6.77364,3.578582605438659,0.1530279132539254
6.776028,3.5699679021173076,0.1534564414237789
6.778407999999999,3.578068852901592,0.153228428189521
6.780804,3.5807225799540667,0.15315872426942484
6.783192,3.5780688529015916,0.1532245529544708
6.785572,3.565731383198996,0.1535147108024901
6.787972,3.550879956070786,0.15386804354742492
6.790355999999999,3.5385897081964335,0.1541021065381803
6.792736,3.5307229706954955,0.1541412509859762
6.79514,3.530073240247307,0.1539076503832562
6.797528,3.526769782746644,0.15373932378712912
6.799908,3.5137353607676167,0.15389518360254245
6.802304,3.5068470106547007,0.15382093337214045
6.804691999999999,3.5010295957284225,0.15370330150753694
6.807072,3.491906827443612,0.15364560426203958
6.809467999999999,3.488930131024912,0.15336809812407434
6.811855999999999,3.4855341257256316,0.1531329772290063
6.814252,3.484092999344525,0.1529100172756991
6.816656,3.4922430678149214,0.15238302312692523
6.819039999999999,3.49974150997926,0.1518617626181775
6.82142,3.511803232143874,0.15112629758932838
6.823827999999999,3.5174393431886566,0.1506440510934965
6.826212,3.513157498299971,0.15058499182210372
6.828595999999999,3.5136712508370387,0.15037232223960587
6.830992,3.514185003374106,0.15016224750159196
6.833376,3.51507084296351,0.14998536496614365
6.835756,3.5240576333371987,0.14959102440254896
6.838151999999999,3.5348595330022015,0.1492172472886421
6.840544,3.545661432667203,0.1488580727883453
6.842924,3.549805403786898,0.14870819129090757
6.845319999999999,3.557534267518844,0.1484692112983432
6.847707999999999,3.572293146848437,0.14805351220068882
6.850088,3.5882155091632857,0.14767873771333406
6.852483999999999,3.601204605171939,0.14739683531258052
6.854872,3.609398103754841,0.14725736914190157
6.857251999999999,3.607581098605658,0.1474563215216464
6.859648,3.6150757490542587,0.1473968349160927
6.862031999999999,3.625643435435914,0.1472335118831002
6.864428,3.632905768459038,0.14713048942243037
6.866823999999999,3.6383057703626047,0.14707802211147306
6.869211999999999,3.647942291184482,0.14695323766144655
6.871592,3.6668904676041425,0.1465896679769043
6.873987999999999,3.698130787756025,0.14582337567392412
6.876375999999999,3.7229927186163194,0.1452127660292094
6.878755999999999,3.7429192824240016,0.14474776739373604
6.881152,3.762146998097383,0.14434351400578638
6.88354,3.7808156352633233,0.14400857458164143
6.885919999999999,3.8021852213099816,0.14354033328743634
6.888323999999999,3.8170366484381915,0.1432401908289395
6.890711999999999,3.830258061872322,0.14303063638868338
6.893091999999999,3.845713893478347,0.14281451427307446
6.895496,3.8622406602710098,0.14256347292565158
6.897884,3.8729481162795256,0.14240662150000666
6.900264,3.8850060467284,0.14218306719755208
6.902668,3.9035821360957237,0.14179592661143797
6.905052,3.9302591762473313,0.14122191433622305
6.907432,3.9494868919207122,0.1408443511525001
6.909832,3.9635469231160037,0.14056603730461278
6.91222,3.978398350244214,0.14028421168030228
6.9146,3.993901403678482,0.1400091984074949
6.916995999999999,4.004469090060138,0.13987527211139567
6.91938,4.010800257523482,0.13981234304647572
6.921759999999999,4.008471395695102,0.13996495030327696
6.924163999999999,4.009587656852115,0.140061448302404
6.926551999999999,4.015359745808018,0.14005238859509822
6.928936,4.0276972155106145,0.1398247390446501
6.931331999999999,4.038079806295037,0.1395837363465879
6.933719999999999,4.047391461892819,0.1393798262045021
6.9361,4.062429880476133,0.1390408351604604
6.938504,4.084825075739055,0.1384871474109758
6.940887999999999,4.103263291337387,0.13797668556551856
6.943268,4.118256383950327,0.13752007851086276
6.945663999999999,4.134832268429103,0.1370470359272144
6.948051999999999,4.155412354400712,0.13648046592964566
6.950431999999999,4.173478482946707,0.13595450834339837
6.952828,4.186376927014613,0.1355083366214962
6.955216,4.202208637388714,0.13499137586906482
6.957611999999999,4.2185522044420125,0.13448811507153158
6.960016,4.230379713323279,0.1340676285942323
6.962403999999999,4.238901868846013,0.1336842195806662
6.964784,4.244770297316272,0.13334081313292678
6.967184,4.247146380972896,0.1331195303712226
6.969567999999999,4.252315961308854,0.13283682285012907
6.971952,4.257113454592475,0.13252311407785952
6.974347999999999,4.26060769526398,0.13219994107450017
6.976735999999999,4.262099835189068,0.1319342485290164
6.979115999999999,4.263964062166495,0.13170090803092194
6.981515999999999,4.266107828397641,0.13144396338050807
6.9839,4.263595766829896,0.13128129572061256
6.986284,4.2541462374631225,0.13128462961764353
6.988679999999999,4.246931126268243,0.13128171900178146
6.991068,4.246653482872391,0.13111594504178548
6.993447999999999,4.245584443543622,0.13095549338003826
6.995844,4.237438166788964,0.130967754368294
6.998232,4.230595142646421,0.13099258379500306
7.000612,4.227476780742991,0.13094714463724988
7.003008,4.223567022906644,0.13090674315287748
7.005395999999999,4.221519596189854,0.13083181576520977
7.007776,4.225198932458592,0.13064118165270439
7.010171999999999,4.235256658018921,0.13034370985863028
7.012559999999999,4.250901376937918,0.12994032789223883
7.014956,4.271900771790108,0.1293870828981207
7.017351999999999,4.291969001082519,0.12885329849410965
7.019739999999999,4.3146909574274055,0.12828807236486442
7.022119999999999,4.338855936011268,0.12773121597042147
7.024524,4.358876943475437,0.12727816839279277
7.026907999999999,4.380108655753104,0.12679011241087199
7.029292,4.399989893590412,0.12635628549711364
7.031696,4.420522757733779,0.12592436805871665
7.034079999999999,4.443988888183341,0.12542926515188682
7.03646,4.465872226767066,0.12494775024319249
7.038855999999999,4.4790483142308215,0.12470641240918373
7.041243999999999,4.4927362583737755,0.12448233598630204
7.043628,4.511359569569342,0.12415060297280843
7.046028,4.527608692966153,0.12383418477481409
7.048416,4.541855715616548,0.12356533837256796
7.050796,4.557266221252199,0.12332377057432874
7.053191999999999,4.574306740581929,0.12301314516186163
7.055579999999999,4.588274223978605,0.12277741632328049
7.05796,4.598097736255587,0.12264105344365839
7.060355999999999,4.610854514838763,0.12245294497648304
7.062743999999999,4.621469423048662,0.12231894946225626
7.065123999999999,4.6340864320049775,0.12214603425877754
7.067527999999999,4.64269923946846,0.1220548422406304
7.069911999999999,4.64651644950619,0.12204726100393008
7.072291999999999,4.654337861036753,0.12195910171371825
7.074688,4.658155071074484,0.12195152047701796
7.077076,4.662391589992795,0.12191118494808648
7.079455999999999,4.671703245590578,0.1217667704947749
7.081859999999999,4.677941865255306,0.12168708258955231
7.084247999999999,4.6800365138003395,0.12169782732735054
7.086627999999999,4.688836312718925,0.12153147789271805
7.089024,4.7029907875707035,0.1212413808822441
7.091412,4.717005492795622,0.12096647863764128
7.093795999999999,4.733953464326735,0.12064051837502632
7.096192,4.75132074473843,0.12028381771036895
7.098576,4.769526642911284,0.11986815242464491
7.100971999999999,4.784240196270503,0.1195495389243081
7.103368,4.798022584069943,0.11924366996018533
7.105756,4.811432884817046,0.11890814710034425
7.108136,4.817254091459063,0.11869514585974608
7.110531999999999,4.826288103660995,0.11841267638448146
7.112919999999999,4.8323888495567315,0.1181818347016479
7.115304,4.840911005079467,0.11788302897929478
7.117699999999999,4.852366426908396,0.1175304474144685
7.120084,4.8638218487373255,0.1171825244842166
7.122463999999999,4.87862984575303,0.11675278259589757
7.12486,4.892087368328377,0.11636688494053134
7.127248,4.8986074231046945,0.11610623520823393
7.129643999999999,4.907409117881149,0.11578654971972971
7.13204,4.923427819710353,0.11532057286532399
7.134428,4.934790693740665,0.1149245840960672
7.136808,4.937493538479252,0.11466857014190458
7.139211999999999,4.94061569209842,0.11438446498356745
7.141599999999999,4.943877615344448,0.1140934193760321
7.143979999999999,4.9465804600830365,0.11384308647289312
7.146376,4.949283304821623,0.11359562725507236
7.148764,4.954128019933487,0.11330413704058301
7.151143999999999,4.962976936538184,0.11294680693899403
7.15354,4.971546313889162,0.11260820457494973
7.155927999999999,4.983980123106114,0.11221002860039418
7.158308,4.991338795643593,0.11190349482601868
7.160703999999999,5.000979108181209,0.1115441090813141
7.163091999999999,5.007406615158909,0.11125004845161324
7.165476,5.01425343101719,0.1109268178781948
7.167871999999999,5.020308850942553,0.11060824128305898
7.170259999999999,5.026084731614195,0.1103115067986024
7.17264,5.035073417845752,0.10995234627512435
7.175044,5.050068406316562,0.10949614769886104
7.177432,5.066646186653207,0.10904007109842664
7.179812,5.078940226243298,0.10867029992479083
7.182207999999999,5.093608453632143,0.10829637058850541
7.184595999999999,5.112932508819879,0.10786434658515415
7.186976,5.12890398882084,0.10750653560311112
7.189371999999999,5.140591728075247,0.10723231240546967
7.191759999999999,5.150556905836958,0.10696878288765643
7.194156,5.156238342852114,0.10678882071564252
7.196551999999999,5.16205954949413,0.10660058689579036
7.198939999999999,5.165878655389729,0.10644560671053366
