Time,Force,Position
6.361295999999999,0.0,0.0
6.363692,0.0,0.0
6.366076,0.0,0.0
6.368456,0.0,0.0
6.370852000000001,0.0,0.0
6.373236,0.0,0.0
6.375632,0.0,0.0
6.3780280000000005,0.0,0.0
6.380412,0.0,0.0
6.382796000000001,0.0,0.0
6.385192,0.0010655274672520475,0.0
6.38758,0.0010655274672520473,0.0
6.38996,0.0010655274672520473,0.0
6.392364000000001,0.0010655274672520475,0.0
6.394752,0.0010655274672520475,0.0
6.397132000000001,0.004924551613839057,0.0
6.399524,0.006781475014009213,0.0
6.401911999999999,0.010640499160596222,0.0
6.404292,0.019574659986655463,0.0
6.406696,0.03344418786532673,0.0
6.409084,0.049176046863554625,0.0
6.4114640000000005,0.06663046735447896,0.0
6.413868000000001,0.08236232635270686,0.0
6.416252,0.09781464609721434,0.0
6.418635999999999,0.11526906658813868,0.0
6.421032,0.13044184707892573,0.0
6.42342,0.14668556275635133,0.0
6.425800000000001,0.16372067436669502,0.0
6.428204000000001,0.17861391560376172,0.0
6.430592000000001,0.195369487960385,0.0
6.432972,0.20947674098392002,0.0
6.435372000000001,0.22693116147484435,0.0
6.437760000000001,0.24410604271204828,0.0
6.44014,0.26370233357624967,0.0
6.4425360000000005,0.28502118593314746,0.0
6.44492,0.3007584526507619,0.0
6.4473,0.31742688492815463,0.0
6.4497040000000005,0.3292997197797955,0.0
6.452088,0.33181367720541005,0.0
6.454468,0.3245966701526607,0.0
6.456864,0.3133754616070778,0.0
6.459251999999999,0.3005714611956586,0.0
6.461636,0.2873481519036587,0.0
6.464040000000001,0.27361298593246114,0.0
6.466424,0.25773594958798646,0.0
6.468804,0.24414055324364914,0.0
6.471208000000001,0.22789683756622353,0.0
6.473596000000001,0.21086172595587985,0.0
6.475976000000001,0.1959684847188132,0.0
6.478376000000001,0.17921291236218992,0.0
6.480764000000001,0.16404013187140284,0.0
6.483143999999999,0.14658571138047854,0.0
6.485536,0.12941083014327467,0.0
6.487924,0.10981453927907327,0.0
6.4903200000000005,0.08849568692217545,0.0
6.492724000000001,0.06889939605797404,0.0
6.495112000000001,0.05037404038041117,0.0
6.497491999999999,0.03464218138218326,0.0
6.499888,0.02319406313050948,0.0
6.502276,0.016541542304587507,0.0
6.504659999999999,0.0120308918519426,0.0
6.507056,0.00738047177243748,0.0
6.50944,0.004871922066209422,0.0
6.51182,0.0031547682928994747,0.0
6.514215999999999,0.0015773841464497374,0.0
6.5166,0.0,0.0
6.518980000000001,0.0,0.0
6.521372,0.0,0.0
6.523759999999999,0.0,0.0
6.526136000000001,0.0,0.0
6.528532,0.0,0.0
6.530916,0.0,0.0
6.533296,0.0,0.0
6.535692000000001,0.0,0.0
6.538076,0.0,0.0
6.540456000000001,0.0,0.0
6.542852,0.0,0.0
6.545236000000001,0.0,0.0
6.547616,0.0,0.0
6.550012000000001,0.0,0.0
6.552404000000001,0.0,0.0
6.554780000000001,0.0,0.0
6.557184,0.0,0.0
6.559572000000001,0.0,0.0
6.561952,0.0,0.0
6.564363999999999,0.0,0.0
6.566752000000001,0.0,0.0
6.569132,0.0,0.0
6.571528000000001,0.0,0.0
6.573912,0.0,0.0
6.5762920000000005,0.0,0.0
6.578708000000001,0.0,0.0
6.581092,0.0,0.0
6.583472,0.0,0.0
6.585888000000001,0.0,0.0
6.588272,0.0,0.0
6.590648,0.0,0.0
6.593064,0.0,0.0
6.595452,0.0,0.0
6.597828,0.0,0.0
6.600232,0.0007859882135316269,0.0
6.60262,0.0063675738528150665,0.0
6.604996,0.010878224305459976,0.0
6.607392000000001,0.013247004384827822,0.0
6.609780000000001,0.01626741077025357,0.0
6.612172000000001,0.017145946782402256,0.0
6.614568,0.01714594678240226,0.0
6.616956,0.01714594678240226,0.0
6.6193360000000006,0.01714594678240226,0.0
6.621740000000001,0.01714594678240226,0.0
6.624124,0.01714594678240226,0.0
6.626504000000001,0.01714594678240226,0.0
6.628896000000001,0.01714594678240226,0.0
6.631284000000001,0.01714594678240226,0.0
6.63368,0.018164252421411155,0.0
6.636084,0.02025349324705858,0.0
6.638468,0.02541577000576139,0.0
6.640848,0.03178875157796294,0.0
6.643244000000001,0.03709079796352596,0.0
6.645632000000001,0.04239284434908898,0.0
6.648012,0.04490680177470351,0.0
6.6504080000000005,0.039325216135420074,0.0
6.652792,0.03704357613528281,0.0
6.655172,0.04104777762811651,0.0
6.657568,0.04467989206861273,0.0
6.6599520000000005,0.05059364650924623,0.0
6.662332000000001,0.05966757696216568,0.0
6.664728,0.06995221222858386,0.0
6.667116,0.08009707786814185,0.0
6.669499999999999,0.08917100832106131,0.0
6.671912000000001,0.09917610433375908,0.0
6.674300000000001,0.10289535885348586,0.0
6.676680000000001,0.10489205188051626,0.0
6.679076,0.10516618341485018,0.0
6.68146,0.10549294449681375,0.0
6.6838560000000005,0.10340370367116633,0.0
6.686248000000001,0.09824142691246351,0.0
6.688636000000001,0.0921425768745959,0.0
6.691015999999999,0.08684053048903288,0.0
6.693408,0.08153848410346988,0.0
6.695796,0.0782385384643237,0.0
6.698188,0.0782385384643237,0.0
6.700584000000001,0.07600952801181605,0.0
6.702968,0.06963654643961452,0.0
6.705348000000001,0.06298402561369254,0.0
6.707752000000001,0.05619173516091036,0.0
6.710140000000001,0.04711780470799091,0.0
6.71252,0.036833169441572715,0.0
6.714924,0.026688303802014736,0.0
6.717312,0.017614373349095287,0.0
6.719692,0.007609277336397508,0.0
6.722084000000001,0.00389002281667071,0.0
6.724472,0.001893329789640342,0.0
6.726848,0.001619198255306405,0.0
6.729244,0.00027413153433393706,0.0
6.731628000000001,0.00027413153433393706,0.0
6.734007999999999,0.003472050085516827,0.0
6.736404,0.017288388708115957,0.0
6.738792,0.04138746673926404,0.0
6.741172000000001,0.07014047671143449,0.0
6.743572,0.10205717455740818,0.0
6.74596,0.14444711512855135,0.012074692289935938
6.748336,0.19507588025297,0.02342247208016042
6.750752,0.25063811657213136,0.03463772664926325
6.753136,0.3112735937128958,0.045688294702148496
6.755516,0.3761436939141019,0.056898706550176564
6.757932,0.4506956409075595,0.06762265461738773
6.760316,0.535208973946989,0.0778972992696242
6.762696,0.6286599796739948,0.08776856305140401
6.7651,0.7310486580885772,0.09730686949478941
6.767484,0.8448889666163506,0.10645008091587511
6.769868000000001,0.969482057123014,0.115388465451421
6.772272000000001,1.1036644466233119,0.12413362502645077
6.774656,1.2500445361993449,0.13243366354498606
6.77704,1.407878151746438,0.14027951276970801
6.7794360000000005,1.5701352776669457,0.1479138594474284
6.78182,1.733757765036545,0.15533145826071604
6.7842,1.883694204121059,0.16283454361402638
6.7866040000000005,2.024553200891136,0.17030881174751786
6.788992,2.160898035347052,0.1777664026134919
6.791372000000001,2.297152217862219,0.18510723182339833
6.793772000000001,2.4210708265326604,0.18042871822228437
6.79616,2.5383334025156628,0.17645434502435528
6.798540000000001,2.6561097310357313,0.17246793602200045
6.800943999999999,2.771326776159812,0.16860039869809185
6.803332000000001,2.8792361622903955,0.16468178151696783
6.805712,2.978115327934785,0.16125481096323102
6.808116,3.063960071600148,0.158389509144975
6.810499999999999,3.1364436322045193,0.1561227669689642
6.81288,3.195845549001621,0.15436023502367238
6.815284,3.2417937349391144,0.15307297049405708
6.817672,3.2752665774050214,0.15203708104081742
6.820052,3.301291991250571,0.15109531046762256
6.822448,3.3131176042739687,0.15067998490348847
6.824836,3.310556425020111,0.15083566088790074
6.827216,3.2995675339000057,0.15137819152440038
6.82962,3.281873492406348,0.15224788147864804
6.832004,3.2705578402042783,0.15290721912255897
6.834384,3.2569605480020725,0.15368731509262815
6.836788,3.2446665084119815,0.15446891101129118
6.839176,3.230230598448614,0.1553318890924053
6.841556000000001,3.218588185164581,0.15610456420459556
6.843948000000001,3.2044318144549337,0.15693496490332076
6.846332,3.185759385573255,0.15787497313758495
6.848712000000001,3.1635020640793234,0.15891433978785804
6.851115999999999,3.151534785571196,0.15952000600539792
6.853504000000001,3.1402663551973697,0.16003687918283674
6.855884,3.137006327809211,0.1602569640376645
6.858288,3.1451072785934953,0.16003810290367312
6.860676,3.157724287549811,0.15968422407459124
6.863056,3.1757885202379366,0.15917584165241708
6.865460000000001,3.1954355447918985,0.1586363048049056
6.867844,3.213220238226304,0.1581651106829533
6.870224,3.2308651620338487,0.1576959364022132
6.872628000000001,3.2510240432670083,0.15715689426119772
6.8750160000000005,3.2759785219259197,0.15643135450558526
6.877396000000001,3.3032146405849687,0.15557980941369526
6.879792,3.323280974019511,0.1549458256262622
6.882175999999999,3.347491278573747,0.15413827154482787
6.884556,3.371189726448786,0.15331925925002265
6.88696,3.3967505054433813,0.15245737981926738
6.889348,3.425524089997892,0.15148534394044916
6.8917280000000005,3.4544374441792627,0.15048795688041441
6.894124,3.4814884672410775,0.14955016263879234
6.896512,3.5121243829151454,0.14851506336962889
6.898892,3.5359153785888005,0.14783953434962366
6.901288000000001,3.560218230941654,0.14719943683247777
6.903676000000001,3.5781426940029197,0.14674786887974445
6.906056,3.584845948518602,0.14669858966481658
6.908448,3.595832943780838,0.1464890585875715
6.910836,3.6032350464308216,0.14636852377848114
6.913212,3.6122671627748844,0.14615028043549957
6.915628,3.6162241424394748,0.1460991403491682
6.918012000000001,3.624185323596899,0.14591518319579874
6.920396,3.635731397366576,0.1456461731393281
6.922796,3.652352607815726,0.14522122909905394
6.925184,3.670184523078374,0.14474811758127493
6.92756,3.689878769460579,0.14421254297139094
6.929964,3.70542904472309,0.14382314720981654
6.932352,3.723353507784356,0.14341271243200948
6.934732,3.7392758700992044,0.14307229865007018
6.937132,3.7473295990552455,0.14296653493861555
6.93952,3.756034954317344,0.1428652779715804
6.9419,3.762179130325586,0.14288128560548946
6.944296,3.769534011147327,0.14284678396174755
6.946680000000001,3.774794243424033,0.14281002163928888
6.949059999999999,3.7756781871555676,0.14286385528660234
6.951464,3.77679444831258,0.14296695600728324
6.953852,3.7828460765222047,0.14291638517112962
6.956232,3.785964438425634,0.14295601057711638
6.958628000000001,3.7913644403292004,0.14290499974859067
6.961016000000001,3.7942032629789093,0.14297407469579346
6.963396,3.8064935108532616,0.14279137889675242
6.9658,3.818224680220173,0.14266863912658886
6.968184000000001,3.8278612010420505,0.1425479532829212
6.970564,3.8316311892515373,0.14259434693256814
6.972968,3.8320486022742486,0.1427630964056629
6.975356,3.8367025342152714,0.14286198576834425
6.977736,3.84456927171621,0.14285239705978875
6.9801400000000005,3.8494101951123354,0.1428634461244083
6.982524,3.8509457651499277,0.14292101036729843
6.984904,3.8571371629864126,0.14286707938559165
6.9873080000000005,3.865190891942454,0.14276921493673464
6.989692,3.882743267951382,0.14236482180821522
6.992072,3.8936377154150015,0.14212918139347513
6.994476000000001,3.9081170554908735,0.14181998185285866
6.996864,3.925622209671558,0.14148710801250244
6.999244000000001,3.9487143572109127,0.14102634509197293
7.001647999999999,3.9742279143772645,0.14047746867282052
7.0040320000000005,3.9975070533717227,0.13994394762220813
7.006412000000001,4.017573386806266,0.1395180545884211
7.008816,4.042575087293421,0.13896649005228254
7.011203999999999,4.0589167584888495,0.138630851357699
7.013580000000001,4.072232615579467,0.13831094155044257
7.015984,4.0856882422969445,0.13798232104635397
7.018371999999999,4.09900409938756,0.1376663301703457
7.020752,4.1149736835306525,0.13729766883931138
7.023156,4.130571180621407,0.1369054718101263
7.025544,4.145237512152383,0.1365384560254436
7.02792,4.160555469989417,0.13617989255167662
7.03032,4.179039011558122,0.13578912170995328
7.032708,4.198313949059748,0.13539582261526678
7.035088,4.216145864322395,0.1350080677073401
7.037492,4.223967275852959,0.13488338039328787
7.03988,4.234861723316579,0.13467180252960329
7.042260000000001,4.243893839660641,0.1345014107161594
7.044664000000001,4.252693638579227,0.13428750750274857
7.047052000000001,4.254882730780747,0.1341547130407494
7.049432,4.253998787049213,0.1341051821134326
7.051828,4.251996686302796,0.1341561559149671
7.054212,4.252136455929655,0.13414357810951943
7.056596000000001,4.247340858503904,0.13425079555531752
7.058992,4.248691332944263,0.13419405083309005
7.06138,4.252835304063956,0.13407983953265118
7.06376,4.255628800743292,0.13402280350270251
7.066155999999999,4.257910440743428,0.13394704542088562
7.068544000000001,4.260890928877867,0.13380956823643866
7.070924,4.2606586114523886,0.13376617775760286
7.073328,4.25577046622802,0.13381750478400667
7.075711999999999,4.250230694697594,0.133862066297237
7.078096,4.246320936861246,0.1338250106074664
7.080492,4.239105825666366,0.13382489396770902
7.082879999999999,4.232402571150684,0.1338428062924708
7.08526,4.229563748500975,0.13377480650749152
7.087664,4.2285872569708225,0.13366951299969296
7.090048,4.231894506187224,0.13344341210569155
7.0924320000000005,4.235993151336544,0.13321262046687485
7.094836000000001,4.242186445030898,0.1329872302925741
7.09722,4.248519508352113,0.13274984534684411
7.099600000000001,4.258112599061485,0.13235373221556115
7.102004000000001,4.26719383309166,0.13194223771939534
7.104392000000001,4.275763210442638,0.13150860052072577
7.106771999999999,4.283261652606977,0.1311098976949969
7.109176,4.292901965144593,0.13065849835704124
7.111560000000001,4.301239025070093,0.1301919237129971
7.11394,4.309436315368734,0.12973589338548577
7.116344,4.3153519656672366,0.1293518945815679
7.118728000000001,4.321547155219459,0.12894153426654809
7.121112,4.3346798125707116,0.12837186057598454
7.123507999999999,4.348603865854881,0.12780028958511755
7.125896000000001,4.361456983952412,0.1272658365368568
7.128276,4.372959627609585,0.12677720326937747
7.13068,4.383159018654642,0.12627575508708327
7.133068,4.396990524140196,0.1256579815618002
7.135448,4.409099468133052,0.12506717765408282
7.137848,4.412129073953603,0.12468530954701654
7.140236,4.412365183094819,0.12435275864730541
7.142616,4.411809896303118,0.12402416904737144
7.145016,4.4084611128320805,0.12374427488963621
7.147404,4.404413481226742,0.123524757831072
7.149784,4.399667001487102,0.12336445403486339
7.152188000000001,4.395711917680381,0.12319877245561922
7.1545760000000005,4.3888235675674645,0.1230946752689038
7.156956000000001,4.378862181521492,0.12306241884784576
7.159352,4.372345918460914,0.12298803438527975
7.16174,4.36890269133339,0.12284152134735116
7.1641200000000005,4.367601334579143,0.12263961228019152
7.166524000000001,4.369373013757952,0.12236764249886531
7.168912000000001,4.369142592190344,0.12214104472724956
7.171291999999999,4.365187508383622,0.12197522857285874
7.173688,4.360021719763402,0.12184782950224711
7.176076,4.363795499688628,0.12153957868411594
7.178456000000001,4.3682209059199115,0.12123917578154798
7.180852,4.3672916362180025,0.12107123702646724
7.18324,4.365663518381792,0.12096006308462354
7.18562,4.371624494650669,0.1207174326925754
7.18802,4.381449902785519,0.1204044994965606
7.190404000000001,4.390344145360591,0.12010368696176593
7.192784,4.404545842040612,0.11973524496462344
7.195188,4.4168852076010765,0.11939703486835072
7.197572000000001,4.427222472415124,0.11909746877110845
7.199952,4.4422155650280635,0.11872619439339943
7.2023600000000005,4.462004255066754,0.11827013469360548
7.204748,4.481792945105446,0.11781538009671834
7.207128000000001,4.498368829584223,0.11744067157302454
7.209524,4.511312599622501,0.11718012480291327
7.211912,4.525839161526617,0.11691768322201473
7.214296000000001,4.535802443430458,0.11678080856934188
7.216692,4.546137812386636,0.11667606313672353
7.219075999999999,4.561780635447765,0.11650766906158083
7.22146,4.577563228135754,0.11632854441714677
7.223856,4.584126713024576,0.1163455337402611
7.226243999999999,4.593343924965873,0.11633243372205616
7.228624,4.6042836983998665,0.11630143317521675
7.231028,4.615782550341301,0.11622563147351854
7.233411999999999,4.627700711163316,0.11612104330731823
7.235796000000001,4.6365458360522736,0.1160800900825117
7.238196,4.650186558366985,0.11596132629053481
7.240584,4.6643863591891375,0.11580436340682346
7.242964000000001,4.682590361504124,0.1155762775064912
7.24536,4.707080205312079,0.11522022273600013
7.247748,4.725563746880786,0.11497488340512912
7.250128,4.744187058076353,0.11472634899259579
7.252523999999999,4.766674801137893,0.11442389223667906
7.254912000000001,4.794237680878905,0.11403305891115066
7.257292,4.825153135806694,0.11356500989411009
7.259688000000001,4.849410662189173,0.11319036228952495
7.262076,4.878883094877985,0.11271387574230653
7.264456000000001,4.9078436708875985,0.1122232419005002
7.266859999999999,4.935221455031376,0.11174289665107176
7.269248000000001,4.962179930294574,0.11129201982791365
7.271628,4.992630750371407,0.1107488674420999
7.274032,5.0194966778359875,0.11024805258606608
7.276415999999999,5.048504475673845,0.10970646902817126
7.278796,5.076441338325064,0.10918592632508052
7.281192000000001,5.098092359483313,0.10878768903106023
7.283580000000001,5.123607812507533,0.10833541462504569
7.285959999999999,5.149402804785475,0.10787450153090618
7.288356,5.169843121130224,0.10752147302164847
7.290744,5.187210401541918,0.1072256470400754
7.293124000000001,5.2002939412070575,0.10701651423839198
7.295528000000001,5.214867724939417,0.10675563237802652
7.297912,5.224506141619163,0.10657036551673144
7.300295999999999,5.227998486432799,0.10648980281337153
7.302696000000001,5.2288371041939605,0.10643294209525968
7.305084000000001,5.229675721955121,0.10637661493352474
7.307463999999999,5.239314138634867,0.10619900485963679
7.309856,5.247229993821918,0.10603512364886657
7.312244,5.252352352329633,0.10590166717148017
7.314640000000001,5.257334941210489,0.10577824071650856
7.317031999999999,5.260874507852368,0.10564654732214294
7.319420000000001,5.2653452400540255,0.10550548953402662
7.3218,5.272469699308158,0.10534409935817032
7.324204,5.279594158562291,0.10518469479407493
7.326592,5.289791653749477,0.10497852779804782
7.328972,5.302131019309943,0.10473141960186336
7.331376000000001,5.310466183377574,0.10454343082365676
7.33376,5.314657376325512,0.10442322803802301
7.33614,5.322201144460225,0.10423694606999385
7.338547999999999,5.329744912594937,0.10405066410196469
7.340932,5.336776824050453,0.10384647526030563
7.343312000000001,5.349395728864637,0.10358737238062268
7.345715999999999,5.361735094425102,0.10334324280002101
7.3481,5.375285164799065,0.10306828133535831
7.350480000000001,5.38790406961325,0.10280507693413589
7.352876,5.395587607374823,0.10260865344405948
7.355264,5.3975443821508655,0.10248150909257533
7.357644,5.397499056180491,0.10238275203522787
7.360048000000001,5.397313960583257,0.10229246820028626
7.362432,5.3966170083068254,0.1021846761174544
7.364812000000001,5.398573783082868,0.10205703571502046
7.367208,5.399319853045412,0.10195749756331614
7.369596,5.39927452707504,0.1018589401454568
7.371976,5.394433603678913,0.10181642010731358
7.37438,5.389592680282788,0.10177358036490135
7.376768,5.3879645624465775,0.10167633797422525
7.379148000000001,5.389828789424003,0.10150760667633477
7.381552000000001,5.391553246774569,0.1013470870490765
7.383936,5.3892735026323,0.1012406706854852
7.386316000000001,5.387273297743753,0.10111634133789144
7.388719999999999,5.3880665895345405,0.10096510527986709
7.391108000000001,5.381270787220241,0.10089473171611656
7.393488,5.378898495279356,0.1007444042265639
7.395892,5.374524102592054,0.1006201982899875
7.39828,5.3667971347179755,0.10055889993868485
7.40066,5.363353907590452,0.10042474702244902
7.403055999999999,5.360841846022707,0.10028122084302037
7.405444000000001,5.358190014828101,0.10014632666326363
7.407824,5.362475651432525,0.09992165125346164
7.410220000000001,5.363268943223312,0.09976827582349992
7.412608,5.36420200464096,0.09960652167150229
7.414988000000001,5.367416706058745,0.0994008362075171
7.417396,5.369700241916752,0.09920464048115406
7.419784,5.377990080014009,0.09892907657932626
7.422164,5.38413804773799,0.09869032296857833
7.42456,5.390006476208248,0.09847177406953828
7.426947999999999,5.393453495051511,0.09830644159236793
7.429328,5.399042384268051,0.09810685404135547
7.431724000000001,5.410777345350701,0.09782290590589357
7.434112000000001,5.4245144071797675,0.09751645622169974
7.436491999999999,5.436109598635556,0.09724551467156237
