Time,Force,Position
6.418716000000001,0.150859449807142,0.0
6.421096,0.15961202689748435,0.0
6.4235,0.16892368249526757,0.0
6.425888,0.17488276290627497,0.0
6.428268,0.18019021701122448,0.0
6.430672,0.1788139974523268,0.0
6.43306,0.17436474196037371,0.0
6.435440000000001,0.16712198978908568,0.0
6.437836,0.15880830243115912,0.0
6.440224,0.14942367988659402,0.0
6.442604,0.14003905734202893,0.0
6.4450080000000005,0.1294437299839651,0.0
6.447392,0.11926771150648188,0.0
6.449775999999999,0.1092314626558589,0.0
6.452172,0.10026614899187442,0.0
6.454555999999999,0.09064920902183204,0.0
6.456936,0.07889039867851264,0.0
6.459336,0.06913368908161005,0.0
6.461720000000001,0.056583482805372516,0.0
6.464116,0.04203117578271813,0.0
6.466512000000001,0.031762609506617856,0.0
6.468896,0.022564978417156125,0.0
6.4712760000000005,0.01294803844711376,0.0
6.473679999999999,0.005612738477208664,0.0
6.476068000000001,0.0,0.0
6.478447999999999,0.0,0.0
6.480852,0.0,0.0
6.483236000000001,0.0,0.0
6.485615999999999,0.0,0.0
6.48802,0.0,0.0
6.490408,0.0,0.0
6.492788,0.0,0.0
6.495192,0.0,0.0
6.49758,0.0,0.0
6.499960000000001,0.0,0.0
6.502363999999999,0.0,0.0
6.504752000000001,0.0,0.0
6.507132,0.0026322503427703412,0.0
6.509536,0.007266601431957532,0.0
6.511924,0.011761182894284513,0.0
6.514304,0.015604138050553594,0.0
6.516699999999999,0.017305222833545617,0.0
6.519084,0.019285846870258055,0.0
6.521463999999999,0.020195535720331968,0.0
6.52386,0.021244994197266092,0.0
6.526248,0.023085848607118317,0.0
6.528628,0.02308584860711832,0.0
6.531024,0.02308584860711832,0.0
6.5334080000000005,0.02308584860711832,0.0
6.535792,0.02308584860711832,0.0
6.538196,0.02308584860711832,0.0
6.540579999999999,0.02308584860711832,0.0
6.54296,0.02308584860711832,0.0
6.545355999999999,0.02308584860711832,0.0
6.547744000000001,0.02308584860711832,0.0
6.550123999999999,0.023085848607118323,0.0
6.552528,0.023085848607118323,0.0
6.554916,0.02045359826434798,0.0
6.557296,0.015819247175160787,0.0
6.559691999999999,0.011324665712833804,0.0
6.562079999999999,0.007481710556564722,0.0
6.56446,0.005780625773572702,0.0
6.566864,0.003800001736860261,0.0
6.569252,0.002890312886786351,0.0
6.571632,0.0018408544098522306,0.0
6.574036,0.0,0.0
6.576424,0.0,0.0
6.578803999999999,0.0,0.0
6.581207999999999,0.0,0.0
6.583595999999999,0.0,0.0
6.585976,0.0,0.0
6.588372000000001,0.0,0.0
6.590756,0.0,0.0
6.593139999999999,0.0,0.0
6.595543999999999,0.0,0.0
6.5979280000000005,0.0,0.0
6.600307999999999,0.0,0.0
6.602704,0.0,0.0
6.605092,0.0,0.0
6.6074720000000005,0.0,0.0
6.609876000000001,0.0,0.0
6.612264000000001,0.0,0.0
6.614643999999999,0.0,0.0
6.617048,0.0,0.0
6.619435999999999,0.0,0.0
6.621816,0.0,0.0
6.62422,0.0,0.0
6.626604,0.0,0.0
6.628984,0.0,0.0
6.631388,0.0,0.0
6.633772,0.0,0.0
6.636152,0.0,0.0
6.638547999999999,0.0008171410514568513,0.0
6.640935999999999,0.0008171410514568512,0.0
6.643316,0.004847087662829294,0.0
6.6457120000000005,0.009668430207119848,0.0
6.6481,0.018354204617383893,0.0
6.650479999999999,0.027039979027647938,0.0
6.652880000000001,0.032792487131716806,0.0
6.655268,0.037474060049147155,0.0
6.657647999999999,0.040944928153078756,0.0
6.660051999999999,0.04441579625701036,0.0
6.662439999999999,0.044813628427886575,0.0
6.66482,0.04481362842788658,0.0
6.667216000000001,0.04481362842788658,0.0
6.6696040000000005,0.04481362842788658,0.0
6.671983999999999,0.04481362842788658,0.0
6.67438,0.04481362842788658,0.0
6.676768,0.04481362842788658,0.0
6.679151999999999,0.04481362842788658,0.0
6.681548,0.04481362842788658,0.0
6.683936,0.04481362842788658,0.0
6.686316000000001,0.04399648737642973,0.0
6.688712,0.04399648737642973,0.0
6.6911,0.03996654076505729,0.0
6.693484000000001,0.035145198220766734,0.0
6.69588,0.026459423810502685,0.0
6.698268,0.017939164145637593,0.0
6.700652000000001,0.014214501906524311,0.0
6.703048,0.012491940413827882,0.0
6.705431999999999,0.013051018921268722,0.0
6.707816,0.01561219817512641,0.0
6.710211999999999,0.024319449295094865,0.0
6.712599999999999,0.03435569814571786,0.0
6.714984,0.045462882182979385,0.0
6.717388000000001,0.05745400995177608,0.0
6.719772,0.0710732555567829,0.0
6.722152,0.09316364314054244,0.0
6.724548,0.1278219219945054,0.0
6.726935999999999,0.18310371693258246,0.005646926092092841
6.72932,0.24117711269212513,0.011841573399562332
6.731716,0.29990023889985656,0.018759932020712237
6.734103999999999,0.36667519820576,0.02602087031507116
6.7365,0.4461578184087271,0.03325006052272534
6.738896,0.5335997239112492,0.04057710784134989
6.741280000000001,0.627977201354931,0.04791009451305923
6.743664,0.7235634877542422,0.05556555883280271
6.746056,0.8178642065354035,0.06388916894559206
6.748444,0.9203565280415972,0.07219032832067643
6.750824000000001,1.0346725667133194,0.08023288100927868
6.75322,1.1607197747519529,0.08795559800783431
6.755608,1.2881155613730764,0.0957896922563285
6.758004000000001,1.4143912951214486,0.103937895796625
6.7604,1.5507209627144098,0.1120455340614038
6.762788,1.6947303763532058,0.12014730788872982
6.765164,1.841765604096814,0.12826308177728452
6.7675600000000005,1.986473865869911,0.13646863930436082
6.769948,2.1197777193580603,0.14479697387789806
6.772327999999999,2.235066457844196,0.1533271111121246
6.774724,2.3178588453945768,0.15681162697719778
6.777112,2.399070336936991,0.1596605448306517
6.779507999999999,2.484847004337549,0.16148934085614838
6.781911999999999,2.560477190094901,0.1629971838413116
6.784299999999999,2.621956692716213,0.16455849328292635
6.78668,2.6792015722770834,0.16585738520942855
6.789084,2.7301625062028525,0.167150540779038
6.791467999999999,2.782568358225466,0.1680233501434261
6.793848,2.841960795733221,0.16796770393500512
6.796252,2.8914390690232477,0.16791590882478943
6.798635999999999,2.9230873229084953,0.16836329966636848
6.80102,2.9368583355607205,0.1693880813160634
6.80342,2.9485819214961544,0.17030080080125543
6.805808,2.960214855490842,0.1708189865432669
6.808188,2.960071294148243,0.1713976856624968
6.810584,2.9553210226928655,0.1717681712302319
6.812971999999999,2.951456590826892,0.17192374827924084
6.815352,2.945869597468222,0.1721361772224881
6.817747999999999,2.9470803022817202,0.17206422813031674
6.820136000000001,2.9560198708271663,0.171667758327528
6.822515999999999,2.9791139142243894,0.1705507403624522
6.824912,3.002440275047091,0.16950946649563747
6.8273,3.0229259173622136,0.16872112123301164
6.829680000000001,3.0488115615809033,0.16783836677259906
6.832076,3.0758606887848496,0.16696735518120137
6.834464,3.1002560889363195,0.16621384414497006
6.836844,3.1229289275950936,0.16550718996152256
6.839248,3.142528730320812,0.16494880549038043
6.841636,3.157193165993918,0.1646199438945756
6.844015999999999,3.172928536853663,0.16424607446835932
6.846419999999999,3.1935067269674033,0.16357884221180552
6.848807999999999,3.2200912193203934,0.16262441698630542
6.851188,3.2468154813002443,0.1616610563535794
6.853592,3.2761934703325704,0.16065182789872884
6.85598,3.306362855297814,0.1596226513421776
6.85836,3.3306657076506676,0.1588477159106853
6.860755999999999,3.3478913225776328,0.1583793965476283
6.863143999999999,3.3727060316096833,0.15764166520175157
6.865524,3.3935165391489006,0.15708121652074772
6.867920000000001,3.4143270466881184,0.1565420957697553
6.8703080000000005,3.4327161446003385,0.15613764635682892
6.872687999999999,3.4473805802734447,0.15584699826683304
6.875084,3.461253620013633,0.15557566464124842
6.877472,3.473963176768566,0.1552919368156205
6.8798520000000005,3.4893736824042167,0.15486147254157165
6.882255999999999,3.49840579874828,0.1546068188675558
6.884644000000001,3.509020706958179,0.1543244747839479
6.887023999999999,3.5222893422205526,0.15397220728318084
6.88942,3.540213805281818,0.15349431964690094
6.891808,3.5552050020368875,0.15311618906717606
6.894188000000001,3.5702887465905757,0.15280577612345092
6.896584,3.5858843478234603,0.1525182905735002
6.898972,3.6004090138697067,0.15227408982382554
6.901352,3.6096262258110037,0.15216709055653346
6.903747999999999,3.6178197243939056,0.15202222805897844
6.906135999999999,3.6230799566706122,0.15196953798642068
6.908516,3.6332755559999304,0.1517460788633123
6.91092,3.643099068276911,0.1515018773673516
6.913308,3.6556235294346093,0.15112025764819192
6.915688,3.6664254290996117,0.1507826833968877
6.918084,3.675504767271918,0.1504776513622858
6.920471999999999,3.690590407683475,0.1499759393097366
6.922852,3.70688675290853,0.14942951618909225
6.925260000000001,3.722251932573807,0.14891820943865497
6.9276480000000005,3.7338924499999706,0.14850962009012966
6.930027999999999,3.7534941485835587,0.1479197708843805
6.932424,3.7741667823537854,0.14729429338804867
6.934807999999999,3.7955382642583126,0.1466113135430312
6.9371920000000005,3.8089485650054162,0.14610795264167165
6.939588,3.8217072394464613,0.1455922121735603
6.941972000000001,3.833534748327728,0.14509693549099945
6.944368,3.8464331923956334,0.14457054559342156
6.946763999999999,3.8633830597846157,0.14386058159193807
6.949152000000001,3.881683401613957,0.14308746491028873
6.951531999999999,3.9000762912419153,0.14237230017117855
6.953936,3.926709901281018,0.14145834866201393
6.956324,3.953203741693261,0.14057691414975848
6.958704,3.974250358373694,0.13983282978095507
6.961099999999999,3.9920841694942113,0.1392042745871735
6.963484,4.006006326920512,0.13874337746282542
6.965868,4.022582211399287,0.13822750919139326
6.9682640000000005,4.03543343363895,0.1378066523129594
6.970652,4.04483953289322,0.1374486784107353
6.973044000000001,4.0513123658412935,0.13716792742753253
6.975447999999999,4.059740077707542,0.13690369356115753
6.977832,4.064443127334677,0.13672544110859786
6.980216,4.068774089909474,0.13651690538537797
6.98262,4.067657828752462,0.13642013259759656
6.985003999999999,4.070126460207703,0.13625337662380838
6.987384,4.076412301700674,0.1360618317031917
6.989788,4.087493740619396,0.13575604901074462
6.992171999999999,4.095409595806447,0.13548191538002533
6.994556,4.0951772783809695,0.13543667099128245
6.996951999999999,4.093314947261413,0.13547703357988544
6.999336,4.094106343194331,0.13546997885929268
7.001715999999999,4.094805191328632,0.1354060633347557
7.004116000000001,4.0866116927457306,0.1355000567583628
7.0065,4.075996784535832,0.13568914707568425
7.00888,4.062680927445215,0.13600377727698526
7.01128,4.052717645541374,0.13620809406091397
7.013668,4.041171571771697,0.13642766521527486
7.0160480000000005,4.025621296509186,0.13676612935008964
7.018448,4.010722647552733,0.1371105890224667
7.020836,3.9974067904621156,0.13744215845281296
7.023216000000001,3.979574875199467,0.13787751774799317
7.025619999999999,3.9629536647503176,0.138264753041639
7.028004,3.943119648741252,0.13876236088895427
7.030384000000001,3.928453317210276,0.13916641277144004
7.032784,3.9113655760523023,0.13967096258312703
7.035168,3.8931143519090736,0.14014711734811006
7.037548,3.8691363647803145,0.1407663596203657
7.039943999999999,3.842876737651418,0.14148321379364956
7.042331999999999,3.8222041038811922,0.14206980663185312
7.044716,3.804744275670881,0.1425431907679021
7.047111999999999,3.784770490034956,0.1430538504997295
7.049499999999999,3.7587431803315368,0.14381349398961288
7.051884,3.745752188465014,0.14425871622091513
7.054279999999999,3.7398384340243807,0.14449272930460538
7.056667999999999,3.73927935551694,0.14454816332642
7.059048,3.7397912121961374,0.14456752992227168
7.061452,3.7418858607411716,0.14457039985891204
7.06384,3.7498470418985956,0.14441090120522174
7.06622,3.759950093429297,0.144181940619503
7.068616,3.771403619400357,0.14389125646880718
7.071003999999999,3.7905860091033645,0.14339683540983422
7.073384,3.8082781547391527,0.14297612780853985
7.075779999999999,3.828112170748218,0.14247851996122454
7.078168000000001,3.8474343300780856,0.14197401189049413
7.080564,3.8670360286616736,0.14143550308680047
7.082959999999999,3.8872893535513193,0.1409066823427968
7.085348000000001,3.9115468799337987,0.14026196300306737
7.087732,3.9424623348615864,0.13945029620586483
7.090127999999999,3.97631105609557,0.13858707006346463
7.092516000000001,4.006807202142777,0.1378458262015096
7.094895999999999,4.0408882408022375,0.13704140711095222
7.097295999999999,4.078741163529054,0.1360700106098054
7.099683999999999,4.1122177977106995,0.13521815723560304
7.102064,4.138896733720177,0.13453954623627043
7.104468,4.16185100749054,0.13394283552565994
7.106851999999999,4.185084820514625,0.13332895752023738
7.109232,4.209669107979067,0.13266581306695482
7.1116280000000005,4.238397366563205,0.13191423242742764
7.114016,4.265914920333843,0.13121646990586014
7.116395999999999,4.293944330783678,0.13054647958294557
7.118792,4.321182345300596,0.12990277007085277
7.12118,4.3551255101910655,0.1290731670904599
7.12356,4.392933106947509,0.12818018747920146
7.125956,4.425665567024478,0.12740468923795836
7.128343999999999,4.4604001278478655,0.12658500281682253
7.13074,4.495414227924974,0.12575026893962354
7.133136,4.529636932069164,0.12493276063755365
7.135523999999999,4.5593435780413225,0.12419367465215768
7.137904,4.578388093975339,0.12366137747468596
7.140299999999999,4.599714249909493,0.12306209360010778
7.142688000000001,4.617455513231394,0.12251929461508312
7.145072,4.635848402859352,0.12198991914522544
7.147467999999999,4.649538242860176,0.1216011767157029
7.149852,4.669886011406308,0.12109471152588874
7.152232000000001,4.694889607751331,0.12051430594130409
7.154628,4.718263190402275,0.12000808383553233
7.157016,4.737632571560385,0.1195865753039644
7.1594120000000006,4.748341923426771,0.11932785932550102
7.161808,4.75704917454674,0.11910960209932572
7.164196,4.761380137121538,0.11894303107753305
7.166576,4.759844567083944,0.11888798842430333
7.16898,4.749881285180103,0.119027197858629
7.171368,4.735913801783427,0.11924285373803074
7.173748000000001,4.727812850999142,0.11935041708609172
7.176148,4.721434461707554,0.11943846212507551
7.178532,4.713565828348748,0.11958318435193477
7.180915999999999,4.706209051669139,0.11974425172107818
7.183312,4.701366232415144,0.11988459018520625
7.1857,4.707325312826152,0.11983013257481126
7.188083999999999,4.7120736884236605,0.11981104147931888
7.19048,4.719475791073645,0.11976161841906793
7.192868,4.725155332230932,0.11972965671758594
7.195251999999999,4.734466987828715,0.11959252923530753
7.197655999999999,4.737912110814107,0.11955919062157884
7.200043999999999,4.740146528986001,0.11956082226529084
7.202424,4.741449781598115,0.11957569394323551
7.204820000000001,4.74927119312868,0.11949722148341099
7.207208,4.762260289137333,0.11936952695430045
7.209592,4.780044982571739,0.11916664591912055
7.211987999999999,4.804208065297733,0.11888284341872614
7.214376000000001,4.832747436568896,0.1185506370257619
7.21676,4.866082405265812,0.11813686546144846
7.219155999999999,4.899137834709008,0.11774234019943125
7.221544000000001,4.9293997674728685,0.11739451565115289
7.223928,4.957939138744033,0.11706926368037983
7.226323999999999,4.9879687540824165,0.11669135738861708
7.228715999999999,5.013342541621909,0.11637629791147448
7.231096,5.038344242109063,0.11603846007428917
7.2335,5.057479409983827,0.11580318238611122
7.235883999999999,5.078896217858729,0.1155150044517804
7.238264,5.097659298681155,0.11525590407576873
7.240668,5.115351444316943,0.11501881514275264
7.243056,5.132903820325873,0.11479464589923188
7.245436000000001,5.153529232267855,0.11451249448827881
7.247832,5.175784657903918,0.11417547802260457
7.25022,5.201532428353617,0.11375473207079251
7.2526,5.221832975071505,0.11340164256741248
7.255004,5.238176542124804,0.113060654596567
7.257392,5.248421259140235,0.11277460982617238
7.259768,5.254010148356774,0.11254843579366554
7.262172,5.257644158655139,0.11230012482818087
7.26456,5.260114685968248,0.11202836538806078
7.266939999999999,5.26342383104252,0.11169992570675313
7.269336,5.2648706449972345,0.1113930636587951
7.271724,5.264734667086112,0.11109007329432491
7.274104,5.26566962436163,0.11076866462944773
7.276499999999999,5.269957156823923,0.1103746097969024
7.278887999999999,5.270100718166521,0.11005236538169261
7.281268,5.271594753949479,0.10969027145853345
7.283672,5.27122645861288,0.10935185241605211
7.28606,5.2730000336495575,0.10897327301446243
7.28844,5.274913378313096,0.10858396355684846
7.290836,5.273241830364381,0.10822778977075453
7.293220000000001,5.271849821669387,0.10785425789916428
7.295599999999999,5.2643117411082825,0.10758259311429601
7.297996,5.2538403942409815,0.10735188803830237
7.300384,5.245510917746959,0.10708112924297651
7.302764000000001,5.239695398678549,0.10679715016129299
7.305167999999999,5.237325002595533,0.10648929868176463
7.307555999999999,5.237236246512655,0.10613286186240692
7.309935999999999,5.236728181549196,0.10580364989822917
7.31234,5.235800807705156,0.10550277505151097
7.314728,5.233522959420758,0.1052398144006039
7.317104,5.233247211882776,0.1049463653165532
7.319512,5.23455425621063,0.10465158523574723
7.321896,5.231717329418791,0.10442526771976486
7.324276,5.2307427337465064,0.10417994435749334
7.326671999999999,5.236565836246392,0.10384801981286393
7.329059999999999,5.241038464305919,0.10355339589635702
7.33144,5.247373423485002,0.10324127675105708
7.333844,5.253289073783505,0.1029583507055161
7.336232,5.260275659268646,0.10265673104661652
7.338612,5.271918072552679,0.10230784141141752
7.341016000000001,5.280207910649936,0.10202362280523578
7.3434,5.291570784680248,0.10169094088769787
7.34578,5.305587385763037,0.10134063947311553
7.348184000000001,5.315180476472409,0.10107278347481959
7.350572,5.325053106435502,0.10078893928323
7.352951999999999,5.3319924700924,0.10054189105957603
7.355348,5.335858797816243,0.1003412125089739
7.357736,5.342658391846281,0.10010453399876129
7.360116,5.3493182162494595,0.09987711163402574
7.362512,5.3547673358391386,0.09967571413259702
7.3649,5.361659477667794,0.09948417718433859
7.36728,5.366409749123171,0.0993292736417931
7.369675999999999,5.372882582071245,0.09916404855411459
7.372063999999999,5.376002839832544,0.09906366324418975
7.374448,5.371394233861895,0.09905519063548338
7.376843999999999,5.369718894197441,0.09901007243972032
7.379228,5.364179122667015,0.09901032058075261
7.381612,5.361991926323364,0.09894736233991368
7.384008000000001,5.363669161845687,0.09884113559837757
7.386392,5.363204526994732,0.09877016983878292
7.388775999999999,5.36809456807697,0.09861306200097253
7.391172,5.373915774718986,0.0984483855513656
7.39356,5.3789455854280845,0.09828478469734102
7.395955999999999,5.391332172816792,0.09801245193201515
7.398347999999999,5.401297350578503,0.09779158777355061
7.400735999999999,5.4149871905793265,0.09753803883721993
7.40312,5.431190988005763,0.0972765753016738
7.405511999999999,5.445252915058926,0.09705060625108396
7.407900000000001,5.460525546925586,0.09680051382660436
7.410279999999999,5.4820840202852175,0.0964619778703854
7.412676,5.50313063696565,0.09610881407695407
7.415064,5.523525627340025,0.0957438167153333
7.417444000000001,5.5464817969682585,0.09532349132272754
7.419844,5.574932412156544,0.094818484638763
7.422228,5.611251660703637,0.09422774175656683
7.424624000000001,5.643846247011616,0.09366932326043739
7.42702,5.678303164439153,0.09309391849488899
7.429403999999999,5.704332370000441,0.0926401179111492
7.431788,5.725146669255396,0.09226199335211453
7.43418,5.747171673323851,0.0918613440902721
7.436568,5.76598387183239,0.09151253595372158
7.438963999999999,5.785447696646986,0.09117613488624811
7.44136,5.803700816648085,0.09086485870522938
7.443744,5.815016468850156,0.09062991378537275
7.446124,5.826611660305946,0.0903775086984148
7.448528,5.837694995082538,0.0901099552044473
7.450916,5.846404142060376,0.08983852126863236
7.4533,5.856184224224852,0.08955273373613029
7.455692,5.865033140829549,0.08927521498932736
7.45808,5.8714606478072495,0.08904709470386153
7.46046,5.875886054038533,0.0888406430170134
7.462864000000001,5.887388697695705,0.08855889067130618
7.465252,5.895538766166101,0.0883294273429313
7.467631999999999,5.896192288330029,0.08820036806515275
7.470028,5.893772774560901,0.08810661478218587
7.472416,5.897080023777303,0.08796873579996872
