Time,Force,Position
8.858224,0.10695110715496223,0.0
8.860624000000001,0.10212976461067168,0.0
8.863012000000001,0.09975557681191734,0.0
8.865392,0.09200096796143163,0.0
8.867788000000001,0.08424635911094593,0.0
8.870172,0.07635198063359999,0.0
8.872551999999999,0.06752643659647573,0.0
8.874956000000001,0.05762995737271294,0.0
8.877344,0.049735578895367,0.0
8.879724,0.0429121356046596,0.0
8.882127999999998,0.039021958620147366,0.0
8.884516000000001,0.0332694505160785,0.0
8.886896,0.02937927353156626,0.0
8.889292000000001,0.02656003173369256,0.0
8.891676,0.02609539688273802,0.0
8.894055999999999,0.02327615508486432,0.0
8.896452,0.01724410772707503,0.0
8.89884,0.010932521115565315,0.0
8.901236,0.006623035250472449,0.0
8.903631999999998,0.0032447149451579073,0.0
8.906016000000001,0.0017287257594000053,0.0
8.908396,0.0017287257594000053,0.0
8.910799999999998,0.0003525062005023138,0.0
8.913187999999998,0.0003525062005023138,0.0
8.915568,0.0003525062005023138,0.0
8.917964000000001,0.0003525062005023138,0.0
8.920352000000001,0.0003525062005023138,0.0
8.922732,0.0003525062005023138,0.0
8.925128,0.0003525062005023138,0.0
8.927512,0.00035250620050231385,0.0
8.929896,0.0006577905727614746,0.0
8.932292,0.0006577905727614745,0.0
8.93468,0.0017544708779387453,0.0
8.937076000000001,0.0017544708779387455,0.0
8.939471999999999,0.0014019646774364315,0.0
8.941859999999998,0.0014019646774364315,0.0
8.94424,0.0014019646774364315,0.0
8.946635999999998,0.0014019646774364315,0.0
8.949024000000001,0.0014019646774364315,0.0
8.951404,0.0014019646774364315,0.0
8.953807999999999,0.0014019646774364315,0.0
8.956195999999998,0.003290040915531813,0.0
8.958576,0.003290040915531813,0.0
8.960971999999998,0.003290040915531813,0.0
8.963356000000001,0.003290040915531813,0.0
8.965736,0.0032900409155318133,0.0
8.968136000000001,0.0032900409155318133,0.0
8.97052,0.0032900409155318137,0.0
8.972916000000001,0.0032900409155318137,0.0
8.975311999999999,0.0032900409155318137,0.0
8.977699999999999,0.0029847565432726524,0.0
8.980080000000001,0.0029847565432726524,0.0
8.982475999999998,0.0018880762380953816,0.0
8.984863999999998,0.0018880762380953816,0.0
8.987248000000001,0.0018880762380953816,0.0
8.989643999999998,0.0018880762380953816,0.0
8.992028000000001,0.0018880762380953818,0.0
8.994412,0.0018880762380953818,0.0
8.996808000000001,0.0018880762380953818,0.0
8.999196000000001,0.0018880762380953818,0.0
9.001576,0.0018880762380953818,0.0
9.003972000000001,0.0,0.0
9.00636,0.0,0.0
9.008744,0.0,0.0
9.01114,0.002679472171013492,0.0
9.013528,0.0036363828493305526,0.0
9.015923999999998,0.0056642287142861444,0.0
9.01832,0.006621139392603205,0.0
9.020712,0.008509215630698588,0.0
9.023091999999998,0.008509215630698586,0.0
9.025496,0.008509215630698586,0.0
9.02788,0.008509215630698586,0.0
9.030259999999998,0.008509215630698586,0.0
9.032664,0.008509215630698586,0.0
9.035048,0.008509215630698586,0.0
9.037427999999998,0.008509215630698586,0.0
9.039824,0.008509215630698586,0.0
9.042212,0.008509215630698586,0.0
9.044592000000002,0.008509215630698586,0.0
9.046983999999998,0.008509215630698588,0.0
9.049371999999998,0.008509215630698588,0.0
9.051752,0.008509215630698588,0.0
9.054156,0.008509215630698588,0.0
9.056544,0.008509215630698588,0.0
9.058924,0.0058297434596850965,0.0
9.061319999999998,0.006662673647238633,0.0
9.063707999999998,0.012521622828152005,0.0
9.066088,0.0304838284283143,0.0
9.068492,0.05417090115613747,0.0
9.07088,0.08896326206335294,0.0
9.07326,0.13534702271061966,0.00878185430092672
9.075664,0.19197170865757862,0.017131062195256144
9.078052,0.25776638471759133,0.02530319522772435
9.080431999999998,0.3323589638383203,0.033260107573221745
9.082836,0.41402688452706915,0.04113585251652621
9.08522,0.49862617566414397,0.04928082623092808
9.087599999999998,0.5875998594885207,0.0576486304920539
9.090004,0.6857435334259511,0.06589598774727562
9.092392,0.7942679022899342,0.07394167455643129
9.094772,0.9115901742146333,0.08186000784386369
9.097176,1.0324954428937163,0.08996974981867897
9.099564,1.1597772050065183,0.09813056674246533
9.101944,1.2919924383140629,0.10635460929946322
9.104347999999998,1.4311904653910101,0.1144332266164941
9.106736,1.5752766376923264,0.12239005543221583
9.109116,1.7203664658071072,0.13024116212675738
9.111512,1.860430274928528,0.13803898245496746
9.1139,1.9854575613245047,0.14601540764956467
9.11628,2.108624412458794,0.1537982390945324
9.118676,2.227229879450678,0.16141763527131023
9.121064,2.3325213852098146,0.16030100010976508
9.123444,2.4237075338032854,0.15976854622801542
9.125848,2.5066548578434804,0.15937924464051495
9.128232,2.5813161355021568,0.15922777892149753
9.130612,2.648622532339093,0.159195066541081
9.133016,2.7157910554070384,0.15879290294920223
9.135404,2.7827291569073758,0.1579865230934029
9.137784,2.840497268294659,0.15730059024350765
9.14018,2.890538411807865,0.15674280424452214
9.142564,2.9337837530067716,0.15623617785946065
9.144948,2.977590068570988,0.15537477790322743
9.147344,3.017441300328483,0.15434311610056473
9.149732,3.0543611616376527,0.15318014090960821
9.152112,3.0828079851102,0.15225280877998515
9.154508,3.1070182896644356,0.151453150162094
9.156896,3.1293662630991155,0.1507330268748575
9.159275999999998,3.1485014309738797,0.150151326403797
9.161676,3.1727117355281163,0.14934818173829562
9.16406,3.1907759682162418,0.14881405046338783
9.166443999999998,3.202973668291977,0.14850350381721553
9.16884,3.214332750606551,0.14828696263769364
9.171228,3.232349761466433,0.14783380490040873
9.173612,3.2483646715798993,0.14745925166863597
9.176008,3.2677321568801405,0.14693513867584182
9.178392,3.287239411807242,0.1463896220180617
9.180775999999998,3.306886436361204,0.1458485641072559
9.183172,3.3199680801684743,0.14560609913346118
9.185555999999998,3.33584322065508,0.145283613261153
9.187952,3.3453399718500973,0.1451419366669346
9.190352,3.3514841478583386,0.14515331730423664
9.192736,3.3521338783065278,0.14540618160537216
9.19512,3.351805221366695,0.1457708449346223
9.197512,3.349474463680445,0.14620359601895472
9.1999,3.3495651156211923,0.14651784067270468
9.202284,3.3470020405094654,0.1468997490687147
9.20468,3.345509900584377,0.1472342955025675
9.207064,3.3483015014058424,0.14739575001437544
9.209447999999998,3.35002216704067,0.14760004385423708
9.211844,3.3530933071158557,0.1477289180531347
9.214228,3.3572353823776804,0.1478137846656985
9.216624,3.3658009680129193,0.14770460613525324
9.219024,3.374646092901879,0.14757017160384858
9.221408,3.387355649656812,0.14731500868563102
9.223792,3.3921965730529378,0.1473201219340354
9.226188,3.3950353957026467,0.14739402862014608
9.228572,3.392519542419163,0.14768340422717666
9.230951999999998,3.395498134695732,0.1477407924856684
9.233352,3.3938208991734093,0.14793270317456636
9.23574,3.400152066636754,0.14784682447443145
9.23812,3.4067627733538193,0.14772591823838757
9.240516,3.415794889697882,0.14748505743448687
9.242904,3.4204507174967733,0.14734668698298625
9.245288,3.424315149362747,0.14721932841622426
9.247684,3.425805393429966,0.14712639160664429
9.250072,3.431299838990019,0.1468898040352206
9.252468,3.4345126445499345,0.14675869734527924
9.254867999999998,3.4365147452963516,0.14668880308154156
9.257252,3.439727550856267,0.14656095132709202
9.259636,3.441357564550347,0.14645403994386866
9.262032,3.4412650167517294,0.14638447740408495
9.26442,3.4403810730201947,0.146326256757374
9.266804,3.4341424533554665,0.14648092656803868
9.2692,3.421665214026011,0.14679097449801448
9.271588,3.411888923577273,0.1469580724409293
9.273968,3.4093296401812845,0.14685182801661006
9.276368000000002,3.410262701598932,0.14658315227891228
9.278752,3.410124827829941,0.1463611513545987
9.281132,3.4122685940610875,0.14603747424629665
9.283532,3.406124418052846,0.1460206701457051
9.28592,3.4021221124178815,0.14591931186058987
9.2883,3.3989112027158352,0.14580753897240076
9.2907,3.4017065952530396,0.14549342864901943
9.293084,3.404501987790244,0.1451777078017657
9.295464,3.408600632939564,0.1448713979800329
9.297868,3.40841553734233,0.14473331105750278
9.300256,3.410372312118373,0.1445119544201291
9.302636,3.4106065254017195,0.1443271457729111
9.305032,3.40911817719237,0.1441786561059929
9.30742,3.405999815288941,0.1441353747392245
9.3098,3.4083286771173213,0.14394981745711566
9.312196,3.410377999691981,0.14379725008740987
9.314584,3.4140573359607207,0.14353628999085677
9.31698,3.422252730401491,0.1431549792392614
9.319384,3.434265334879992,0.1427395351371889
9.321768,3.4409232634253004,0.14254315467979772
9.324148,3.448512357530387,0.14232527353564506
9.326543999999998,3.4506542279036645,0.1422432212453384
9.328931999999998,3.4503746886499433,0.14227464545300092
9.331316,3.4536800420084766,0.14221702868592623
9.333711999999998,3.4585681872328458,0.1421409286936823
9.336099999999998,3.458660735031462,0.14220996167361713
9.338484,3.4539576854043275,0.1424231391223026
9.34088,3.4519083628296676,0.1425741522976618
9.343267999999998,3.4517213713745645,0.1426736337391368
9.345648,3.456749286225793,0.14258395779447822
9.348052,3.460054639584326,0.14253031082291884
9.350435999999998,3.4660137199953334,0.14241810909727856
9.352816,3.472716974511016,0.14237885012326934
9.35522,3.487428632012366,0.14208012685438162
9.357608,3.497764000968544,0.14187864498133426
9.359988,3.506376808432026,0.14171035082989514
9.362384,3.5152219333209858,0.1415923524985248
9.364767999999998,3.524578914889143,0.14149782163203112
9.367148,3.532353104591464,0.14142375093060525
9.36954,3.540406833547505,0.14131898324260378
9.371928,3.5473896273169077,0.14125538596809564
9.374324,3.5614024366839567,0.14104830526088935
9.37672,3.57806897310348,0.14078116123278975
9.379108,3.599298789523278,0.14033872579498075
9.381488,3.6150813822112666,0.1400213843455146
9.383888,3.634448867511508,0.1396175309971223
9.386276,3.65805287173006,0.13914046012567588
9.388656,3.682727811135251,0.13864021853289085
9.39106,3.7066113546075234,0.13815562537187817
9.393444,3.7295637325200177,0.13770871247092586
9.395824,3.7551698374849867,0.13721856077582842
9.398219999999998,3.7798447768901773,0.13675800161156618
9.400607999999998,3.8054981036833895,0.13620144929497258
9.402988,3.825564437117932,0.13578415193911658
9.40538,3.8470737927914507,0.13536530373158462
9.407764,3.8704454795845256,0.13490441470305523
9.41016,3.898520216004736,0.13427590685850982
9.412556,3.926222865372608,0.13362259824613615
9.414943999999998,3.95392551474048,0.1329752258223141
9.417324,3.980557228921714,0.13235755507102195
9.419728,4.009051274222505,0.13171113375784313
9.422111999999998,4.034891592470821,0.13112350417120794
9.424492,4.063293089972993,0.13044395756150645
9.426896,4.084477580422418,0.12996596610023922
9.42928,4.110317898670734,0.12939071144035577
9.43166,4.138719396172907,0.12872485745604054
9.434055999999998,4.1646069362494655,0.12809531147816466
9.436443999999998,4.186769814086911,0.12754593154475777
9.438824,4.2070703608048,0.12703297599061478
9.441228,4.226579511589771,0.12653378379858407
9.443611999999998,4.24115329532213,0.12614895557351657
9.445992,4.252793812748294,0.12582817801350038
9.448388,4.264154790920737,0.12553552068124676
9.450776,4.276167395399239,0.12524890033647057
9.453172,4.291672344691375,0.12485511496546953
9.455568,4.305314962863956,0.12449595608396832
9.457952,4.316675941036399,0.12421669056624045
9.460335999999998,4.326686444768483,0.12399140430229404
9.46274,4.335765782940789,0.12378347343515352
9.465124,4.348057926673011,0.1234917234013594
9.467503999999998,4.355973781860061,0.12325947823288971
9.469908,4.361096140367776,0.12307536822589535
9.472296,4.361003592569159,0.12302046065000755
9.474676,4.3659861814500145,0.12284843707550065
9.47708,4.3712483095845895,0.12265549560020747
9.479468,4.372506236226332,0.12255058527470748
9.481848,4.375114637308433,0.12239580392455629
9.484244,4.37930583025637,0.12223318816915113
9.486628,4.387640994324001,0.12197618095075428
9.489007999999998,4.395556849511052,0.12175551455921406
9.491416,4.404962948765322,0.12147105711442302
9.4938,4.421446285445479,0.1210381663596993
9.496184,4.43713822619272,0.12061094061612845
9.49858,4.453109706193681,0.12016084806184735
9.500964,4.4629351143285305,0.11984943644296724
9.503343999999998,4.477695889515993,0.11944595388056332
9.50574,4.490454563957038,0.11908574090532924
9.508128,4.502421842465165,0.11872728905528615
9.510507999999998,4.511455854667098,0.11842063585264674
9.512904,4.519279162055531,0.11815433196423551
9.515287999999998,4.525332686123024,0.11796646682930693
9.517672,4.5340399372429925,0.11774432775778644
9.520067999999998,4.5456804546691565,0.11746451625774013
9.522455999999998,4.553177000975626,0.11727899875387769
9.524852,4.559462842468597,0.11713339617928402
9.527248,4.564398209521209,0.11703538016773042
9.529632,4.566912166946824,0.11701329797631838
9.532016,4.566772397319964,0.11702475011666874
9.534416,4.563280052506328,0.11712597501942995
9.536804,4.554992110266939,0.11731552930098615
9.539184,4.5502890606398045,0.11745473256528591
9.54158,4.536366903213505,0.11779528841951446
9.543968,4.522444745787205,0.11813492574794669
9.546347999999998,4.508103279480323,0.11850911320108216
9.548752,4.495903683546716,0.11883304205785372
9.55114,4.480631051680058,0.11921717407295705
9.55352,4.462425153507203,0.11966162012129893
9.555916,4.445290190520986,0.12008071702543513
9.558304,4.432159429027604,0.12041987512176103
9.560683999999998,4.416095401228026,0.12081733954159035
9.56308,4.407667689361777,0.12101696076250794
9.565468,4.398728120816331,0.12119630117640263
9.567848,4.390999257084385,0.12133585930169763
9.570252,4.3889046085393515,0.12132307867036664
9.57264,4.385878794434539,0.12132467184270718
9.57502,4.387928117009199,0.12122075098446249
9.577416,4.391979540330276,0.1210767193311707
9.579804,4.3989642299575475,0.12087782578860479
9.582188,4.405157523651901,0.12068134615989705
9.584592,4.417636658839226,0.12033939155996275
9.586976,4.429464167720493,0.11999654811424874
9.589356,4.447717287721591,0.11949782649305393
9.591752,4.466761803655607,0.11899814961601482
9.59414,4.488507268470341,0.11840778248357733
9.596524,4.511183898844854,0.11780659881304839
9.598928,4.531346571793752,0.11722508565934801
9.601316,4.5575155469819,0.11652626702485035
9.603696,4.585686622916466,0.1157954467550655
9.6061,4.614137238104751,0.11505091301484599
9.608484,4.645800658852952,0.11423044312373261
9.610868,4.672249173294822,0.11353296243874332
9.613264,4.697626752550053,0.11286015308780564
9.615652,4.71900013031245,0.11226418375095121
9.618032,4.738743494380768,0.11174687387758114
9.620428,4.75569336176975,0.11126406045587281
9.622812,4.770920667666036,0.11080346784317266
9.625191999999998,4.785496347256263,0.1103366530845195
9.627592,4.796207594980517,0.10992924589041797
9.62998,4.807058612331632,0.10950932787440709
9.632359999999998,4.8176300904290255,0.10911645015077903
9.634756,4.826990863712921,0.10876124654403885
9.637144,4.8343495362504,0.10844386420156536
9.639528,4.841056582481821,0.10811906167485813
9.641924,4.847484089459521,0.10781922615735202
9.644312,4.852189034944526,0.10753294332274779
9.646708,4.857545606735588,0.10725387808114618
9.649104,4.860108681847314,0.10701174550892968
9.651492,4.8597384906528465,0.10681442181700516
9.653876,4.859088760204658,0.10663809275410273
9.656272,4.859230425689388,0.10646187850056937
9.65866,4.861513961547395,0.10624417225860018
9.66104,4.867801698898235,0.10596526803100972
9.663436,4.877162472182131,0.10563421011069181
9.665824,4.883869518413551,0.10532634238486381
9.668204,4.894720535764664,0.10494535091447572
9.670608,4.904640387556002,0.10457715412643036
9.672996,4.915351635280257,0.10421012121127385
9.67538,4.931138019683984,0.103761489968978
9.677779999999998,4.9498576703939055,0.10327448184489978
9.680167999999998,4.965783824424492,0.10282061055446473
9.682552,4.978636942522024,0.10241599296970702
9.684948,4.991210521365835,0.10203161963020278
9.687332,5.003644330582786,0.1016580474535885
9.689712,5.012865334239821,0.10134523395534725
9.692116,5.0255314608822514,0.10101382811290166
9.694503999999998,5.041130853830874,0.10064414146753844
9.696884,5.057521642712414,0.10027639001283929
9.699279999999998,5.077916633086791,0.09985430624200858
9.701664,5.098032084207445,0.09945356556325763
9.704044,5.117495909022042,0.09904868592831932
9.706452,5.13546948976942,0.09869194832634336
9.708835999999998,5.150230264956883,0.09839512512572517
9.711216,5.164571731263764,0.09812807769386944
9.71362,5.178493888690065,0.09788718812660145
9.716008,5.192788133168703,0.09767688013853137
9.718388,5.2095963350729555,0.09746054186170013
9.720783999999998,5.22547337141743,0.0972544784156585
9.723171999999998,5.241722494814242,0.09707974328256139
9.725552,5.256900683024415,0.09692522531881609
9.727956,5.272870267167506,0.0967709278685389
9.730344,5.293775218363209,0.09655647233145412
9.732724,5.317753205491969,0.09630178380051978
9.735119999999998,5.343453754113425,0.09604135460662219
9.737507999999998,5.371296173108158,0.09574636962671972
9.739888,5.397416030610194,0.09546333756318243
9.742292,5.4215337873658145,0.09520767749609202
9.744675999999998,5.445511774494574,0.09496280754787133
9.74706,5.4629243808766415,0.09482718089605979
9.749464,5.4815476920722075,0.09466765426890326
9.751848,5.497749593640777,0.09455940905230213
9.754228,5.5146503433436465,0.09440810473471971
9.756624,5.533553193792933,0.09423372622475631
9.759011999999998,5.551804417936162,0.09405052778853237
9.761392,5.573547986893026,0.09380179343852885
9.763796,5.59678179991711,0.09351573433337358
9.766184,5.614288849955663,0.09328380247231463
9.768564,5.62951425999408,0.09309136510516502
9.77096,5.6432966477935205,0.09289111310394929
9.773348,5.655076934846544,0.09271475371787903
9.775728,5.667928157086208,0.09252308218452701
9.778132,5.6759837819001175,0.09237804611553552
9.78052,5.679895435594336,0.09228870963994099
9.7829,5.677940556676161,0.09226065306239335
9.785296,5.6750545121982094,0.09224001384788537
9.787684,5.671377071787339,0.09221825399204713
9.790064,5.668770566563109,0.09218075031957597
9.792459999999998,5.663370564659542,0.09216528063384528
9.794847999999998,5.665746648316165,0.0920233504187019
9.797228,5.666539940106952,0.09188003655384175
9.799632,5.6714772030174325,0.09168387791726466
9.80202,5.675063991487554,0.0915196321628721
9.8044,5.6777196143978985,0.09136353031368512
9.806804,5.681306402868021,0.09120089792179763
9.809192,5.682751320964867,0.09106926425082246
9.811571999999998,5.680052267942019,0.09098965486010299
9.813976,5.683359517158421,0.09084516821658427
9.816364,5.690950507121376,0.09064121117707755
9.818744,5.698541497084332,0.09043870647763848
9.821136,5.709996918913261,0.09020269778908738
9.823524,5.721452340742191,0.08996812870460812
9.825904,5.735980798504176,0.08969785446582668
9.828308,5.752930665893159,0.0893830801497392
9.830692,5.780170576267946,0.08895021535920566
9.833075999999998,5.807270717015873,0.08852579392075606
9.835468,5.835022484069858,0.08811275423201037
9.837856,5.8627742511238425,0.0877025668469073
9.840236,5.893319514857162,0.0872722901365644
9.842631999999998,5.917159628216929,0.08694595761746737
9.845016,5.939509497509478,0.08665747059701423
9.847396,5.956923999749415,0.08641718216406279
9.849792,5.979273869041964,0.08613289292880306
9.85218,5.998410932774597,0.08588953518004594
9.854575999999998,6.020621032440287,0.0856167487932125
9.85698,6.042691362479115,0.08535206077014683
9.859364,6.065692858077723,0.08508071893567759
9.861743999999998,6.085900856996995,0.08483048264245885
9.86414,6.105037920729628,0.08459639614798316
9.866528,6.120822409275486,0.08440986672198614
9.868908,6.13302200520909,0.08424025774888198
9.871312,6.145221601142694,0.08407178206145823
9.8737,6.1542083915163825,0.08394293146483711
9.876079999999998,6.163567268942409,0.08383981037176393
9.87848,6.166780074502324,0.08380123024658169
9.880868,6.172134750435516,0.08373737200254869
9.883247999999998,6.17776896562243,0.08365917700377609
9.885644,6.183682720063063,0.08356694617703232
9.888032,6.190155553011137,0.08344619287987581
