Time,Force,Position
8.577695999999998,0.061320954656984984,0.0
8.580091999999999,0.06296909911406309,0.0
8.582475999999998,0.0646172435711412,0.0
8.584856,0.06733632321485783,0.0
8.587251999999998,0.06733632321485783,0.0
8.589639999999997,0.06713120099675574,0.0
8.592024,0.06399281247245849,0.0
8.594419999999998,0.06127373282874184,0.0
8.596807999999998,0.058414883558164994,0.0
8.599203999999999,0.05448509910094962,0.0
8.6016,0.049624149083955925,0.0
8.603983999999999,0.041829932760767054,0.0
8.606367999999998,0.038756896827711676,0.0
8.608763999999999,0.03461292570801775,0.0
8.611151999999999,0.03461292570801775,0.0
8.613531999999998,0.04290086794740557,0.0
8.615927999999998,0.05305114130635004,0.0
8.618315999999998,0.06161862279945828,0.0
8.620696,0.06911516910592799,0.0
8.623091999999998,0.08375430542952868,0.0
8.625479999999998,0.09194969987029945,0.0
8.627875999999999,0.10135579912456896,0.0
8.630272,0.11062212875197826,0.0
8.63266,0.11667565281947195,0.0
8.635039999999998,0.12852129246373767,0.0
8.63744,0.14157763692150213,0.0
8.639828,0.15570491656590513,0.0
8.642207999999998,0.16675916027725274,0.0
8.644608,0.17846503029465824,0.0
8.646992,0.187517173259589,0.0
8.649375999999998,0.19442744585124272,0.0
8.651772,0.20212911437581452,0.0
8.65416,0.20417843695047452,0.0
8.656539999999998,0.20038842212011934,0.0
8.65894,0.19352537135670878,0.0
8.661328,0.18144741428696579,0.0
8.663707999999998,0.1693694572172228,0.0
8.666103999999999,0.15701196089375938,0.0
8.668491999999999,0.14651679568985262,0.0
8.670871999999997,0.13187765936625195,0.0
8.673267999999998,0.12154039455220417,0.0
8.675651999999998,0.11048615084085654,0.0
8.678052,0.09957167675636915,0.0
8.680448,0.09151605194245858,0.0
8.682836,0.08052716082235284,0.0
8.685215999999999,0.06832756488874837,0.0
8.687612,0.05420028524434539,0.0
8.69,0.04479418599007589,0.0
8.692383999999999,0.033088315972670375,0.0
8.69478,0.024613382278179184,0.0
8.697168,0.018280318956965056,0.0
8.699547999999998,0.01057865043239325,0.0
8.701948,0.005810248214016608,0.0
8.704331999999999,0.005810248214016609,0.0
8.706715999999998,0.008529327857733245,0.0
8.709112,0.014041904180784843,0.0
8.7115,0.01755237975741959,0.0
8.713879999999998,0.021062855334054335,0.0
8.71628,0.02471310053754929,0.0
8.718668,0.02822357611418404,0.0
8.721051999999998,0.0303654464874611,0.0
8.723448,0.033224295758037946,0.0
8.725831999999999,0.036083145028614795,0.0
8.728228,0.03715408021525333,0.0
8.730624,0.03629733169109333,0.0
8.733015999999997,0.03544058316693333,0.0
8.735396,0.03544058316693333,0.0
8.737792,0.033792438709855224,0.0
8.74018,0.033792438709855224,0.0
8.742564,0.03321522943941565,0.0
8.74496,0.03377430794685649,0.0
8.747344,0.03691269647115376,0.0
8.749728,0.04098225055522934,0.0
8.752124,0.05012694131877717,0.0
8.754512,0.055481617251969824,0.0
8.756891999999999,0.05524929982649256,0.0
8.759295999999997,0.05529652165473571,0.0
8.761684,0.05241047717678368,0.0
8.764064,0.05003628937802934,0.0
8.766463999999997,0.04687070564635692,0.0
8.768852,0.04415162600264028,0.0
8.771232,0.04129277673206343,0.0
8.773628,0.038433927461486585,0.0
8.776016,0.03664601337754827,0.0
8.7784,0.038433927461486585,0.0
8.780796,0.044226043038258604,0.0
8.78318,0.04894722342839209,0.0
8.785563999999999,0.05259746863188705,0.0
8.78796,0.05932074976843738,0.0
8.790348,0.06418169978543109,0.0
8.792731999999999,0.06697519646476606,0.0
8.795128,0.06669565721104564,0.0
8.797516,0.06655588758418543,0.0
8.799895999999999,0.058267945344797595,0.0
8.802296,0.0510509382920483,0.0
8.804684,0.047558593478412285,0.0
8.807068,0.04765114127702934,0.0
8.809464,0.053749991314896946,0.0
8.811852,0.05733488392715002,0.0
8.814236,0.06185094209918142,0.0
8.816632,0.07164725916878714,0.0
8.819016,0.08037264105175435,0.0
8.821399999999999,0.09016895812136007,0.0
8.823796,0.09675246963105019,0.0
8.826184,0.09968573593724536,0.0
8.828567999999999,0.09554176481755144,0.0
8.830964,0.09339989444427438,0.0
8.833352,0.09274826813821647,0.0
8.835735999999999,0.08702150515268632,0.0
8.838132,0.08287753403299242,0.0
8.84052,0.07894774957577705,0.0
8.842903999999999,0.07608890030520021,0.0
8.8453,0.07215911584798482,0.0
8.847692,0.07130236732382483,0.0
8.850076,0.07044561879966485,0.0
8.852472,0.06865770471572652,0.0
8.854856,0.06500745951223158,0.0
8.85724,0.05951301395217871,0.0
8.859636,0.05602066913854269,0.0
8.862024,0.05453042507132353,0.0
8.864419999999997,0.04517154764529717,0.0
8.866815999999998,0.036446165762329986,0.0
8.869203999999998,0.02664984869272426,0.0
8.871587999999997,0.02227356014755308,0.0
8.873983999999998,0.019759602721938534,0.0
8.876371999999998,0.022181012348936012,0.0
8.878755999999997,0.025673357162572023,0.0
8.881151999999998,0.030329184961463626,0.0
8.883539999999998,0.03684734387991187,0.0
8.88592,0.045786912425357595,0.0
8.888315999999998,0.05851649580115848,0.0
8.890703999999998,0.07031491361718105,0.0
8.893084,0.08625730255289754,0.0
8.895483999999998,0.10205992186175383,0.0
8.897868,0.11972487229016673,0.0
8.900252,0.13445655641238446,0.0
8.902655999999999,0.14318193829535167,0.0
8.905039999999998,0.14195310271885417,0.0
8.90742,0.14209287234571438,0.0
8.909819999999998,0.13915960603951924,0.0
8.912207999999998,0.14009077159929756,0.0
8.914588,0.14346147754907207,0.0
8.916991999999999,0.1456214786853479,0.0
8.919379999999999,0.1434323864838277,0.0
8.92176,0.14122516351930875,0.0
8.924164,0.13715560943523314,0.0
8.926552,0.1310839546047407,0.0
8.928931999999998,0.12342950790841208,0.0
8.931332,0.11591483083894362,0.0
8.93372,0.10625828339619811,0.0
8.936099999999998,0.09352870002039722,0.0
8.938495999999999,0.08173028220437464,0.0
8.940883999999999,0.06578789326865814,0.0
8.943263999999997,0.04998527395980187,0.0
8.945659999999998,0.032320323531388945,0.0
8.948047999999998,0.017588639409171204,0.0
8.950428,0.008863257526204012,0.0
8.952827999999998,0.01065117161014233,0.0
8.955211999999998,0.010139314930944639,0.0
8.957596,0.011909098251884218,0.0
8.959991999999998,0.010540493048526535,0.0
8.962379999999998,0.007169787098751998,0.0
8.96476,0.005009785962476202,0.0
8.967155999999997,0.004991655199477469,0.0
8.969543999999997,0.007198878163996414,0.0
8.971928,0.011408201874932212,0.0
8.974323999999998,0.01589706483958843,0.0
8.976711999999997,0.018523596684688004,0.0
8.979103999999998,0.019287797410230945,0.0
8.981499999999999,0.019287797410230945,0.0
8.983887999999999,0.019287797410230945,0.0
8.986268,0.019287797410230945,0.0
8.988672,0.019287797410230945,0.0
8.99106,0.020191767762634094,0.0
8.993439999999998,0.02109573811503724,0.0
8.995835999999999,0.02109573811503724,0.0
8.998223999999999,0.022139478094300596,0.0
9.000603999999997,0.021395303989625636,0.0
9.003003999999999,0.021302756191008576,0.0
9.005387999999998,0.019859733952032565,0.0
9.007771999999996,0.026490467289965847,0.0
9.010167999999998,0.03284166137417871,0.0
9.012555999999998,0.04026379064503009,0.0
9.014936,0.051690121408715185,0.0
9.017331999999998,0.05769642364796575,0.0
9.019719999999998,0.05983829402124281,0.0
9.022104,0.0678466970069102,0.0
9.024499999999998,0.07771743111213425,0.0
9.026887999999998,0.0882397915234162,0.0
9.029272,0.1012489141529375,0.0
9.031667999999998,0.11211616640918176,0.0
9.034055999999998,0.12070177866528875,0.0
9.036452,0.12751760760045616,0.0
9.038852,0.13561666252687135,0.0
9.04124,0.14492452640891607,0.0
9.04362,0.16151285407708274,0.0
9.046016,0.18622743187903976,0.0
9.048404,0.21601525050259981,0.0
9.050788,0.24743118696237001,0.0
9.053184,0.2803354716314901,0.0
9.055576,0.31202715562924216,0.0
9.057956,0.35344790824748884,0.00939163406502278
9.060359999999998,0.40245585911295323,0.018362188672212724
9.062747999999996,0.4529521581877673,0.027211858701493924
9.065128,0.508941006964765,0.03637363422548788
9.067531999999998,0.575170781041455,0.04531781944120203
9.069915999999996,0.6402805022453942,0.05447013173353369
9.0723,0.7140483568831894,0.06337101601463896
9.074695999999998,0.7974527323428621,0.07197386493194023
9.077083999999996,0.8826249952656052,0.08066838767420569
9.079464,0.9778058660625633,0.0892234761562825
9.08186,1.085649071786211,0.09756314871042682
9.084248,1.205689977585594,0.10560774676326883
9.086628,1.3293629978254735,0.11348170648520413
9.089028,1.4579732809758341,0.1210543391946563
9.091412,1.578344739572919,0.12869733406422365
9.093796,1.6854022369372565,0.13655014234678273
9.096192,1.788829515718967,0.14438999283726825
9.09858,1.895144734836499,0.15208754800820953
9.10096,2.003044641677736,0.15966086118216732
9.103356,2.103357350271756,0.1673584163531086
9.105744,2.193429133566083,0.16567993575308887
9.108123999999998,2.2736320786130557,0.16449954952689763
9.11052,2.3499252658236807,0.16340787470480178
9.112908,2.42859453669093,0.16182942724586927
9.115287999999998,2.4930186807656525,0.1607204392548217
9.117684,2.54934376991396,0.15955859922638715
9.120072,2.596591416747831,0.15871167620647855
9.122468,2.6357853346256603,0.15820813369332662
9.124864,2.673211365040419,0.15755556883276714
9.127252,2.7046329890737972,0.1569659790440529
9.129636,2.727396479673319,0.15653758959474418
9.132032,2.7374504135179087,0.1565409393258848
9.13442,2.7403345621379915,0.15681644451872734
9.136804,2.7347909988918264,0.15753774331031273
9.139203999999998,2.731249536392078,0.15816718405665886
9.141591999999996,2.7313401883328257,0.1585633001496205
9.143972,2.728777113221099,0.15905720167970847
9.146368,2.725422642176454,0.15955121283002735
9.148756,2.7217886318780886,0.16007282197168202
9.151136,2.724300693445834,0.16029707491624723
9.153532,2.7285353165062762,0.160469527476798
9.15592,2.7337011051264954,0.16060461105895119
9.1583,2.737004562627159,0.1608116703756449
9.160696,2.7356521923289305,0.16119339683446257
9.163084,2.745101721695705,0.16110774051136206
9.165463999999998,2.7576242869955343,0.16086680914903093
9.167864,2.7676328948697493,0.16068600262543387
9.170252,2.7782005812514052,0.16042455750583978
9.172631999999998,2.7878371020732824,0.16020489285970385
9.175036,2.792538255842548,0.16020768530904272
9.177424,2.7939340562532804,0.16029832899929755
9.179804,2.7985426622239293,0.160215435739194
9.182204,2.8023598722616594,0.16014590452659253
9.184588,2.8100415141653636,0.1598971062674825
9.186972,2.8194457175617638,0.15959616887901282
9.189372,2.832946670249615,0.1591962330002179
9.191756,2.85059159405716,0.15859071916708367
9.19414,2.867724661185507,0.15799310115983814
9.196536,2.883414706074878,0.15742456981126765
9.198928,2.894821010217695,0.15707855173268576
9.201308,2.9083691847337887,0.15664022847023418
9.203708,2.9224764377573242,0.15612698663148755
9.206096,2.9377943955943584,0.15554417361830578
9.20848,2.9561853893644474,0.15484001530678337
9.210876,2.972434512761259,0.1542678793428245
9.213264,2.992827607277765,0.1535402893772313
9.215648,3.0182958384737435,0.1526062902113123
9.218044,3.0416221992964445,0.15176471741494696
9.220432,3.066950660865562,0.15086340643941276
9.222816,3.096423093554374,0.14977596988638836
9.225211999999996,3.126407382922384,0.14869502535133375
9.2276,3.1577421467307523,0.1475557783219497
9.229984,3.1942918168454524,0.14620107397663878
9.232379999999996,3.2283275295345395,0.14490419531780802
9.234771999999998,3.257567644797874,0.14376699120025008
9.237152,3.2802896011427602,0.14284132076373013
9.239551999999998,3.2994266648753943,0.14202964024292164
9.241939999999998,3.3117660304358587,0.1414544019444307
9.24432,3.321544216742466,0.14102243411905163
9.246715999999996,3.3310428637953526,0.14061804227269642
9.249103999999996,3.334395438982128,0.1404601381755365
9.251484,3.338679179728682,0.14027502012745038
9.253883999999998,3.3411005893556798,0.1401479043347649
9.256271999999996,3.338167323049485,0.14025179154461997
9.258656,3.3313696248773157,0.14048639673141808
9.26106,3.320288185958593,0.14089407641406979
9.263443999999998,3.3070648766665935,0.14138455146101378
9.265827999999996,3.297194142561369,0.14172375816265073
9.268223999999998,3.282527811030393,0.14221478602702026
9.270611999999998,3.2665110050590584,0.14278121420044546
9.272995999999996,3.2526360694610004,0.14325996268381744
9.275391999999998,3.2343376234895285,0.14392964895999913
9.277779999999998,3.2108242712117243,0.14479836791714834
9.280163999999996,3.1930376819194506,0.1454725621690338
9.282559999999998,3.1848422874786797,0.14584410272219078
9.284947999999998,3.1845155263967158,0.14596183549378594
9.287331999999996,3.18470062199395,0.14610229441769182
9.289727999999998,3.1873996750167986,0.14619869755002457
9.29212,3.194242699159341,0.1461419870398196
9.294503999999998,3.201505032182464,0.14603381787046277
9.2969,3.2118404011386423,0.14580766822573296
9.299288,3.219754360467823,0.14570192126901949
9.301667999999998,3.2293908812897008,0.14555791102597296
9.304072,3.243031603604412,0.14526863912655824
9.306456,3.256812095545983,0.14495780838638128
9.308835999999998,3.270872126741275,0.14461345128822212
9.311236,3.286794489056124,0.14421825121504564
9.313619999999998,3.298153571370698,0.14403181060877707
9.316,3.3130975462975245,0.1437487667392017
9.318404,3.329531765291571,0.14337340350246164
9.320792,3.345034818725839,0.14302992947055926
9.323171999999998,3.3596067066003283,0.14269950143631419
9.325568,3.3783225655945124,0.14220290452495235
9.327956,3.3931739927227222,0.14185237521633232
9.330335999999996,3.399365390559207,0.1417855042303095
9.332731999999998,3.3976881550368847,0.14197885585448228
9.335119999999998,3.3950797539547835,0.14219974130737717
9.3375,3.395404619178878,0.14232461102931318
9.339895999999998,3.391725282910139,0.14258661670620462
9.342283999999998,3.39405224888065,0.1426424487088809
9.344664,3.3994522507842166,0.14259184650642875
9.347067999999998,3.4089962238074767,0.14239562845488574
9.349455999999998,3.4176090312709597,0.14222451880595577
9.351836,3.4263616083613013,0.14204185577260275
9.354231999999998,3.4360453510114217,0.1418335248778185
9.356619999999998,3.4446581584749043,0.1416645554723322
9.359004,3.4515484044456897,0.1415314474599786
9.361399999999998,3.464072865603389,0.14117040013059065
9.363787999999998,3.4751543045221114,0.1408148341884539
9.366168,3.484745499373615,0.14054555133596594
9.368572,3.4949883205311765,0.14028402806548934
9.370955999999998,3.5115169831817092,0.13980458368740545
9.373336,3.524972609899186,0.13942880230290025
9.375735999999998,3.5344240351238296,0.13917417140026958
9.378123999999998,3.5458775610948896,0.1388524963469811
9.380504,3.562406223745422,0.13836158508709595
9.382899999999998,3.58214769195587,0.13775507829759215
9.385287999999996,3.602308469046899,0.137116038051094
9.387683999999998,3.625030425391786,0.13635488375555554
9.39008,3.644539576176756,0.13573404677922474
9.392464,3.6609756910286717,0.13521964400802242
9.394843999999996,3.6715452732681975,0.1348676991554964
9.397248,3.682394394761442,0.13448672646298218
9.399636,3.6916607243888513,0.13412507495615805
9.402019999999998,3.7070731258823724,0.13359103577270176
9.404416,3.7244876281223096,0.13300144762926272
9.4068,3.7408311951756077,0.13244560872646483
9.409179999999996,3.7522393951762947,0.13202770114582346
9.41158,3.764718530363619,0.1315786378859956
9.413968,3.7817609455512184,0.130974543474069
9.416347999999996,3.799222669619398,0.13033488649266703
9.418748,3.813331818500803,0.1298172016757301
9.421136,3.8317247081287613,0.12917368878791655
9.423515999999998,3.8544013385032736,0.12839261777215952
9.42592,3.879219839251063,0.1275539680994161
9.428308,3.901244843319517,0.1267805853127369
9.430687999999998,3.9191258762682772,0.12612444594718059
9.433084,3.9327231684704844,0.12559748519693836
9.435472,3.942548576605335,0.12521866540803878
9.437855999999998,3.948789092127932,0.12490265807542103
9.440252,3.954098442090751,0.1246045866423332
9.44264,3.964343159106182,0.1241831025362242
9.445019999999998,3.972446005748335,0.12382422201717333
9.44742,3.97919837795013,0.12352447769751707
9.449808,3.9767316423527586,0.12347963081152515
9.452191999999998,3.971052101195471,0.12353247576474442
9.454588,3.9660241863442423,0.12359394061714103
9.456976,3.966163955971102,0.12358049768760176
9.459359999999998,3.963882315970965,0.12365903874542716
9.461756,3.9550352952241363,0.12394380351013567
9.464144,3.946839900783366,0.12423234853906971
9.466523999999998,3.939994980782954,0.12446145596618671
9.46892,3.929937255222627,0.12478044280438061
9.471308,3.9206709255952177,0.12508970882670264
9.473687999999996,3.907120855221255,0.12552161529443634
9.476083999999998,3.8968761382058243,0.1259180263239154
9.478471999999998,3.8907753923100867,0.12620557923139034
9.480868,3.888958387160904,0.1263720620368537
9.483264,3.891844431638856,0.12637902671011872
9.485652,3.8969648942887023,0.12638427141653202
9.488032,3.90702072399116,0.1262783121565192
9.490432,3.917216323320479,0.12616347574519832
9.492816,3.9323472897024097,0.12593988348889257
9.4952,3.952553392763811,0.12559956792731844
9.497596,3.974761596571631,0.12520370810010778
9.499984,4.003115872245562,0.12465904428210602
9.502363999999998,4.034822723106268,0.1240208863125399
9.50476,4.061222119862024,0.12346158775851925
9.507143999999998,4.091905257364335,0.12279083818935796
9.509527999999998,4.124078638933864,0.12204233826684907
9.511924,4.1523875886374215,0.12137317690736606
9.514312,4.179485833527479,0.12075059306791604
9.516708,4.207515243977316,0.12011377976511935
9.519104,4.233402784053873,0.11953991129580854
9.521492,4.26171173375743,0.11887822644179086
9.523876,4.282152050102179,0.11837938505213821
9.526272,4.2992397912601525,0.11798286561098838
9.52866,4.3132544964850705,0.1176639745675503
9.53104,4.322985460963435,0.11746181054297936
9.533436,4.331552942456542,0.11723053817804023
9.535824,4.333182956150622,0.1171524959368829
9.538208,4.3326710994714235,0.11713198535207614
9.540604,4.3295055157397515,0.1171471109373084
9.542992,4.320473399395689,0.11728005929120719
9.545376,4.314793858238401,0.11731706768714067
9.547779999999998,4.303387554095584,0.11745699639964943
9.550164,4.289187753273432,0.11763850147718345
9.552548,4.278200758011196,0.11773908559749749
9.554944,4.265351431629402,0.11786524902537927
9.557332,4.2574374723002215,0.11789312372690454
9.559716,4.251805152971178,0.11785789098344776
9.562111999999996,4.246312603268994,0.1178109539517639
9.5645,4.24203075838031,0.11772646641297821
9.56688,4.240030553491762,0.11757982812890518
9.569279999999996,4.237750809349494,0.1174559444411138
9.571664,4.245109481886973,0.11710352065327252
9.574048,4.254749794424589,0.11668849045754931
9.576444,4.2665319773354815,0.11622344337261403
9.578832,4.284460232112485,0.11563353893333818
9.581216,4.305181983568824,0.11500685142165464
9.583612,4.324972569465384,0.11437886855335822
9.586,4.342900824242388,0.11377551739572779
9.58838,4.36148070532545,0.11318426503355972
9.590776,4.37992081678165,0.11259641246253993
9.593164,4.3939374178644375,0.11212507584148725
9.595544,4.409536810813061,0.11164513768957227
9.597944,4.425136203761685,0.11116751709778655
9.600332,4.439385122269949,0.11074224978637882
9.602716,4.4513524007780765,0.11038067914723558
9.605112,4.45903593853965,0.11012588678867612
9.6075,4.466300167420643,0.10990573105192018
9.60988,4.474355792234553,0.10968422287870154
9.61228,4.478267445928769,0.10955197021325995
9.614668,4.480037229249708,0.10947048379785114
9.617052,4.484600509249984,0.10934966060479533
9.619444,4.484740278876845,0.10933856002725759
9.621832,4.485019818130565,0.10931650842268158
9.624228,4.483948882943927,0.10934020836304839
9.626623999999998,4.4816672429437885,0.10939704406221662
9.629015999999998,4.477103962943514,0.10950987891921526
9.631396,4.481200712234965,0.1094923200222823
9.633791999999998,4.4908844548850855,0.10940316689411618
9.636179999999998,4.498566096788788,0.10934843934191413
9.63856,4.510391709812187,0.10921399358625099
9.640955999999996,4.527432229141917,0.10897777144426345
9.643343999999995,4.545683453285147,0.10870929040266636
9.645728,4.563235829294075,0.10849344186635078
9.648123999999996,4.581719370862781,0.10826656987420524
9.650511999999996,4.602065243551044,0.10801478551194549
