Time,Force,Position
9.305536,0.07946767302084354,0.0
9.30794,0.07537092372939277,0.0
9.310328,0.07765256372953006,0.0
9.312708,0.08035351261024795,0.0
9.315104,0.08249538298352499,0.0
9.317492,0.08170398705060689,0.0
9.319872,0.0818437566774671,0.0
9.322272,0.08384585742388394,0.0
9.32466,0.08677912373007912,0.0
9.32704,0.09022424671547198,0.0
9.329436,0.09189958637992528,0.0
9.331824,0.09492540048473751,0.0
9.33422,0.09459863940277392,0.0
9.33662,0.09198243429475332,0.0
9.339004,0.0884350636269544,0.0
9.341388,0.08581885851893378,0.0
9.343784,0.08213171822427465,0.0
9.346172,0.08315543158267004,0.0
9.348552,0.08025968722092902,0.0
9.350948,0.07415113729927242,0.0
9.353336,0.06911352256425435,0.0
9.355716,0.0651468430158748,0.0
9.358112,0.05852643641502048,0.0
9.3605,0.05269742574708428,0.0
9.36288,0.04621678877309019,0.0
9.36528,0.0397361517990961,0.0
9.367668,0.033395284451962215,0.0
9.370048,0.026123251545050012,0.0
9.372444,0.018990988264998017,0.0
9.374832,0.013069429798444766,0.0
9.377228,0.008638115399110672,0.0
9.379624,0.0031358658131380498,0.0
9.382012,0.00177758734685934,0.0
9.384392,0.00177758734685934,0.0
9.386788,0.00177758734685934,0.0
9.389176,0.00177758734685934,0.0
9.391556,0.00177758734685934,0.0
9.393952,0.0,0.0
9.39634,0.0,0.0
9.398724,0.0,0.0
9.401128,0.0,0.0
9.403516,0.0,0.0
9.405896,0.0,0.0
9.408292,0.0,0.0
9.41068,0.0,0.0
9.413064,0.0,0.0
9.41546,0.0,0.0
9.417848,0.0,0.0
9.420228,0.0,0.0
9.422628,0.0,0.0
9.425016,0.0,0.0
9.427396,0.0,0.0
9.429792,0.0,0.0
9.43218,0.0,0.0
9.43456,0.0,0.0
9.436956,0.0,0.0
9.439344,0.0,0.0
9.44174,0.0,0.0
9.444136,0.0,0.0
9.446524,0.0,0.0
9.448908,0.0,0.0
9.451304,0.0,0.0
9.453692,0.0,0.0
9.456072,0.0,0.0
9.458468,0.0,0.0
9.460856,0.0,0.0
9.46324,0.0,0.0
9.465636,0.0,0.0
9.468024,0.0,0.0
9.470408,0.0,0.0
9.472804,0.0,0.0
9.475192,0.0,0.0
9.477572,0.0,0.0
9.479968,0.0,0.0
9.482356,0.0,0.0
9.484736,0.0,0.0
9.487132,0.0,0.0
9.489524,0.0,0.0
9.491904,0.0,0.0
9.4943,0.0,0.0
9.496688,0.0,0.0
9.499072,0.0,0.0
9.501468,0.0,0.0
9.503856,0.0016378177199991295,0.0
9.50624,0.004811205477591328,0.0
9.508636,0.014687847750865892,0.0
9.511024,0.02721632121874596,0.0
9.513408,0.0458417488666244,0.0
9.515804,0.07298554032149869,0.0
9.518196,0.10827560853103137,0.0
9.520576,0.14984962237566574,0.008145704164189693
9.522972,0.19500663297468396,0.016785853141397314
9.52536,0.25054433850025465,0.02495850695171349
9.527744,0.31525203413887914,0.03297613153605115
9.530136,0.3838222657856078,0.04124354245881484
9.532524,0.45774527750765986,0.04950068322173154
9.534916,0.537393156357373,0.05782425638988119
9.537312,0.6212756582675276,0.06640911025344379
9.539696,0.7146076895444565,0.07478365402028651
9.542092,0.814083896829627,0.08311780066236829
9.544496,0.9167710138168438,0.09160469953688931
9.546884,1.0223895012523865,0.1002902856405567
9.54926,1.1295888846958961,0.10930260324052615
9.551664,1.2448795190399011,0.11806173433054919
9.554052,1.3677592474889935,0.12649011841997562
9.556428,1.4856582829150993,0.13485320258975328
9.558832,1.6070515590127108,0.14288148641491524
9.56122,1.7226274201840441,0.1508675826350328
9.5636,1.8283344431080228,0.15895663759926393
9.566,1.926546815583401,0.16704853409255518
9.568388,2.0194064079834555,0.16695528752014002
9.570768,2.111104413256124,0.16620781276065077
9.573172,2.1924217236022394,0.16592783316805298
9.57556,2.2645690438353014,0.16580288280143374
9.57794,2.336298951045652,0.1653223593402094
9.580344,2.4025363085538194,0.1648720622905191
9.582728,2.461186467814769,0.16442816803260235
9.585108,2.514391299201778,0.16380122345881898
9.587512,2.561079867528208,0.16325351949785394
9.5899,2.6061403180184275,0.1625907306468499
9.59228,2.649852189926158,0.16170810819026013
9.59468,2.6894219865720634,0.160698367385288
9.597068,2.729133448702698,0.15931392417269932
9.599444,2.7581846766530598,0.15821602712910512
9.601852,2.780113341207159,0.15736385780571432
9.604236,2.8031129409478965,0.1564810496889117
9.606616,2.817172972143189,0.15602898062978535
9.60902,2.829370672218924,0.15564716082759905
9.611404,2.842918846735018,0.1551623822812992
9.613784,2.8536735245717773,0.1547803987380196
9.616188,2.8633572672218977,0.1544571877637681
9.618576,2.871271226551079,0.15429800010274347
9.620952,2.87932495550712,0.15411956162436008
9.623364,2.8881700803960797,0.15392627533623707
9.625748,2.8974345141656195,0.15368813492299715
9.628128,2.9104236101742726,0.15332281740707288
9.630528,2.930210404355094,0.15270135067569934
9.632912,2.954700248163051,0.15183335775911888
9.635292,2.9741149552915354,0.1511851043298245
9.6377,2.986080337941794,0.1507949927019947
9.640088,2.9959038502187747,0.15050686653972917
9.642468,3.009731563988589,0.1500607732920002
9.644876,3.0207657810790685,0.14970835241291308
9.64726,3.030868832609771,0.1493807675524561
9.64964,3.036688143393918,0.14925128894572745
9.652036,3.036221612685094,0.1494030420077144
9.654424,3.039991600894581,0.14944949166283994
9.656804,3.044925072089324,0.1495228735955319
9.659212,3.0549336799635394,0.14938573906940264
9.6616,3.071088359703865,0.14899095035917437
9.663984,3.088825831310027,0.14857087321243484
9.666388,3.106842842169909,0.14811846362653858
9.66878,3.1245803137760713,0.1477020674899339
9.671164,3.140734993516397,0.14731184903112202
9.673576,3.150231744711414,0.1471585224390992
9.675964,3.1561436032941783,0.14711241669807368
9.678344,3.1580512603841084,0.1472205399898374
9.680756,3.153253767100487,0.14763788152093307
9.683144,3.1516690793767825,0.1479189415133111
9.68552,3.1528778883324113,0.14811478717220858
9.687936,3.154878093220959,0.14829805105903315
9.690324,3.15487619736309,0.1485551776646725
9.6927,3.1607408341176115,0.14860514806700062
9.695096,3.1714010682978846,0.14849798500676714
9.697484,3.1815494457989595,0.1483600055676818
9.699864,3.200405074420003,0.1478370197605386
9.70226,3.222892817481543,0.1471509889911195
9.704648,3.248733135729859,0.14632328757783972
9.707028,3.2648424894998103,0.1458262491481847
9.709444,3.2757369369634306,0.1455374035946379
9.711828,3.2850485925612136,0.14527023297715602
9.714208,3.2978053711443893,0.14493866742164704
9.716608,3.3147061208472595,0.14446606685756103
9.718996,3.3336089712965467,0.1439298687753846
9.721372,3.3570278799178648,0.1432773222487172
9.723776,3.3828209763379373,0.1426021428385902
9.726164,3.4091259294372076,0.14195548276818953
9.728548,3.442508119962367,0.14106932894545784
9.730944,3.4752386841814684,0.14018932189560557
9.733332,3.505967147654153,0.13936109158238538
9.735712,3.538046085567197,0.13846893963106807
9.738108,3.5721271242266575,0.13752842872655788
9.740496,3.600621169527448,0.1367558159266648
9.742876,3.6232486822158476,0.136157289375657
9.745272,3.6494610875165003,0.13546963673699816
9.74766,3.6677576376301033,0.1351079613278987
9.75004,3.6788371806909574,0.13499102183809755
9.75244,3.688194162259114,0.13491014480423782
9.754824,3.700856497185804,0.13477411017532198
9.757204,3.715520932858911,0.13457401323254387
9.75962,3.7351207355846294,0.1342361650324212
9.762004,3.7475507530858416,0.13405479799184025
9.764388,3.7541142379746644,0.1340414330738934
9.766792,3.7585358524902097,0.1341025305185174
9.76918,3.7592328047666412,0.13425336841991534
9.77156,3.7576953388711782,0.13441226206546877
9.773956,3.7517815844305447,0.134655920181744
9.776344,3.7392099014446027,0.13506996160272283
9.778724,3.728872636630555,0.13546853545763832
9.781124,3.7225395733093416,0.13575104754181427
9.783508,3.7151355748014883,0.1360667182989953
9.785892,3.7047983099874404,0.1364579275755306
9.788288,3.696183606666089,0.1368196814988434
9.790676,3.6903624000240725,0.13712086152660075
9.793056,3.687474459688251,0.13733877890890944
9.79546,3.693433540099259,0.13724704891543613
9.797844,3.6986012245773483,0.13715928415800543
9.800228,3.7036291394285774,0.13708723459397942
9.802624,3.712009629466582,0.1368951698349481
9.805012,3.7166654572654734,0.13678701793647854
9.807392,3.713592421332418,0.1368792991575771
9.809788,3.715314982825114,0.1368503902957123
9.812176,3.720762206556924,0.13673554651447273
9.81456,3.7257901214081537,0.13666126748752955
9.816964,3.7337513025655777,0.13650609644841344
9.819352,3.739570613349725,0.13642225517428405
9.821736,3.747392024880289,0.1362759709238347
9.824132,3.760009033836605,0.13600061522758103
9.826516,3.767039049434251,0.13586142351742797
9.8289,3.7752797698453953,0.13567589930093693
9.831296,3.781937698390704,0.13550618534070352
9.833684,3.7879440006299543,0.13532925870606155
9.836064,3.792227741376508,0.13518283804672748
9.83846,3.7986533524963395,0.13496502873463795
9.840844,3.8014940710039173,0.13482341572323508
9.843224,3.7952554513391896,0.13494347954195846
9.845636,3.79581452984663,0.1348880033313284
9.848024,3.7942317379807937,0.13490230328226893
9.8504,3.788784514248984,0.13501433135986118
9.852796,3.7904145279430637,0.13492455013910282
9.85518,3.7960487431299765,0.1347223616400229
9.857556,3.7978185264509166,0.1346181847757931
9.859972,3.7978657482791593,0.1345424551645166
9.862356,3.798611818241704,0.13439697077109597
9.864736,3.7954934563382747,0.13434938297977592
9.867136,3.79530836074104,0.13422388681425113
9.869524,3.800198401823278,0.13395320530029828
9.871904,3.8032261117859605,0.13372620553064943
9.874296,3.813331059174531,0.13330209987824446
9.876684,3.8182211002567694,0.1330361712290013
9.879064,3.824693933204844,0.13275682029401015
9.88148,3.8342398020859734,0.13239222450319701
9.883864,3.8428545054073253,0.1320447697126857
9.886244,3.8513294391018165,0.13171637897471583
9.888648,3.859944142423168,0.1313757353173679
9.891036,3.8737737520508513,0.1308813597222244
9.893416,3.884018469066283,0.1304605320562151
9.895812,3.8981276179476874,0.12995202490472177
9.8982,3.9162409683219255,0.12934147761112744
9.90058,3.927416850897134,0.12890814547328108
9.90298,3.936590632725926,0.1285262777926622
9.905368,3.948557911234053,0.1280861356304335
9.907748,3.958383319368903,0.1277076368795684
9.91014,3.9730043249295046,0.12722880396187605
9.912528,3.989767200863383,0.1266777862375436
9.914924,4.003736580117928,0.12618226592617968
9.91732,4.014772693066276,0.12576775311623356
9.919704,4.026320662693823,0.12537489835583301
9.922084,4.029720459708842,0.12519490311668885
9.924488,4.0346105007910795,0.12494197023194677
9.926876,4.039919850753899,0.12465176246471656
9.929256,4.041876625529942,0.12446981763981707
9.93166,4.047558062545098,0.12421536089949035
9.934044,4.051796477321278,0.12396060722644126
9.936424,4.055475813590018,0.12375737543860219
9.93882,4.05673374023176,0.12364228215364587
9.941204,4.056641192433142,0.12358310527588894
9.94358,4.051101420902716,0.12361720555801481
9.945976,4.045282110118569,0.12367497037684862
9.948364,4.044118627133313,0.12364628673433388
9.95074,4.043886309707836,0.12360014388362459
9.953136,4.04407330116294,0.12351635510771905
9.955524,4.047473098177958,0.12334277684048478
9.957904,4.047799859259922,0.123247506982961
9.960316,4.051711512954139,0.12309902203101249
9.9627,4.059487598514329,0.12287234929764598
9.96508,4.061909008141326,0.12278899723537784
9.967492,4.065820661835542,0.12264051228342934
9.96988,4.0758783873958695,0.12234114866461678
9.97226,4.090312401501368,0.12198830859813864
9.974664,4.106608746726424,0.12161093019404973
9.977052,4.12169438713798,0.12126768478465529
9.979428,4.133567221989622,0.12101103978323685
9.981832,4.144741208706962,0.12081614566334817
9.98422,4.156194734678022,0.12059590441555726
9.9866,4.165506390275805,0.12043006678910737
9.988996,4.176959916246865,0.12020626016547252
9.991384,4.193209039643677,0.11988730263441
9.993764,4.2077356015477925,0.11959222049471628
9.996168,4.220120293078631,0.11935576725821234
9.998552,4.232225445355748,0.1191429876710146
10.000936,4.240558713565511,0.11906450357264826
10.003336,4.245399636961636,0.1190967192158721
10.005724,4.247679381103904,0.11922373757168171
10.008104,4.252240765246309,0.11928105573721999
10.0105,4.256662379761854,0.11935061485983166
10.012884,4.268021462076429,0.11927288046758283
10.015264,4.28017194032392,0.11919549092238264
10.017656,4.288969843384638,0.11921198795082145
10.020044,4.2941828538331,0.1192783340051592
10.02244,4.296322828348508,0.1194125459538334
10.024844,4.303817478797109,0.11941498218768955
10.027232,4.315316330738543,0.11933567032997955
10.029612,4.32630332600078,0.11923564486981217
10.032016,4.337150551636156,0.11914685177559396
10.0344,4.354423388391363,0.11890175566677766
10.03678,4.374489721825905,0.11861988078260054
10.039176,4.393205580820088,0.1183902754357579
10.04156,4.413644001306968,0.11814643450881648
10.04394,4.435572665861068,0.11784499826060431
10.046332,4.460714135975082,0.11747179465593488
10.04872,4.493352152395567,0.11692830263172459
10.051112,4.532415779935883,0.11623986514244458
10.053508,4.573109421170279,0.11547574030040977
10.055892,4.606586055351924,0.11487272215922364
10.058272,4.639411063227511,0.11426994060920793
10.060676,4.672515610356819,0.11366034199476116
10.063064,4.698962228940818,0.11315208106958968
10.065444,4.73183445864465,0.11251133175262694
10.067848,4.76470668834848,0.11187244102308641
10.070232,4.796647752492533,0.1112442913583858
10.072616,4.827937190330528,0.11062339777686231
10.07502,4.858714771489325,0.10999621774634771
10.077404,4.89028374858104,0.1093660474012508
10.079788,4.926276236046169,0.10864719375313847
10.082188,4.956262421272048,0.1080371644991655
10.084576,4.978519742765981,0.10754132037514273
10.086956,4.999194272394075,0.10704854990361098
10.089352,5.015212974223279,0.1066129001635409
10.091736,5.030020971238985,0.1062112336747139
10.094116,5.042315010829076,0.10582860041151067
10.09652,5.047811352246997,0.10554817552681306
10.098908,5.050374427358724,0.10531409245850583
10.101288,5.05414820728395,0.1050507811150848
10.103684,5.060343396836172,0.10472562360253831
10.106072,5.066259047134676,0.1044218482526739
10.108448,5.069381200753844,0.10415221636209071
10.110856,5.077950578104822,0.10382780906494894
10.11324,5.078092243589552,0.10365628920796802
10.115624,5.078233909074281,0.10348486962333393
10.118024,5.07823580493215,0.10332245264233295
10.120412,5.076747456722798,0.10320983042912367
10.122792,5.0729774685133115,0.1031465192829022
10.125196,5.070278415490463,0.10306357973918244
10.12758,5.0583602546684485,0.1031285231943724
10.129964,5.047233489779353,0.10319416577919843
10.13236,5.0410420919428685,0.10318983123326948
10.134744,5.034431385225804,0.1032149972912437
10.137124,5.03261627593449,0.10317824326700231
10.139528,5.033874202576232,0.10309135120468095
10.141916,5.035643985897171,0.10302345173449362
10.144296,5.038205165151029,0.1029545098392942
10.1467,5.0366223732851925,0.10295576637968201
10.149084,5.0326181717923575,0.10301635991169669
10.151464,5.030476301419082,0.10305591195425925
10.153868,5.0233990639931925,0.10316683155839543
10.156256,5.014040186567166,0.10332826326075005
10.158636,5.002307121342384,0.10349071640739989
10.16104,4.995137336117877,0.10355414312449729
10.163424,4.986896615706734,0.1036378523811322
10.165804,4.982799866415283,0.10365036440801412
10.168204,4.976840786004275,0.10368345341863515
10.170588,4.971021475220128,0.1037066906008124
10.172968,4.968135430742177,0.1036891205162744
10.17536,4.974328724436531,0.10353311554813904
10.177748,4.983734823690801,0.10331892525262876
10.180124,4.992861383691349,0.10312500968710409
10.182528,5.004549122945756,0.10286373992074035
10.184912,5.0133035958939685,0.10264253629759675
10.187292,5.0169829321627075,0.10249952317469153
10.189688,5.01879993731189,0.10237605278259893
10.192072,5.0236899783941285,0.10220495045489207
10.194452,5.034446552088757,0.10195666190707878
10.196864,5.050418032089717,0.1016253176989703
10.199252,5.063316476157622,0.10134293289908473
10.201628,5.08142982653186,0.10097240178766255
10.204032,5.102476443212294,0.10056183457688354
10.20642,5.125245621385424,0.10014292535600483
10.2088,5.145733159558415,0.09977314701412215
10.211204,5.171016295157161,0.09935023389531719
10.213588,5.1907124373972335,0.09898598662799218
10.215968,5.20947741407753,0.09862814329211869
10.218372,5.231175657064021,0.09823726886522167
10.22076,5.2431429355721475,0.09796634209549093
10.22314,5.252176947774079,0.09773677478651908
10.225544,5.260279794416234,0.09751866872415374
10.227928,5.266008453259633,0.0972993988045242
10.230308,5.271737112103032,0.09708205027239805
10.2327,5.2806785765063475,0.09681251622379855
10.235088,5.295254256096575,0.09643880929902565
10.237484,5.312251345313801,0.0960134410054104
10.23988,5.32724633378461,0.0956170177251151
10.242264,5.337725264083387,0.0952550043168526
10.244648,5.341406496209996,0.09496970712153024
10.247052,5.3453672675903245,0.09466573233578357
10.249436,5.349607578224374,0.09434609833983265
10.251816,5.355338132925643,0.0939859284268148
10.254212,5.361348226880632,0.09361044312696773
10.2566,5.368569025649119,0.09320939878101701
10.25898,5.3724844710590745,0.0928167878139497
10.261384,5.379984809081283,0.09240173225660768
10.263768,5.390697952663406,0.09193792833776017
10.266148,5.393682232513584,0.09155050005089299
10.268552,5.40374374978965,0.09107125556936946
10.27094,5.414084806319436,0.09057823923478714
10.27332,5.424705402102942,0.09007164448784992
10.275716,5.439330199379283,0.08952057535434227
10.278104,5.451673356655486,0.08901090998031037
10.280484,5.460152082065715,0.08853990260699297
10.28288,5.461925657102393,0.08818063220306703
10.285268,5.463559462512211,0.08783197745570262
10.287648,5.464401871989111,0.08748136082810053
10.290044,5.470179648518624,0.08708149361487523
10.292432,5.482615353593443,0.08662792765534749
10.294828,5.497704785720738,0.08616481886615557
10.297232,5.510512577847897,0.0857416924110843
10.299616,5.518245233295582,0.08537662585659758
10.301996,5.524627414302909,0.08504434068057033
10.3044,5.531800991243153,0.08471526089092155
10.306788,5.5374843241161775,0.08442588383114497
10.309168,5.543167656989204,0.08413792022650281
10.311564,5.5502940121012045,0.08386513148551906
10.313952,5.564078295758515,0.08353989361046599
10.316332,5.579445371281661,0.0832229606122339
10.318728,5.591040562737451,0.08298095152632907
10.321112,5.6010057404991604,0.08278688984726759
10.323492,5.609201134939933,0.08264896421036429
10.325888,5.618327694940481,0.082504899970103
10.328276,5.631690773859341,0.08235668431010143
10.330656,5.6470559535246165,0.0821862011863824
10.33306,5.660651349868955,0.08207107870519298
10.335444,5.674618833265631,0.08198243555770764
10.337824,5.68374349740831,0.08198307411531662
10.340228,5.689795125617935,0.08201779238505176
10.342612,5.6937048834542825,0.08207999702059166
10.344992,5.703993030582217,0.08211071176234651
10.347396,5.721450962934658,0.08211288865171984
10.349784,5.739979830473739,0.08210201304091948
10.352164,5.756227058012682,0.0821257488652554
10.354568,5.774057077417461,0.08215376345414971
10.356952,5.790676392008741,0.08220329390456735
10.359332,5.80250010917427,0.08228833440918766
10.361736,5.8133926607800195,0.0823790474217544
10.36412,5.8221433420124935,0.08249597283963081
10.3665,5.833035893618243,0.0825861010760559
10.368896,5.842997279664216,0.08268155101416258
10.37128,5.854588679404267,0.08273238915993887
10.373676,5.865900539890598,0.08279858975438573
10.37608,5.874558673324454,0.08287323642459475
10.378464,5.890014504930479,0.08289465471699949
10.380844,5.9050982494841655,0.08289001930611695
10.38324,5.926467835530825,0.08281626791329283
10.385628,5.947605104152004,0.08270753461574071
10.388008,5.9638070057205725,0.08264003763608299
10.390412,5.979217511356224,0.0825697874459904
10.392796,5.984245426207453,0.08256784444868398
10.395176,5.98596798770015,0.08256475819747754
10.39758,5.986759383633068,0.08256707555487276
10.399968,5.989832419566123,0.08253570541228052
10.402348,5.990531267700424,0.08249732864755283
10.404752,5.994442921394641,0.08242031553029223
10.407136,6.001427611021912,0.08231184300600466
10.409516,6.006410199902767,0.08222177740187755
10.411912,6.009949766544646,0.0821195003371498
10.414296,6.016190282067245,0.08196183241522643
10.41668,6.0257833727766155,0.08175880605655446
