Time,Force,Position
8.899000000000001,0.014166322307472994,0.0
8.901395999999998,0.018077976001689634,0.0
8.903796,0.027645095491632812,0.0
8.906184,0.03707244535471579,0.0
8.908563999999998,0.045428860031160236,0.0
8.91096,0.05378527470760468,0.0
8.913348,0.060930984570550385,0.0
8.915728000000001,0.06672621999313713,0.0
8.918128,0.07166158704574917,0.0
8.920516,0.07545472172191905,0.0
8.922895999999998,0.07703751358775528,0.0
8.925291999999999,0.08227367050290119,0.0
8.927675999999998,0.08457656111185193,0.0
8.930056,0.0855289772804437,0.0
8.932459999999999,0.08411003040302814,0.0
8.934847999999999,0.08376201871225111,0.0
8.937228000000001,0.08234307183483552,0.0
8.939623999999998,0.07999295939764164,0.0
8.942011999999998,0.07964494770686462,0.0
8.944392,0.07964494770686462,0.0
8.946795999999999,0.07687552638909009,0.0
8.949183999999999,0.06931050764556378,0.0
8.95156,0.05974338815562057,0.0
8.953968,0.050316038292537606,0.0
8.956356,0.04195962361609316,0.0
8.958735999999998,0.033603208939648715,0.0
8.961132,0.02645749907670301,0.0
8.963519999999999,0.020662263654116258,0.0
8.965900000000001,0.014867028231529505,0.0
8.9683,0.011073893555359603,0.0
8.970683999999999,0.00849146369268844,0.0
8.973068000000001,0.00325530677754253,0.0
8.975463999999999,0.0009524161685917891,0.0
8.977851999999999,0.0,0.0
8.980232,0.00072009874311452,0.0
8.982631999999999,0.0034422982326458907,0.0
8.985015999999998,0.006304267349037471,0.0
8.987411999999999,0.009306006092289263,0.0
8.989816000000001,0.014309845581957907,0.0
8.9922,0.015449253205653057,0.0
8.99458,0.015449253205653055,0.0
8.996987999999998,0.017519826389126525,0.0
8.999372000000001,0.02052156513237832,0.0
9.001752,0.021381433502353046,0.0
9.004148,0.025034798551662737,0.0
9.006532,0.03176119953402781,0.0
9.008912,0.038487600516392884,0.0
9.011308,0.04107003037906404,0.0
9.013692,0.041070030379064044,0.0
9.016072,0.041070030379064044,0.0
9.018476,0.041070030379064044,0.0
9.020864,0.041070030379064044,0.0
9.023243999999998,0.041070030379064044,0.0
9.025644,0.041070030379064044,0.0
9.028032,0.04034993163594953,0.0
9.030411999999998,0.03762773214641815,0.0
9.032808,0.03476576303002658,0.0
9.035192,0.031764024286774786,0.0
9.037588,0.02676018479710614,0.0
9.039991999999998,0.025620777173410988,0.0
9.042376,0.02562077717341099,0.0
9.044756,0.023550203989937523,0.0
9.047152,0.020548465246685733,0.0
9.049536,0.019688596876711,0.0
9.051916,0.01603523182740131,0.0
9.054312,0.009308830845036236,0.0
9.0567,0.0025824298626711613,0.0
9.059079999999998,0.0,0.0
9.061476,0.0,0.0
9.063859999999998,0.0,0.0
9.066256,0.0,0.0
9.068652,0.0,0.0
9.071036,0.0,0.0
9.07342,0.0,0.0
9.075824,0.0,0.0
9.078208,0.0,0.0
9.080592,0.0,0.0
9.082996,0.0,0.0
9.08538,0.0,0.0
9.08776,0.0,0.0
9.090156,0.0,0.0
9.092544,0.0,0.0
9.094924,0.0,0.0
9.09732,0.00137172504917242,0.0
9.099708,0.00367461565812316,0.0
9.102092,0.0059775062670739,0.0
9.104488,0.00814062724916443,0.0
9.106872,0.011234913791033281,0.0
9.109255999999998,0.017402236265957514,0.0
9.111652,0.0295758609801323,0.0
9.114036,0.040678550507668554,0.0
9.116432,0.050850074475426485,0.0
9.118828,0.059019497696767564,0.0
9.121216,0.06718892091810866,0.0
9.1236,0.07414763932595099,0.0
9.125992,0.08511055922662704,0.0
9.12838,0.09728418394080182,0.0
9.13076,0.10852664309519829,0.0
9.133156,0.12191097262287182,0.0
9.135544,0.13250180547121038,0.0
9.13794,0.145234508692826,0.0
9.140336,0.15675650710094288,0.0
9.142724,0.1661366351357827,0.0
9.145104,0.17214293737503325,0.0
9.1475,0.17628690849472717,0.0
9.149888,0.18029110998756087,0.0
9.152268,0.1855060162938933,0.0
9.154664,0.18871882185380887,0.0
9.157052,0.1859253251744739,0.0
9.159432,0.17526319513633176,0.0
9.161828,0.16767410103124497,0.0
9.164216,0.15887430211265943,0.0
9.166612,0.1507048788913184,0.0
9.169007999999998,0.14253545566997733,0.0
9.171392,0.13557673726213498,0.0
9.173776,0.12461381736145899,0.0
9.176172,0.1124401926472842,0.0
9.17856,0.10119773349288773,0.0
9.18094,0.0878134039652142,0.0
9.183332,0.07817498728546743,0.0
9.185716,0.06544228406385179,0.0
9.188112,0.0539202856557349,0.0
9.190508,0.045632343416347074,0.0
9.192896,0.03827556673673757,0.0
9.195276,0.03492299154996177,0.0
9.197679999999998,0.030639250803407646,0.0
9.200067999999998,0.02621574042999331,0.0
9.202448,0.01992989893702234,0.0
9.204844,0.0193708204295815,0.0
9.207232,0.018532202668420237,0.0
9.209612,0.015018607245970752,0.0
9.212008,0.013646882196798337,0.0
9.214396,0.013646882196798337,0.0
9.216772,0.013646882196798337,0.0
9.219179999999998,0.013646882196798337,0.0
9.221564,0.013646882196798337,0.0
9.223948,0.014179989484809492,0.0
9.226344,0.014179989484809495,0.0
9.228732,0.014179989484809495,0.0
9.231112,0.013227573316217704,0.0
9.233515999999998,0.013227573316217708,0.0
9.235904,0.013227573316217708,0.0
9.238284,0.012135387520765706,0.0
9.24068,0.012114136911952239,0.0
9.243068,0.009019850370083387,0.0
9.245452,0.0069964990148530665,0.0
9.247848,0.0040419820998444265,0.0
9.250232,0.0040207314910309586,0.0
9.252628,0.001205984202882527,0.0
9.255024,0.0005331072880111577,0.0
9.257412,0.0005331072880111577,0.0
9.259792,0.0005331072880111578,0.0
9.262192,0.0005331072880111578,0.0
9.26458,0.0005331072880111578,0.0
9.26696,0.0005331072880111578,0.0
9.269364,0.0005331072880111578,0.0
9.271752,0.0,0.0
9.274131999999998,0.0,0.0
9.276528,0.0,0.0
9.278916,0.0,0.0
9.281299999999998,0.0,0.0
9.283696,0.0,0.0
9.286084,0.0,0.0
9.288464,0.0,0.0
9.29086,0.0,0.0
9.293247999999998,0.0,0.0
9.295628,0.0,0.0
9.298023999999998,0.0,0.0
9.300415999999998,0.002210342810333681,0.0
9.302796,0.006422786367084212,0.0
9.3052,0.011706165110473274,0.0
9.307588,0.01899164460027919,0.0
9.309968,0.02641689371694531,0.0
9.312364,0.033842142833611435,0.0
9.314752,0.04126739195027756,0.0
9.317136,0.05162590737313885,0.0
9.319532,0.06570908503511343,0.0
9.32192,0.079792262697088,0.0
9.3243,0.09666893703839755,0.0
9.326695999999998,0.10847047470023484,0.0
9.32908,0.12013224273521193,0.0
9.331476,0.1297919100237722,0.0
9.333872,0.13744947656591558,0.0
9.33626,0.1421737768018638,0.0
9.338639999999998,0.14782924259759034,0.0
9.341044,0.15334493876645666,0.0
9.343428,0.1557875990022676,0.0
9.345807999999998,0.1562281584916617,0.0
9.348212,0.154017815681328,0.0
9.3506,0.14980537212457748,0.0
9.35298,0.1445219933811884,0.0
9.355376,0.13723651389138253,0.0
9.35776,0.12981126477471638,0.0
9.36014,0.12238601565805031,0.0
9.362544,0.11496076654138418,0.0
9.364932,0.10460225111852288,0.0
9.367311999999998,0.0905190734565483,0.0
9.369716,0.07643589579457374,0.0
9.372104,0.0595592214532642,0.0
9.374484,0.04775768379142689,0.0
9.376888,0.03609591575644979,0.0
9.379276,0.026436248467889542,0.0
9.381656,0.018778681925746145,0.0
9.384052,0.014054381689797927,0.0
9.386436,0.008398915894071384,0.0
9.38882,0.0028832197252050503,0.0
9.391224,0.00044055948939409945,0.0
9.393608,0.0,0.0
9.395988,0.0024426602358109503,0.0
9.398392,0.0039541549118435795,0.0
9.40078,0.0045344840280978896,0.0
9.40316,0.006185748330990729,0.0
9.405556,0.006905847074105249,0.0
9.407944,0.006905847074105251,0.0
9.410324,0.009628046563636621,0.0
9.41272,0.009628046563636621,0.0
9.415108,0.009628046563636621,0.0
9.417488,0.009628046563636621,0.0
9.419888,0.009628046563636621,0.0
9.422276,0.009628046563636621,0.0
9.424656,0.009628046563636621,0.0
9.427052,0.009628046563636621,0.0
9.42944,0.009628046563636621,0.0
9.431819999999998,0.009628046563636621,0.0
9.434216,0.009628046563636621,0.0
9.4366,0.009628046563636621,0.0
9.438996,0.009628046563636621,0.0
9.441392,0.014767863964426992,0.0
9.443776,0.027286637548518067,0.0
9.44616,0.05027865385777868,0.0
9.448556,0.08085786841425682,0.0
9.45094,0.11157495673972595,0.0
9.453319999999998,0.14387294107316204,0.0
9.455724,0.1797751727697954,0.0
9.458112,0.2229165910228693,0.010784996854716044
9.460492,0.2811630044384439,0.02041860929238786
9.4629,0.34541382423539974,0.029916825782766908
9.465284,0.4139464889210406,0.03944860678248037
9.467664,0.4840600496146484,0.04946086072478545
9.470068,0.5618533563540908,0.059378271577950274
9.472456,0.646023156527252,0.06923597361372531
9.474832,0.7355457367757365,0.07899010759209277
9.477239999999998,0.8302813274726842,0.08868465186675674
9.479624,0.928040836416575,0.09867617996662877
9.482008,1.0373445232722738,0.10831449631330056
9.484412,1.1558654220692692,0.11763117527311615
9.486795999999998,1.2811367972101906,0.12665660938895923
9.48918,1.397264153457488,0.13593458621736287
9.491575999999998,1.4984022088075837,0.14546598062650498
9.493963999999998,1.594281927738843,0.15467562824960146
9.496348,1.6880216721546946,0.16365534909131943
9.498744,1.7864191402273066,0.17230853700558385
9.501128,1.8907322585984216,0.18055850613145652
9.503508,1.996584738722868,0.18855377173804339
9.505904,2.0916844368684244,0.18578096499149807
9.508292,2.1689068937809584,0.1844777697639772
9.510672,2.241567966551088,0.183292229888996
9.513068,2.313811626298505,0.18189624525530704
9.515456,2.3914118578369847,0.1797088006725307
9.517836,2.4634742137029066,0.17751135713002358
9.520232,2.533676134307141,0.1752311726851828
9.52262,2.601179001888527,0.17298003962786268
9.525,2.662397923834811,0.1708366574415237
9.527396,2.7250164379075668,0.16819043876278703
9.529784,2.775439147762456,0.16589202261721253
9.532168,2.8129199834369354,0.16403323435967518
9.534564,2.8433708035137686,0.1625010242760416
9.536952,2.8796881562029926,0.1606560568040777
9.539348,2.921173193370305,0.15855767175137533
9.541747999999998,2.95423051867137,0.1569569737081799
9.544135999999998,2.9817008506137657,0.15563624139452276
9.546516,3.00288534106319,0.1546969125616796
9.548912,3.0170851418853424,0.15421597674059614
9.5513,3.022857230841246,0.15416323331566442
9.553684,3.0303518812898464,0.15405878907050385
9.556079999999998,3.0485558836048323,0.15339594477493054
9.558464,3.064665237374784,0.15274656715874546
9.560844,3.0769101592787624,0.15227406979193372
9.563247999999998,3.078213411890878,0.15228147217268367
9.565636,3.074581297450382,0.15249753238961766
9.568016,3.064570793718298,0.15292748497617886
9.570412,3.05055608849338,0.15352780030500143
9.5728,3.044270247000409,0.15381250280468786
9.57518,3.0312792551338865,0.15442884091558387
9.577583999999998,3.021873155879617,0.15492842648063287
9.579971999999998,3.0236410433426872,0.15505309616081542
9.582352,3.030204528231509,0.1550107531745845
9.584751999999998,3.0376991786801093,0.1549431200353315
9.587136,3.0477077865543243,0.15482536618521966
9.58952,3.06400223592151,0.1544455391631926
9.591916,3.0817869293559155,0.15396773229235383
9.594304,3.099059766111123,0.153461374479403
9.596684,3.115541206933413,0.15295882965394803
9.599084,3.140962216301148,0.1521202307797845
9.601472,3.1654520601091054,0.15131640822426598
9.603852,3.185797932797368,0.15071205285815914
9.606248,3.210520094030802,0.15001421153185035
9.608636,3.233332702316436,0.14944733966794074
9.61102,3.263594635080297,0.14864406958520915
9.613416,3.301585431576105,0.14759072523693423
9.615804,3.3406471632585513,0.14647414463095176
9.618184,3.381059369381356,0.14526171795259482
9.620584,3.4113213021452173,0.14446074258613334
9.622972,3.448520702708107,0.1434170291736634
9.625352,3.4839975417783,0.14244402353135965
9.627755999999998,3.5095110989446523,0.1417669303937546
9.630144,3.5267839356998603,0.1413150159548522
9.632524,3.5419149020817904,0.1409546530704981
9.634923999999998,3.557465177344301,0.1405594647328659
9.637311999999998,3.573015452606812,0.14017607351830616
9.639692,3.585352922309408,0.13990870617694431
9.642088,3.6002043494376177,0.13959839685582284
9.644476,3.6207825395513575,0.13913219992828707
9.64686,3.638008154478322,0.13881342371951824
9.649256,3.6535112079125898,0.13852390269493153
9.65164,3.6642186639211056,0.138364135006068
9.654024,3.6681284217574532,0.13840084837513333
9.656424,3.6727370277281017,0.13836013838776082
9.658808,3.675111215526856,0.13833336777218302
9.661192,3.669896309220524,0.13850969492356058
9.663588,3.664681402914191,0.13868704526196382
9.665976,3.6599783532870562,0.13888532875627987
9.668371999999998,3.6623525410858107,0.1388585763728254
9.670768,3.6602106707125333,0.13893404458844458
9.673156,3.650991562913368,0.1392367901690371
9.675536,3.6421445421665384,0.13958256717127088
9.677931999999998,3.639256601830717,0.13981974016706378
9.680319999999998,3.6351579566813976,0.1401126477021015
9.6827,3.629336750039381,0.1404339937745231
9.685095999999998,3.6195113419045306,0.1408810831309046
9.687484,3.6132708263819335,0.14124970762163352
9.689864,3.6042368141800023,0.1416920915951788
9.692263999999998,3.590686743806039,0.14223137596427451
9.694648,3.577835521566376,0.14268764210666898
9.697032,3.5667068608194104,0.1431146530648814
9.699428,3.5620963589908916,0.14337749851293205
9.701812,3.561862145707545,0.14355243361750733
9.704211999999998,3.566842838730531,0.14354857362261225
9.706604,3.5698214310070995,0.14360713753601517
9.708992,3.5753139807092835,0.14362347299322012
9.711376,3.583180718210221,0.14361276116306892
9.713772,3.5942602612710743,0.14348967764662768
9.71616,3.6029656165331745,0.14339727540437214
9.71854,3.6115312021684134,0.1433196076650314
9.720948,3.6311782267223753,0.14290438990342733
9.723336,3.653618747955672,0.14241349921016952
9.725715999999998,3.673824851017075,0.1419377131611321
9.728112,3.697011442212916,0.14130612365596368
9.7305,3.720849659714815,0.140691526284413
9.732879999999998,3.744548107589854,0.1400782950222139
9.73528,3.7699691169575886,0.1394423431942538
9.737668,3.8004652630047966,0.13865943246226964
9.740047999999998,3.832032344238642,0.1378450732949356
9.742444,3.8573135839795167,0.13723062121320584
9.744832,3.881523888533753,0.1366487830737661
9.747212,3.9046632579013507,0.13611600270965127
9.749607999999998,3.9275703098434716,0.13554020910405498
9.751995999999998,3.9506171314124523,0.13497669936128967
9.754376,3.976457449660767,0.13435569222018387
9.756771999999998,4.001226832722445,0.13376299204998385
9.75916,4.025344589478064,0.13317001458404717
9.761544,4.042944187315235,0.1327232481101218
9.763939999999998,4.058541684405989,0.13233273026784204
9.766327999999998,4.074139181496744,0.13194221242556226
9.768708,4.084102463400585,0.1317515523802061
9.771107999999998,4.094485054185006,0.13152316263244887
9.773495999999998,4.105286953850009,0.13125690173683488
9.775892,4.111525573514737,0.13114723556304303
9.778292,4.112037430193935,0.13116690667210545
9.78068,4.112549286873133,0.1311866397385375
9.783064,4.1078934590742415,0.1312870374010973
9.78546,4.094717371610484,0.13158251449429176
9.787848,4.0795391834003105,0.1319311059535814
9.790228,4.06957590149647,0.1321286040987643
9.792624,4.060823324406127,0.13227967691902812
9.795012,4.048625624330391,0.13248589588083645
9.797392,4.035496758694878,0.1327103803614156
9.799788,4.016361590820114,0.13309138208643825
9.802176,3.993082451825656,0.13359400136870672
9.80456,3.972364492085055,0.133988632440681
9.806956,3.9508551364115365,0.1343872081315659
9.809344,3.93428114779063,0.13465947267048076
9.811728,3.9184985551026417,0.13492584353129783
9.814124,3.9019245664817355,0.1351997559404374
9.816512,3.8831161596889356,0.13548695884464504
9.818896,3.865658227336494,0.1357056685279116
9.821292,3.8487121516632503,0.13594099963488243
9.82368,3.8372605215500597,0.1359968158085357
9.826059999999998,3.832094732929839,0.13586927443169802
9.828456,3.831072915429314,0.13562388725769917
9.830844,3.834567156100819,0.13529326712962936
9.833224,3.8437881597578545,0.13482590272533695
9.83562,3.855011264161306,0.13430571854275083
9.838008,3.8650236637512596,0.13383488326844395
9.840404,3.8789004952071866,0.13328143536007556
9.8428,3.89491919703639,0.13266147650045979
9.845188,3.9132195388657314,0.13197225791050973
9.847568,3.9325908158817113,0.1312438702912411
9.849968,3.957456538457744,0.13034475745197432
9.852352,3.9812513258471376,0.12948666502892187
9.854736,4.002392386184058,0.1286666268912525
9.857132,4.02181088502828,0.12788169333558863
9.85952,4.041508923126224,0.12707255100498402
9.861904,4.060415565291249,0.12626345585886645
9.8643,4.085048970441805,0.1253315942422473
9.866684,4.107912592271421,0.12450804394845057
9.869068,4.12905365260834,0.12370927857383664
9.871464,4.1449798066389265,0.12305878195735473
9.873852,4.157553385482737,0.12251769355346043
9.876231999999998,4.169335568393631,0.12198950284572514
9.878628,4.1766016931324925,0.12153420179700543
9.881016,4.18694085380441,0.12101178332341933
9.883412,4.1943467481701315,0.12055123248713501
9.885808,4.199890311416297,0.12012194491525799
9.888196,4.20063827723671,0.11979268209264177
9.89058,4.199616459736184,0.11955373643336076
9.892979999999998,4.1949625277951625,0.11943911852429505
9.895368,4.190960222160197,0.11933257647238842
9.897748,4.184536506898236,0.11930729530471215
9.900144,4.176762317195914,0.11933500646911252
9.902532,4.171222545665488,0.11936381688257497
9.904916,4.162981825254343,0.11950091207745225
9.907312,4.157394831895673,0.11959863030779197
9.9097,4.155113191895536,0.11966795841622402
9.91208,4.147756415215927,0.11985443587710343
9.914476,4.137885681110703,0.12006652309116563
9.916864,4.1305289044310936,0.12025355854368303
9.919244,4.126896789990597,0.12037570218824954
9.921644,4.125918402602576,0.12046128341398889
9.924032,4.124380936707112,0.12059487514702028
9.926416,4.126288593797043,0.12068917693367737
9.928812,4.122701805326922,0.12093522156378568
9.9312,4.124841779842329,0.12107334971119699
9.933584,4.13070641659685,0.12114860613500968
9.93598,4.1372226796574285,0.12123216933519246
9.938372,4.145880813091285,0.12125904088446302
9.940752,4.157611982458198,0.12121374182390886
9.94316,4.170414087011748,0.1211406634097422
9.945548,4.180282925259101,0.1211266397059907
9.947924,4.19401619537243,0.12103753010772292
9.950332,4.213104141418952,0.12081508802480027
9.952716,4.239548864145082,0.12041727917129033
9.955096,4.261989385378379,0.12010781345535773
9.957491999999998,4.283638510678758,0.11980539360326307
9.959879999999998,4.311154168591526,0.11939245825631009
9.96226,4.342674027997129,0.1188979213177942
9.964655999999998,4.372471325910035,0.11842490094579272
9.967044,4.402268623822941,0.1179598452993754
9.969424,4.428061720243014,0.1175731160236581
9.971828,4.453854816663086,0.11718814169165188
9.974215999999998,4.4828607186430744,0.1167351502063985
9.976596,4.511354763943865,0.11625421680884682
9.978991999999998,4.536915542938462,0.11583783832795028
9.981379999999998,4.565549357866112,0.1153708097127705
9.98376,4.593252007233984,0.11491422546376194
9.986164,4.624586771042352,0.11436315126056092
9.988552,4.653407577425106,0.1138345804726263
9.990932,4.681436987874942,0.11331126969840115
9.993327999999998,4.712399664630972,0.11273388535437792
9.995715999999998,4.741639779894307,0.11218128535943715
9.998096,4.762731722545114,0.11179153715101221
10.000492,4.775675492583394,0.11156121568924186
10.00288,4.792623464114508,0.11126034307697566
10.00526,4.81078214045912,0.11092994584587329
10.007663999999998,4.827358024937896,0.1106118307465192
10.010051999999998,4.842862974230032,0.11032033410258481
10.012432,4.856505592402613,0.11005103256198387
10.014828,4.862559116470106,0.10988615890232942
10.017212,4.8754575605380115,0.10955744923276563
10.019596,4.8867732127400805,0.10923226837920165
10.021992,4.893153497889538,0.10899038884185351
10.02438,4.904469150091608,0.10867015311436862
10.02676,4.915133175987619,0.10834283677099905
10.029156,4.91993066927124,0.10810865032866492
10.03154,4.9257990977415,0.10785211201121932
10.033936,4.926173080651706,0.1077147620533013
10.036336,4.929061020987526,0.10756403653950178
10.038723999999998,4.9358133931893216,0.10736115196652284
10.041104,4.940563664644699,0.10718998306913233
10.043499999999998,4.946524640913576,0.1069902676150099
10.045884,4.9587714586754235,0.10667700876838512
10.048268,4.974231081997186,0.10629838623143058
10.050664,4.98396394233342,0.1059956736182373
10.053052,4.992486097856154,0.10572612910667595
10.055432,4.995933116699416,0.10553957358137338
10.057828,4.997378034796262,0.10538429514807732
