Time,Force,Position
11.515784,0.08303188827481675,0.0
11.518172,0.08018336574131887,0.0
11.520552,0.07519297283454396,0.0
11.522948,0.06941118399485091,0.0
11.525336,0.06390893440887828,0.0
11.527716,0.06012924631560209,0.0
11.53012,0.05448722710276926,0.0
11.532508,0.046703337516659366,0.0
11.534888,0.04078177905010611,0.0
11.537292,0.031135558344439575,0.0
11.53968,0.02134956801191283,0.0
11.54206,0.012494743239164406,0.0
11.544456,0.0036399184664159807,0.0
11.546844,0.0,0.0
11.549224,0.0,0.0
11.55162,0.0,0.0
11.554008,0.0,0.0
11.556388,0.0,0.0
11.558792,0.0,0.0
11.56118,0.0,0.0
11.56356,0.0,0.0
11.565956,0.0,0.0
11.568344,0.0,0.0
11.570724,0.0,0.0
11.57312,0.0,0.0
11.575508,0.0,0.0
11.577888,0.0,0.0
11.580292,0.0005668825333605992,0.0
11.58268,0.0005668825333605992,0.0
11.58506,0.0005668825333605992,0.0
11.587464,0.0005668825333605992,0.0
11.589852,0.000993995439860988,0.0
11.592232,0.000993995439860988,0.0
11.594628,0.004354374652556549,0.0
11.597012,0.00864591942503043,0.0
11.599396,0.016801896063477803,0.0
11.601792,0.026959973448342025,0.0
11.60418,0.03925992120648331,0.0
11.60656,0.05449313527081977,0.0
11.608964,0.06893495340223811,0.0
11.611348,0.08565841153379372,0.0
11.613732,0.1013109344787108,0.0
11.616128,0.11789462298340622,0.0
11.618512,0.13154504518190646,0.0
11.620892,0.14305359700712963,0.0
11.623288,0.1545621488323528,0.0
11.625676,0.16178695991102188,0.0
11.628056,0.16644278770991347,0.0
11.630452,0.17287620285566438,0.0
11.63284,0.17865799169535743,0.0
11.635224,0.18737304684124564,0.0
11.63762,0.1927277227744383,0.0
11.640008,0.19799765493493368,0.0
11.642388,0.19697394157653828,0.0
11.64478,0.19408789709858626,0.0
11.647168,0.18640625519488244,0.0
11.649548,0.1762481778100182,0.0
11.651944,0.16394823005187692,0.0
11.654328,0.14871501598754047,0.0
11.656708,0.13427319785612213,0.0
11.659124,0.11754973972456653,0.0
11.661508,0.10189721677964944,0.0
11.663892,0.08531352827495403,0.0
11.666288,0.07166310607645376,0.0
11.668676,0.06249122010553078,0.0
11.671056,0.053319334134607786,0.0
11.673452,0.04964189372373766,0.0
11.675844,0.04782678443242417,0.0
11.678224,0.045732135887390266,0.0
11.68062,0.04815354551438775,0.0
11.683008,0.04657075364855152,0.0
11.685388,0.047781458462050265,0.0
11.687784,0.04815354551438774,0.0
11.690172,0.05024819405942165,0.0
11.692552,0.053925634470291785,0.0
11.694948,0.0574633052543017,0.0
11.697336,0.06254624595969369,0.0
11.699716,0.06469592035889052,0.0
11.702116,0.0649832636385307,0.0
11.704504,0.0649832636385307,0.0
11.706884,0.0649832636385307,0.0
11.70928,0.06527060691817088,0.0
11.711668,0.06527060691817088,0.0
11.714048,0.06527060691817088,0.0
11.716448,0.0629339410638707,0.0
11.718836,0.06059727520957052,0.0
11.721216,0.05704990454177159,0.0
11.723612,0.053642303500832884,0.0
11.726,0.04930353690011585,0.0
11.72838,0.04110033843342533,0.0
11.730796,0.03396807515337334,0.0
11.733184,0.026975581500181544,0.0
11.735564,0.021333562287348715,0.0
11.73796,0.016902247888014622,0.0
11.740348,0.01181930718262263,0.0
11.742728,0.007807301663869171,0.0
11.745128,0.0027243609584771777,0.0
11.747512,0.0005746865592803577,0.0
11.749896,0.00028734327964017887,0.0
11.752292,0.00028734327964017887,0.0
11.75468,0.00028734327964017887,0.0
11.757064,0.0,0.0
11.75946,0.0,0.0
11.761848,0.0,0.0
11.764232,0.0,0.0
11.766628,0.0,0.0
11.769016,0.0,0.0
11.771396,0.0001947954810231195,0.0
11.773796,0.00019479548102311947,0.0
11.776184,0.00019479548102311947,0.0
11.778564,0.0001947954810231195,0.0
11.78096,0.0001947954810231195,0.0
11.783348,0.0001947954810231195,0.0
11.785732,0.0001947954810231195,0.0
11.788128,0.0001947954810231195,0.0
11.790516,0.002950770215903931,0.0
11.792896,0.006777680137423272,0.0
11.795292,0.008602489312525764,0.0
11.79768,0.013500334420683635,0.0
11.800064,0.018398179528841506,0.0
11.802476,0.026369060570054764,0.0
11.804864,0.03699366866374277,0.0
11.807244,0.04948060787698741,0.0
11.80964,0.05889451115717667,0.0
11.812028,0.070450284810643,0.0
11.814408,0.08172651921038891,0.0
11.816804,0.09207158805035649,0.0
11.819192,0.10236163103616117,0.0
11.821576,0.11377763506276728,0.0
11.823972,0.1219808335294578,0.0
11.82636,0.1301840319961483,0.0
11.82874,0.1414602663958942,0.0
11.83114,0.1524569615419197,0.0
11.833524,0.1602408511280296,0.0
11.835904,0.1720289422069732,0.0
11.8383,0.17505475631178544,0.0
11.840688,0.17607846967018084,0.0
11.843068,0.17710218302857625,0.0
11.845468,0.1729109900806392,0.0
11.847856,0.16801314497248132,0.0
11.850236,0.16004226393126808,0.0
11.852636,0.14941765583758004,0.0
11.855024,0.1369307166243354,0.0
11.857404,0.12751681334414613,0.0
11.8598,0.1159610396906798,0.0
11.862192,0.10468480529093391,0.0
11.864572,0.09433973645096633,0.0
11.866968,0.0838548979841385,0.0
11.869356,0.07243889395753239,0.0
11.87174,0.06429072134500477,0.0
11.874136,0.056087522878314235,0.0
11.876528,0.044811288478568335,0.0
11.878908,0.03381459333254285,0.0
11.881308,0.026030703746432956,0.0
11.883696,0.014242612667489354,0.0
11.886076,0.008460823827796312,0.0
11.888472,0.003610200547881589,0.0
11.890864,0.0007616780143837184,0.0
11.893244,0.0015530739473018289,0.0
11.89564,0.0018404172269420073,0.0
11.898032,0.0018404172269420073,0.0
11.900412,0.0018404172269420077,0.0
11.902808,0.0022675301334423967,0.0
11.905196,0.0026946430399427857,0.0
11.90758,0.0031217559464431746,0.0
11.909976,0.0031217559464431746,0.0
11.912368,0.005690739226220624,0.0
11.914748,0.007049017692499333,0.0
11.917144,0.007049017692499334,0.0
11.919532,0.006993991838336425,0.0
11.921916,0.008072731050894713,0.0
11.924312,0.011153571009869854,0.0
11.926704,0.016236511715261845,0.0
11.929084,0.02374086204765132,0.0
11.93148,0.03431824831309617,0.0
11.933868,0.04289353383212418,0.0
11.936252,0.05267952416465092,0.0
11.938648,0.06474715449731494,0.0
11.941036,0.07503719748311961,0.0
11.94342,0.08942398976037505,0.0
11.945832,0.10093064572772897,0.0
11.94822,0.11415796732991013,0.0
11.9506,0.13207674281756773,0.0
11.953,0.1630752662546265,0.0
11.955388,0.20664168096188873,0.008572938566344567
11.957768,0.2613879905545413,0.016791734631450037
11.960168,0.3185913358607763,0.02534175311131483
11.962556,0.3826830312799278,0.03417003266438036
11.964936,0.4549741334500313,0.04326626011228765
11.967332,0.5390417309574201,0.052129240247821375
11.96972,0.6334349975371986,0.06075516966341919
11.9721,0.7362068582971127,0.06913721300141051
11.974516,0.8429338028637482,0.0776391505918377
11.976904,0.9515665086624449,0.08642402931142464
11.979284,1.0628963716261208,0.09544311000753751
11.98168,1.1874929739943014,0.10430117591456975
11.984068,1.3166962864752614,0.11325648960871454
11.986448,1.452508409815417,0.12213547239968266
11.988844,1.5987937758807425,0.1309456267321215
11.991232,1.755739376126341,0.13952357632189835
11.993612,1.9305168916345876,0.14777961695682396
11.996008,2.113397253784988,0.15577348324689114
11.998396,2.2930686020912114,0.1636411349379951
12.00078,2.4561225316640236,0.17152420527557263
12.003176,2.6070278788472128,0.17079107585734207
12.005564,2.7514169629698233,0.1703271091893729
12.007944,2.89236281996491,0.16951004412546833
12.01036,3.0294008149815186,0.16830752691906506
12.012748,3.159644903541697,0.16676520259815572
12.015128,3.274527604152337,0.16553875577483027
12.017524,3.3740942427838125,0.1647382564469424
12.019912,3.46388459096655,0.16425889912520203
12.022292,3.551442416835263,0.16355680787958415
12.024692,3.636023546285276,0.16250488257595744
12.02708,3.7101786548383626,0.16134544147824897
12.029464,3.7700886365989232,0.1605160069112193
12.03186,3.8289295790307145,0.15951616670300622
12.034248,3.880183323215289,0.1585973416552654
12.036632,3.918217549823601,0.1577810536128937
12.039028,3.935815251802903,0.15735753179095932
12.041416,3.9367464173626816,0.1573283955074949
12.0438,3.9280863880709562,0.15760872813017635
12.0462,3.918959828070407,0.15800284607690623
12.048588,3.9125795429209496,0.15839535002361776
12.050968,3.902055286651798,0.15894985055263566
12.053364,3.881939835531143,0.15982577055988928
12.055752,3.8657813640750787,0.16061400541149068
12.058136,3.855255211948058,0.16134785263985776
12.060532,3.8464043994854915,0.16211109168173984
12.06292,3.8395556877693404,0.16281919084408564
12.06532,3.834896068254711,0.16338146244080723
12.067716,3.830143900941463,0.1638825385732953
12.070104,3.82203915844144,0.16451751565127304
12.072488,3.8155172078072543,0.16511767748704134
12.074888,3.8190057609051515,0.16538068178797416
12.077276,3.8269650462047067,0.16539159414170707
12.07966,3.825892215160199,0.16564004044559574
12.082056,3.8278924200487463,0.16577780135186546
12.084444,3.838225893147056,0.16575511526411174
12.086828,3.856241008149069,0.16556044732692665
12.089224,3.871462626471747,0.1654351524061605
12.091608,3.8861723881152277,0.16529067036861075
12.093988,3.9016735456916267,0.16513595808328596
12.096392,3.9223423877461148,0.1648673468287173
12.09878,3.949017532039853,0.16439030967664023
12.10116,3.981466661147365,0.16363689363096853
12.103556,4.006001830925696,0.16302592909302624
12.105944,4.0214123365613474,0.16261247465021317
12.108324,4.038824942943414,0.16214359508458273
12.11072,4.061033146751234,0.16153690774834867
12.113108,4.086174616865248,0.16083818696635857
12.115492,4.106008632874313,0.16025351400214774
12.117888,4.1309177855628505,0.15951063231617763
12.120272,4.157130190863503,0.15879552325561272
12.122656,4.180781416910298,0.15822555494403606
12.125052,4.207086370009569,0.15761775994287103
12.12744,4.241027639042169,0.1567369997015562
12.129836,4.267659353223403,0.15603464201215367
12.13224,4.287912678113049,0.15549164769348678
12.134624,4.312589513376109,0.1548117088749806
12.137004,4.347696161251835,0.1538139017953052
12.139404,4.384432822821639,0.15273571876030564
12.141792,4.422147871779465,0.1515931164426176
12.144172,4.456697337005618,0.1505110867335644
12.146576,4.487894227044995,0.14954719736885957
12.14896,4.516669707457375,0.1486697169681452
12.151344,4.548610771601428,0.14775271661138165
12.153748,4.583205562797956,0.1467821011795492
12.156132,4.61393592212851,0.14592047575551645
12.158512,4.642105102205205,0.1451736948508317
12.160916,4.671065678214819,0.14442990424550844
12.163304,4.708826053143019,0.14346628001805478
12.165688,4.740487578033351,0.1426250291054115
12.168084,4.766329792139535,0.14186973336807263
12.170468,4.787516178446829,0.14121379060143696
12.172848,4.8006941617684555,0.14075955139124813
12.175252,4.811730274716806,0.14037405545519543
12.17764,4.827050128411707,0.1398657137859689
12.18002,4.841578586173692,0.13935940525551457
12.182416,4.8498212024427065,0.13903014595300778
12.184804,4.850799589830729,0.13895086098926923
12.187184,4.851358668338169,0.13890585351395993
12.189588,4.848704941285694,0.13894792484402888
12.191976,4.843769574233082,0.13905879548819408
12.194356,4.839485833486528,0.13917515557658722
12.196752,4.839066524605947,0.13920876845298572
12.199136,4.839066524605949,0.13920876845298577
12.201516,4.838275128673031,0.13921531441434282
12.20392,4.835900940874276,0.13923520360001596
12.206308,4.832735357142603,0.13926179788532753
12.208688,4.828638607851151,0.13930528231268047
12.211084,4.822819297067004,0.13937006141807215
12.213472,4.814997885536441,0.13948109916205792
12.215856,4.808619496244853,0.13959129714838664
12.218252,4.8038238988191,0.13968987164293928
12.22064,4.807548561058214,0.13962003734672424
12.22302,4.80899158329719,0.13961831381786477
12.225424,4.809084131095807,0.13966703461059024
12.227812,4.813692737066455,0.13964042541724356
12.230192,4.8200239045298,0.13958982693016236
12.232588,4.830126956060501,0.13941004794157724
12.234976,4.841580482031562,0.1391833857305442
12.237356,4.851590985763647,0.13895749082910663
12.239756,4.86281219430923,0.13869167571923205
12.242144,4.875383877295171,0.13837567207695636
12.244524,4.889166265094612,0.13802704827598655
12.246924,4.900946552147636,0.13772400152267614
12.249308,4.913797774387299,0.1373955441601766
12.251692,4.929302723679436,0.13702710374516097
12.254088,4.948811874464407,0.13657622713786738
12.256476,4.96603938524924,0.13618989459245984
12.258856,4.981916421593713,0.13585685057753816
12.261252,5.001518120177301,0.13545716859959755
12.26364,5.024332624320804,0.134982033021867
12.266024,5.049428768464445,0.13444576656502602
12.26842,5.068286292943358,0.13400602576812864
12.270808,5.088634061489492,0.13350827655565634
12.273188,5.109121599662484,0.13300063385994673
12.275592,5.124022144476807,0.13258684284294692
12.277984,5.141344098918126,0.13210529400859028
12.280364,5.156803722239889,0.1316592353828449
12.282764,5.165046338508902,0.13137001473143214
12.285152,5.173521272203394,0.13111508427048238
12.287532,5.181437127390445,0.1309013277242194
12.289932,5.190284148137273,0.13067396514048518
12.29232,5.198060233697463,0.13047605923977273
12.2947,5.206627715190572,0.13027281875294763
12.297104,5.211982391123764,0.1301455674764396
12.299492,5.217988693363015,0.13002448362018404
12.301872,5.219339167803374,0.12997927700834727
12.304268,5.22325082149759,0.12985387039979607
12.306656,5.225579683325971,0.12973812487750783
12.309036,5.226697840340853,0.12965755543013477
12.311436,5.222601091049402,0.1296908900919013
12.313824,5.218644111384811,0.12971332637591051
12.316204,5.219063420265392,0.12968358285776235
12.3186,5.218783881011671,0.12970340134171213
12.320988,5.219016198437148,0.12973857824259166
12.323368,5.224183882915238,0.12968227799312512
12.325764,5.224416200340715,0.12971744496863483
12.328152,5.226371079258889,0.12973414373433823
12.330532,5.2361945915358685,0.12960746920907165
12.332932,5.252303945305821,0.12934991738093032
12.335316,5.270183082396711,0.12902059178285027
12.3377,5.287550362808405,0.1286802815154966
12.340096,5.299982276167486,0.12842745593215643
12.342484,5.316558160646263,0.12809538083393662
12.344864,5.334204980311678,0.12773649247738875
12.347268,5.350688316991836,0.1273591821091818
12.349652,5.37010491997819,0.12693391412603208
12.352036,5.386960343710687,0.12658415464922537
12.354432,5.402325523375964,0.12628358890850044
12.35682,5.416759537481463,0.12599511208759726
12.3592,5.434406357146877,0.1256348933479392
12.361596,5.44576733531932,0.12540430031804925
12.363984,5.452332716066011,0.12525312080227075
12.36638,5.462250671999478,0.12502340834023956
12.368776,5.472867476067247,0.12474705173233301
12.371164,5.483624049761875,0.124464882014184
12.373544,5.498245055322477,0.12412006640439269
12.37594,5.509932794576884,0.1238258949277946
12.378328,5.520829137898373,0.12354003330253889
12.380708,5.522646143047556,0.12341822577582005
12.383112,5.524043839316158,0.1233250511426183
12.385496,5.525161996331039,0.12325096306454437
12.38788,5.531215520398533,0.12309495986708628
12.390276,5.531914368532835,0.1230488645865109
12.392664,5.537269044466027,0.12294119695238678
12.395048,5.541133476331998,0.12288253187952042
12.397444,5.5447183689442525,0.12284292967760577
12.399832,5.549793505623724,0.12275452923199796
12.402216,5.56022331823639,0.12256022340436537
12.404612,5.575868037155386,0.12227172833465906
12.407,5.591512756074383,0.12198547694168113
12.409384,5.6154454172327695,0.12154970938202422
12.41178,5.643941358391428,0.12101427824124579
12.414164,5.6697835724976136,0.12051235203880786
12.416548,5.6944150817903,0.1200432175787202
12.418944,5.715042389590153,0.11963899131973171
12.421332,5.732876200710671,0.11927103001229405
12.423712,5.74977884627141,0.11891175666776563
12.426108,5.760675189592899,0.11864732018710035
12.4285,5.7786487703402765,0.11826501641971118
12.43088,5.797693286274292,0.11786563418905932
12.433276,5.814735701461892,0.11749853959985535
12.435664,5.829264159223877,0.1171503075864661
12.438048,5.8403474940004685,0.11682495589379074
12.440444,5.848125475418528,0.11652252492178912
12.442832,5.859256032023363,0.11615171176269451
12.445216,5.866941465642806,0.11580909011341638
12.447612,5.876629000008665,0.11543777012737028
12.45,5.881381167321912,0.11514095456323963
12.452396,5.88012703239591,0.11493732360501498
12.454792,5.875939631163711,0.11477494067121219
12.45718,5.8678877980655395,0.11466465683952275
12.45956,5.854061980153594,0.11467675056419371
12.461956,5.840748018920846,0.11470308413119296
12.464344,5.825431956941681,0.11475981650812739
12.466728,5.81425986608221,0.11474739251982856
12.469124,5.804018940782518,0.11472417971108596
12.471508,5.799784317722076,0.11461135262597598
12.473892,5.800624831341106,0.11441927239219957
12.476288,5.797740682721023,0.1142699951587676
12.478672,5.791411411115547,0.11414525985886495
12.481052,5.786292844323571,0.11399278647189923
12.483448,5.782757069397429,0.11383653341888757
12.485836,5.787881323763014,0.11356975511806512
12.488232,5.7936572044346555,0.11331080882652719
12.490628,5.79808261066594,0.11308931431298376
12.493016,5.8050219743228375,0.11285418585417845
12.495396,5.811821568352877,0.11263015530253273
12.497792,5.821414659062249,0.112376188217095
12.50018,5.834080785704678,0.11207545941187264
12.50256,5.850751113839939,0.11171879367763236
12.50496,5.8672816723483425,0.11137147540822737
12.507348,5.8902378419765755,0.11091449061738498
12.509728,5.908538183805916,0.11050411354167515
12.512132,5.928561087127954,0.11007980601270886
12.51452,5.945091645636356,0.10972917482453137
12.5169,5.961761973771618,0.10937106665186565
12.519296,5.976430201160463,0.1090472513735012
12.521684,5.993100529295725,0.10870055478499951
12.524064,6.011493418923683,0.10834412171397835
12.52646,6.0293272300442,0.10801811720818143
12.528848,6.046741732284138,0.10771728253250303
12.531244,6.06736904008399,0.10736919662096471
12.53364,6.082269584898313,0.10708722229674088
12.536028,6.098380834526133,0.10678304952283943
12.538408,6.113188831541838,0.10646570892319854
12.540816,6.127205432624626,0.10615023440441257
12.5432,6.139080163334135,0.10587038978188912
12.54558,6.150023728483868,0.10560037905764304
12.54798,6.159896358446962,0.1053482392253375
12.550364,6.166695952476998,0.10513888545764717
12.552744,6.173355776880178,0.10493760596126281
12.555148,6.1769425653503,0.1047793478538579
12.557536,6.186116347179093,0.10456909580591138
12.559916,6.197571769008022,0.10431922647134423
12.56232,6.2123797660237265,0.1040129286249892
12.564708,6.229841490091906,0.10369203580344012
12.567088,6.242088307853754,0.10344379030195068
12.569484,6.249911615242187,0.10326913489573
12.571872,6.258526318563538,0.10309521900740759
12.574252,6.273147324124141,0.1028499149009515
12.576652,6.288979034498241,0.1025815647385831
12.57904,6.29959583856601,0.10238684326279356
12.58142,6.315008240059529,0.10214554553230946
12.583816,6.326928296739414,0.10196695499123005
12.586204,6.341874167524112,0.10179624706260385
12.588584,6.356540499055087,0.10164071153810604
12.590984,6.37199822651898,0.10148510983169484
12.593372,6.388387119542652,0.10132256163273698
12.595752,6.406638343685881,0.10114588185437537
12.598148,6.428102373389026,0.1009248876682955
12.60054,6.450777107905671,0.10068244737080877
12.60292,6.4754539431687315,0.10041960653069851
12.605316,6.499339382498872,0.10015915379250327
12.607704,6.521362490709457,0.09991606972237073
12.610084,6.542454433360264,0.0996832264935719
12.61248,6.560613109704876,0.09948122051465344
12.614868,6.584917857915598,0.09920685724136502
12.617248,6.61071285019354,0.09889537890983692
12.619648,6.6327831802323685,0.09861282127236135
12.622032,6.651640704711282,0.09837678461432106
12.624416,6.670637998817055,0.09813536646227441
12.626812,6.68735365292269,0.09792705971843516
12.6292,6.699133939975714,0.09776960383951686
12.631596,6.710402370349541,0.09759626093884133
12.633992,6.720227778484391,0.09741698250742611
12.63638,6.73168320031332,0.09719545067472585
12.63876,6.7426267654630525,0.09695992474305541
12.64116,6.755572431359202,0.09670577930677154
12.643548,6.766795535762653,0.09645966590607995
12.645928,6.776668165725746,0.09624331070104206
12.648324,6.787192421994897,0.09603585043058896
12.650712,6.7955748078907705,0.09585659461759168
12.653092,6.805028128973283,0.09566524117953733
12.655488,6.817135177108271,0.09546304896102216
