Time,Force,Position
10.976468,0.04545532223473996,0.0
10.978852,0.04155049328553308,0.0
10.981248,0.03564356358990935,0.0
10.983636,0.02573243240145191,0.0
10.98602,0.01875456751918965,0.0
10.988416,0.011776702636927382,0.0
10.990804,0.008942808874359031,0.0
10.993184,0.00596914548493047,0.0
10.99558,0.00499758284191876,0.0
10.997967999999998,0.0029550850122685196,0.0
11.000364,0.0018437527423965992,0.0
11.00276,0.0008721900993848892,0.0
11.005152,0.0008721900993848892,0.0
11.007532,0.0008317930161514998,0.0
11.009928,0.0008317930161514998,0.0
11.01232,0.0021754427115006896,0.0
11.014696,0.0013436496953491894,0.0
11.0171,0.0013436496953491894,0.0
11.019488,0.005760335323753761,0.0
11.021868,0.0091060857655198,0.0
11.024271999999998,0.013383001767064162,0.0
11.026656,0.014586881835553142,0.0
11.029036,0.017001466717540863,0.0
11.031439999999998,0.019555821226388794,0.0
11.033827999999998,0.021039240548598192,0.0
11.036208,0.022382890243947382,0.0
11.038612,0.026659806245491746,0.0
11.040995999999998,0.03508069336673002,0.0
11.043376,0.04149947974155144,0.0
11.045771999999998,0.04791826611637286,0.0
11.048156,0.05340588693141596,0.0
11.050536,0.06089560849287591,0.0
11.052939999999998,0.07145836598739123,0.0
11.055327999999998,0.08001902273548973,0.0
11.057708,0.088439909856728,0.0
11.060111999999998,0.09365481616306044,0.0
11.062495999999998,0.10035314179160229,0.0
11.064876,0.10691169779328391,0.0
11.067272,0.10677192816642371,0.0
11.06966,0.10770309372620204,0.0
11.07204,0.10863425928598036,0.0
11.074443999999998,0.11263846077881406,0.0
11.076828,0.11422125264465031,0.0
11.079208,0.11659544044340464,0.0
11.081604,0.12111149861543603,0.0
11.083988,0.12590709604118785,0.0
11.086372,0.12576732641432764,0.0
11.088768,0.11855031936157834,0.0
11.091152,0.11333541305524589,0.0
11.093548,0.10691662668042447,0.0
11.095952,0.10156195074723182,0.0
11.09834,0.0943449436944825,0.0
11.10072,0.08378218619996718,0.0
11.103115999999998,0.07522152945186869,0.0
11.105499999999996,0.06680064233063042,0.0
11.107884,0.06024208632894878,0.0
11.110288,0.053543760700406944,0.0
11.112671999999998,0.04698520469872531,0.0
11.115056,0.04270828869718094,0.0
11.11746,0.03843137269563659,0.0
11.119844,0.0332232911343139,0.0
11.122224,0.02801520957299122,0.0
11.124619999999998,0.02401783282516728,0.0
11.127007999999998,0.019089290517565017,0.0
11.129388,0.01308981302332422,0.0
11.131783999999998,0.006950565902223218,0.0
11.134171999999998,0.0028134195275390673,0.0
11.136552,0.0016095394590500875,0.0
11.138948,0.00040565939056110803,0.0
11.141336,0.00040565939056110803,0.0
11.143716,0.0002727145087106592,0.0
11.146119999999998,0.0,0.0
11.148507999999998,0.0,0.0
11.150888,0.0,0.0
11.153292,0.0,0.0
11.155679999999998,0.0,0.0
11.158056,0.0,0.0
11.160464,0.0006920233892912895,0.0
11.162848,0.0033861475249994297,0.0
11.165231999999998,0.00608027166070757,0.0
11.167636,0.010776496542832562,0.0
11.170024,0.016823195865316505,0.0
11.172403999999998,0.022730125560940236,0.0
11.174808,0.028637055256563966,0.0
11.177196,0.033333280138688956,0.0
11.179576,0.03816927464767416,0.0
11.181979999999998,0.03914083729068586,0.0
11.184368,0.0410435654934759,0.0
11.186748,0.041043565493475896,0.0
11.189144,0.04415699850976467,0.0
11.191532,0.048341366712691965,0.0
11.193912,0.05452783566203612,0.0
11.196308,0.05964336942474174,0.0
11.198696,0.06433959430686674,0.0
11.201076,0.0648918480692978,0.0
11.20348,0.06651503701836742,0.0
11.205868,0.06651503701836743,0.0
11.208248,0.06582301362907614,0.0
11.210644,0.063128889493368,0.0
11.213032,0.06043476535765986,0.0
11.215412,0.05573854047553487,0.0
11.217808,0.04969184115305093,0.0
11.220196,0.043784911457427196,0.0
11.222575999999998,0.037877981761803466,0.0
11.224972,0.033181756879678476,0.0
11.227356,0.028345762370693268,0.0
11.229739999999998,0.02737419972768156,0.0
11.232136,0.025471471524891532,0.0
11.234524,0.025471471524891532,0.0
11.236904,0.02235803850860276,0.0
11.239308,0.018173670305675457,0.0
11.241692,0.011987201356331306,0.0
11.244072,0.006871667593625683,0.0
11.246467999999998,0.0021754427115006896,0.0
11.248855999999998,0.00162318894906961,0.0
11.251236,0.0,0.0
11.253631999999998,0.003345750441766041,0.0
11.256019999999998,0.009904306443447673,0.0
11.258396,0.016462862445129303,0.0
11.260799999999998,0.022090252887032615,0.0
11.263187999999998,0.028648808888714246,0.0
11.265572,0.03800086156973084,0.0
11.267967999999998,0.04535081350433058,0.0
11.270355999999998,0.048417024692376194,0.0
11.272736,0.05041230069378329,0.0
11.275131999999996,0.05361828150868913,0.0
11.27752,0.05896613269687201,0.0
11.279915999999998,0.06538491907169343,0.0
11.282312,0.06994137432695821,0.0
11.2847,0.07328712476872426,0.0
11.287083999999998,0.07784358002398903,0.0
11.28948,0.08118933046575508,0.0
11.291868,0.08374368497460301,0.0
11.294247999999998,0.08736897467008946,0.0
11.296652,0.09206519955221446,0.0
11.29904,0.09447978443420219,0.0
11.301419999999998,0.09261745331464555,0.0
11.303816,0.086611151075395,0.0
11.306204,0.08005259507371336,0.0
11.308583999999998,0.07805049432729651,0.0
11.31098,0.0772590983943784,0.0
11.313368,0.07167210503570848,0.0
11.315747999999996,0.07022908279673247,0.0
11.318148,0.07628260686422617,0.0
11.320536,0.08475754055871737,0.0
11.322915999999998,0.09123037350679171,0.0
11.325316,0.09276783940225403,0.0
11.327699999999998,0.0892301686182441,0.0
11.330083999999998,0.08955692970020765,0.0
11.33248,0.09002346040903145,0.0
11.334863999999998,0.08806858149085774,0.0
11.337248,0.08518253701290572,0.0
11.339643999999998,0.08262818250405779,0.0
11.342028,0.07900289280857133,0.0
11.344423999999998,0.07430666792644634,0.0
11.34682,0.07189208304445861,0.0
11.349208,0.07040866372224922,0.0
11.351587999999998,0.06985640995981814,0.0
11.353984,0.06985640995981814,0.0
11.356372,0.06623112026433169,0.0
11.358755999999998,0.060463960195568156,0.0
11.361152,0.05669890087322149,0.0
11.36354,0.05079197117759775,0.0
11.36592,0.04167223592205843,0.0
11.36832,0.031202026226160164,0.0
11.370708,0.02152321246317999,0.0
11.373088,0.014637895379534785,0.0
11.375483999999998,0.011756779788723281,0.0
11.377871999999998,0.0068735634514949275,0.0
11.380268,0.003061282300905103,0.0
11.382664,0.00045970596381402076,0.0
11.385052,0.00362339383761722,0.0
11.387436,0.015485612228509875,0.0
11.389832,0.03698245558341082,0.0
11.39222,0.07556324838054662,0.0
11.394604,0.12899357244802315,0.0072171087065048475
11.397004,0.19080249069563532,0.014442317519857275
11.399388,0.2633641909221375,0.021600050642906404
11.401763999999998,0.34700353835162395,0.02895823754047578
11.404156,0.4423721592901526,0.036477912257285305
11.406543999999998,0.5560354344844148,0.04369471131741924
11.408936,0.6813826572173454,0.050837374106059395
11.41134,0.8148289348766911,0.05802903396090708
11.413724,0.9544647145146522,0.06543269146207972
11.416099999999998,1.1014534791164845,0.07305871804515578
11.418496,1.2640831709215756,0.0805338388103566
11.42088,1.4444031125045855,0.08773756943715694
11.423272,1.6318909434542324,0.0949974038044711
11.425668,1.8277101467557717,0.1023322023152078
11.428052,2.0340951405810976,0.10972126651200068
11.430431999999998,2.252164081945092,0.11705848695477578
11.432823999999998,2.472521488054233,0.12436571822287723
11.435207999999998,2.6855712351698773,0.1316526248252221
11.437604,2.887683104709397,0.1389314632979571
11.439996,3.0700572977542078,0.14625967110518456
11.442384,3.2358121762077374,0.14646652753640949
11.44478,3.3987282320115586,0.146605053514669
11.447172,3.5519624410231283,0.1467784513756711
11.44956,3.689929705741646,0.1467524213511026
11.45194,3.8075548894876396,0.14671644365904016
11.454332,3.901810282298427,0.14713696896972916
11.45672,3.984893584249744,0.14764818226301793
11.459112,4.059086435341728,0.14812058712648185
11.461508,4.128068171843117,0.1482877166487679
11.463896,4.189604375582019,0.14817596321701507
11.466276,4.230005206557609,0.14841397283823327
11.468668,4.251737400367259,0.1490199187996745
11.471056,4.27025868447486,0.14951542217573854
11.473452,4.278865804364735,0.14995744451186302
11.475856,4.272670614812513,0.1504284003293383
11.478239999999998,4.253580772908122,0.15100497737305793
11.48062,4.231465116898919,0.15159343539465375
11.483024,4.209069921635996,0.15220471344683145
11.485407999999998,4.1877456615597115,0.15277985641986422
11.487788,4.165118148871312,0.15336295752082327
11.490192,4.138533656518321,0.1540248437777506
11.492575999999998,4.101054716701711,0.15496419185608695
11.494956,4.064599490243496,0.1559247908226887
11.49736,4.038060323860881,0.1567008602518812
11.499743999999998,4.02413816643458,0.15718999879713527
11.502124,4.012218109754695,0.1576337723755193
11.504519999999998,4.002672240873565,0.1580401869547095
11.506904,3.99945753945578,0.15835295730852736
11.509284,3.9993611999414247,0.15868860788096004
11.51168,4.003221840091659,0.15897092181105513
11.514064,4.014998335428945,0.15895546372635305
11.516456,4.027333909273671,0.15888242537745448
11.518859999999998,4.036503899386725,0.15885358986502418
11.521247999999998,4.051121113231589,0.15869993416504288
11.523628,4.071465090061982,0.15839069938386946
11.526027999999998,4.092647684653537,0.15799926141737067
11.528415999999998,4.1137377314464745,0.15756172708001126
11.530796,4.141066397904139,0.1570055765231867
11.5332,4.1710015695860365,0.15646948691184806
11.535583999999998,4.205685116865443,0.15586813174567246
11.537964,4.24623519675724,0.15508052315369722
11.540368,4.296004384448202,0.1539871641261323
11.542751999999998,4.344749858780769,0.15287493000832436
11.545132,4.385486930127669,0.15201846777917138
11.54754,4.424361670355013,0.15123652632686532
11.549924,4.467659920955769,0.1502936504595097
11.552303999999998,4.503556068906543,0.14945405460694608
11.554708,4.535262919767249,0.14864436574931597
11.557096,4.563432099843945,0.14785926845272185
11.559475999999998,4.584151955442415,0.14724789236858685
11.561868,4.598865508801635,0.14680129696101746
11.564256,4.614277910295154,0.1462920438468914
11.566636,4.631552642908232,0.14574658697079443
11.569031999999998,4.645754339588252,0.14529700137447216
11.571419999999998,4.661119519253528,0.14487473795993028
11.5738,4.676577246717423,0.14450386149035221
11.576204,4.686727520076368,0.14423091753529776
11.578587999999998,4.689335921158468,0.1440699287924507
11.580968,4.689849673695535,0.14390977326013377
11.583372,4.6898515695534035,0.14373430269396856
11.585755999999998,4.693857666904107,0.1434619260162702
11.588136,4.694139102015698,0.14326672929405568
11.590531999999998,4.690556105261313,0.14315675392767696
11.592916,4.691256849253484,0.1429263226644806
11.595296,4.686882456566182,0.14282357244632074
11.597699999999998,4.684230625371576,0.14269531562390006
11.600087999999998,4.691169989028474,0.14236238799745607
11.602468,4.695687943058374,0.1421114822572901
11.604864,4.6980168048867545,0.14197995020429144
11.607248,4.707515451939643,0.14172512108850674
11.609643999999998,4.7243236538438955,0.14133589406807648
11.61204,4.7392695246285905,0.14098252451795018
11.614423999999998,4.751049811681614,0.14065976971803468
11.616804,4.758965666868664,0.14041826641969768
11.619208,4.761434298323905,0.14027495637888476
11.621591999999998,4.765532943473224,0.14005726435049473
11.623976,4.768420883809045,0.13987743155943314
11.626371999999998,4.76902718414473,0.13976852143119428
11.628756,4.768283010040054,0.13971330764117612
11.631136,4.771915124480553,0.13958878972476113
11.633539999999998,4.771543037428214,0.13956153472889846
11.635927999999998,4.76930861925632,0.13957063708903494
11.638308,4.774011668883455,0.1394189800059532
11.640703999999998,4.776433078510453,0.13933790751346176
11.643091999999998,4.786303812615677,0.13911415801282567
11.645472,4.794172445974484,0.13894066623752016
11.647875999999998,4.797385251534399,0.13885674030673625
11.650263999999998,4.803019466721313,0.13869528562339578
11.652644,4.8104234652291655,0.13844949787100722
11.655039999999998,4.8142425711247645,0.13826313648341862
11.657424,4.813405849221473,0.13816179162122963
11.659819999999998,4.813360523251099,0.13805403727171106
11.662224,4.810893787653727,0.13802345959906936
11.664608,4.8142935846687465,0.13786849840559517
11.666987999999998,4.824863166908271,0.1375998390459264
11.669388,4.835153209894077,0.13735592644324976
11.671776,4.85224095105205,0.1369721611895118
11.674151999999998,4.874264059262634,0.13648047635965121
11.67656,4.899732290458613,0.13594365165193079
11.678944,4.918263053855563,0.13556067806450517
11.681323999999998,4.934931486132956,0.13520973592217764
11.683728,4.954672954343404,0.13478718803254722
11.686116,4.96826835068774,0.1345117777035733
11.688496,4.986007718151772,0.13414210239626964
11.690896,4.995366595577798,0.13392016105178117
11.693284,5.000069645204932,0.13377899361556383
11.695664,5.00249105483193,0.13370281245245924
11.698067999999996,5.000349184458654,0.13375777778480916
11.700456,5.000581501884131,0.1337951163118452
11.702836,5.004538481548721,0.1337672486212662
11.705235999999998,5.012359893079284,0.13366482596908746
11.707624,5.021903866102546,0.13354104482470122
11.710004,5.037174602111337,0.13330968345287628
11.712407999999998,5.0504432373737105,0.13312396066280588
11.714792,5.057752792225077,0.13300874962937775
11.717176,5.0641311815166645,0.132909949291871
11.719571999999998,5.066645138942278,0.13288440068877697
11.721956,5.065154894875059,0.13294121738507475
11.724336,5.064223729315281,0.13295634554377123
11.726732,5.070789110061973,0.13279560747541702
11.729116,5.079868448234278,0.13260971386704354
11.731495999999998,5.089459643085782,0.13244178379639196
11.7339,5.104777600922815,0.13217642745560013
11.736284,5.117022522826793,0.131978829540202
11.738663999999998,5.139277948462856,0.13159082173467
11.741068,5.166840828203869,0.13113334483293188
11.743452,5.197197204624216,0.13063063909225453
11.745831999999998,5.232488948097176,0.1300295658099431
11.748236,5.2664774389580185,0.12942587985425624
11.750624,5.294878936460192,0.12891264893919166
11.753004,5.319695541350113,0.12845170554429172
11.755408,5.344372376613172,0.12800291290489987
11.757792,5.367326650383536,0.12757843123861434
11.760172,5.394704434527316,0.12706124078248576
11.762575999999996,5.424596176096708,0.12652213810053717
11.764964,5.454348148039241,0.12599329872138715
11.767344,5.489547343713582,0.12540080675386076
11.769747999999998,5.529821676067396,0.1247154980738609
11.772132,5.565440180622319,0.12410058917158061
11.774512,5.593981447751352,0.12362314257621992
11.776915999999998,5.621871088574328,0.12314140849028413
11.779303999999998,5.647246771971689,0.12268224644126285
11.781684,5.6661042964506025,0.12231394816226374
11.784079999999998,5.683518798690539,0.12194370031026054
11.786464,5.693995833131447,0.12169482708896655
11.788844,5.7061028812664345,0.12139240401207191
11.791247999999998,5.720491569401559,0.12104295669315468
11.793632,5.733577004924568,0.12068383961963694
11.796012,5.745871044514659,0.12032985533926073
11.798415999999998,5.759236019291388,0.11995290587238297
11.800803999999998,5.7732526203741745,0.11958173932932205
11.803184,5.7856864295911254,0.11921632035131183
11.80558,5.7930451021286045,0.11893474430251919
11.807964,5.791184666866917,0.11881461467621675
11.810344,5.790534936418728,0.11866545075245467
11.812748,5.790956141157178,0.11849601794923935
11.815136,5.782065690297844,0.11844296966329948
11.817512,5.769310807572539,0.11844426569035586
11.819919999999998,5.756416155220371,0.11845531288167459
11.822304,5.745523603614622,0.11843436420075938
11.824684,5.7386352535017044,0.11834838115438098
11.82708,5.729185724134931,0.11833039188415646
11.829464,5.726394123313465,0.11822201960936644
11.831843999999998,5.722112278424781,0.11816079731755806
11.834248,5.721415326148349,0.11806199022757595
11.836636,5.716294863498503,0.11805379369614387
11.839012,5.7058197249154645,0.11814685187498508
11.841416,5.695856443011623,0.11825408963159478
11.843804,5.687196413719897,0.1183728251214944
11.846184,5.680258945920868,0.11847770512081784
11.848584,5.675463348495117,0.11854202649481978
11.850972,5.674671952562197,0.11854433504447234
11.853352,5.682028729241807,0.1184155466977659
11.855755999999998,5.69460041222775,0.1181954051048097
11.85814,5.7040990592806375,0.11802679105452703
11.86052,5.712666540773745,0.11786993563202472
11.862923999999998,5.72882311637194,0.11761565586668532
11.865308,5.747773188649471,0.11732982777278265
11.867688,5.774591894285807,0.11693609801309503
11.870091999999998,5.802201995855063,0.11654181315475827
11.872479999999998,5.824736960744846,0.11623098940107335
11.874856,5.853557767127599,0.11581333832552325
11.877256,5.877722745711462,0.11545269258485517
11.87964,5.9052402994821005,0.11502546361910573
11.88202,5.925028989520793,0.11469689306460865
11.884424,5.9458886147461225,0.11434787790987111
11.886812,5.96809871441181,0.11395906343829104
11.889192,5.989657187771442,0.11356564951526556
11.891588,6.004557732585764,0.1132524897173372
11.893972,6.0177357159073885,0.11295262198875106
11.896356,6.025838562549542,0.11273232722070509
11.898759999999998,6.028866272512223,0.11259250409532272
11.901144,6.029472572847908,0.11250946729492912
11.903524,6.029939103556732,0.11243525610826656
11.90592,6.032407735011972,0.11233190055090816
11.908308,6.035947301653852,0.11221022218523898
11.910688,6.03483104049684,0.11214002410063652
11.913092,6.032783613780049,0.11208018569205111
11.915476,6.022867553704452,0.11212472203965564
11.917856,6.013231032882573,0.11215202303986853
11.920252,6.004665447247334,0.11216128819234994
11.922636,5.99330636493276,0.11219871264856085
11.925032,5.982738678551104,0.11223470581083762
11.927435999999998,5.970960287355949,0.11229619140718632
11.929819999999998,5.9676096080270415,0.11222301433083956
11.9322,5.966400799071412,0.1121144322475157
11.934603999999998,5.969056421981756,0.11196015932235218
11.936991999999998,5.9745055415714345,0.11177899429003044
11.939368,5.98917376896028,0.11146516862309616
11.941764,6.004773161908904,0.1111418146295723
11.944148,6.027589561910277,0.11071459762525873
11.946528,6.048264091538372,0.11031587904908213
11.948931999999996,6.06256023187488,0.10997296460641168
11.95132,6.075925206651609,0.10964087542410897
11.9537,6.088359015868559,0.10931948364375223
11.956103999999998,6.096369314712097,0.10907552661393316
11.958491999999998,6.107033340608108,0.10881079805930241
11.960872,6.114903869824785,0.1085745332881123
11.963264,6.121563694227963,0.10836175861653374
11.965652,6.129014914564059,0.108149358923535
11.968032,6.136326365273295,0.10794533405488506
11.970435999999998,6.142287341542171,0.10777530780530173
11.972823999999996,6.146525756318351,0.10761566845523353
11.9752,6.155187681467946,0.10737911498158705
11.977596,6.1594260962441245,0.10722228208683157
11.97998,6.1608710143409695,0.10709375139505048
11.982376,6.153516133519229,0.10707253039678064
11.984771999999998,6.142017281577795,0.10711222602476245
11.987159999999998,6.12423258814339,0.10724605465350358
11.98954,6.109520930642041,0.1073344473470346
11.991943999999998,6.087592266087941,0.1075242604704223
11.994331999999998,6.075813874892787,0.10757613554355629
11.996712,6.072043886683301,0.10752546831235024
11.999107999999998,6.068134128846953,0.1074827250624407
12.001495999999998,6.065155536570385,0.10743116581082904
12.00388,6.067671389853869,0.10728799427363055
12.006284,6.073539818324128,0.10708907965972282
12.008667999999998,6.081922204220001,0.10687970194230276
12.011051999999998,6.097521597168625,0.10657142358310515
12.013456,6.109396327878136,0.10629794591713737
12.01584,6.122481763401145,0.10600126228198253
12.018219999999998,6.139711170043848,0.10564878036896472
12.020624,6.161596404485442,0.10525555608077664
12.023008,6.17412276150101,0.10499267523596661
12.025391999999998,6.1894426151959125,0.10470528350873476
12.027788,6.2063452607566525,0.10441728878256912
12.030176,6.233118640422615,0.10401354570950298
12.032555999999998,6.262173660088715,0.1035700160058767
12.034952,6.299516621994203,0.10301983419118907
