Time,Force,Position
10.83566,0.007711111531715366,0.0
10.838064,0.010026220211253137,0.0
10.840452,0.015274595196986079,0.0
10.842832,0.01931226536922028,0.0
10.845228,0.023210165914594273,0.0
10.847616,0.02696829683310805,0.0
10.85,0.03179736293826037,0.0
10.852396,0.03179736293826037,0.0
10.854784,0.0329017668042994,0.0
10.857168,0.0329017668042994,0.0
10.859564,0.03465779697639633,0.0
10.861952,0.03813638864118969,0.0
10.864344,0.04133544105226263,0.0
10.866739999999998,0.04422148553021465,0.0
10.869124,0.05049357387434298,0.0
10.871504,0.05552148872557206,0.0
10.873896,0.062132195442637365,0.0
10.876284,0.06933544934654401,0.0
10.87868,0.07439683287717358,0.0
10.881075999999998,0.07528077660870876,0.0
10.883459999999998,0.07374331071324645,0.0
10.88584,0.07220584481778414,0.0
10.888243999999998,0.06695746983205118,0.0
10.890631999999998,0.06291979965981699,0.0
10.893012,0.059021899114443006,0.0
10.895407999999998,0.05526376819592922,0.0
10.897795999999998,0.05043470209077691,0.0
10.900176,0.05043470209077691,0.0
10.90258,0.05131864582231208,0.0
10.904967999999998,0.056519798979801875,0.0
10.907348,0.06089608752497306,0.0
10.909752,0.0627584186445297,0.0
10.91214,0.06504005864466697,0.0
10.914519999999998,0.06517982827152717,0.0
10.916916,0.059173526032276616,0.0
10.919299999999998,0.053832603247926616,0.0
10.92168,0.04676911897088018,0.0
10.924084,0.039565865066973537,0.0
10.926472,0.03450448153634396,0.0
10.928852,0.031445198752131226,0.0
10.931247999999998,0.029596620781417234,0.0
10.933635999999998,0.028818977997341774,0.0
10.936016,0.028818977997341774,0.0
10.938408,0.028818977997341774,0.0
10.940796,0.028818977997341774,0.0
10.943188,0.02881897799734178,0.0
10.945583999999998,0.02881897799734178,0.0
10.947967999999998,0.02881897799734178,0.0
10.950348,0.026830630399767578,0.0
10.952744,0.021629477242277786,0.0
10.955132,0.015497158525009672,0.0
10.957524,0.010156235740659667,0.0
10.95992,0.004675543329449453,0.0
10.962307999999998,0.00026578610487776945,0.0
10.964688,0.0,0.0
10.967083999999998,0.0,0.0
10.969471999999998,0.0,0.0
10.971852,0.0,0.0
10.974248,0.0,0.0
10.976636,0.0,0.0
10.979031999999998,0.0,0.0
10.981428,0.0,0.0
10.983816,0.0,0.0
10.986195999999998,0.0,0.0
10.988592,0.0,0.0
10.99098,0.0013367212915163,0.0
10.99336,0.0013367212915162997,0.0
10.995755999999998,0.0013367212915162997,0.0
10.998143999999998,0.004443225903972182,0.0
11.000524,0.008620665703066594,0.0
11.002928,0.010935774382604365,0.0
11.005311999999998,0.011248782315725287,0.0
11.007696,0.011248782315725287,0.0
11.010091999999998,0.013284351741542638,0.0
11.012479999999998,0.01438875560758167,0.0
11.01486,0.014388755607581669,0.0
11.017255999999998,0.017355490593177345,0.0
11.019643999999998,0.017355490593177342,0.0
11.02204,0.017355490593177342,0.0
11.024436,0.017355490593177342,0.0
11.02682,0.017355490593177342,0.0
11.029199999999998,0.017355490593177342,0.0
11.031604,0.017355490593177342,0.0
11.033992,0.017355490593177342,0.0
11.036376,0.017355490593177342,0.0
11.038772,0.016018769301661042,0.0
11.041156,0.016018769301661042,0.0
11.043535999999998,0.016018769301661042,0.0
11.04594,0.01291226468920516,0.0
11.048324,0.008734824890110748,0.0
11.050703999999998,0.0064197162105729755,0.0
11.0531,0.006106708277452055,0.0
11.055483999999998,0.006106708277452055,0.0
11.057868,0.004071138851634704,0.0
11.060263999999998,0.0029667349855956723,0.0
11.062651999999998,0.003699051799297223,0.0
11.065048,0.0007323168137015509,0.0
11.067444,0.0007323168137015509,0.0
11.069828,0.000732316813701551,0.0
11.072212,0.0018839425079837325,0.0
11.074608,0.003035568202265914,0.0
11.076996,0.003035568202265914,0.0
11.079375999999998,0.003035568202265914,0.0
11.081772,0.003035568202265914,0.0
11.08416,0.003035568202265914,0.0
11.086539999999998,0.003035568202265914,0.0
11.088944,0.003035568202265914,0.0
11.091332,0.003035568202265914,0.0
11.093711999999998,0.003035568202265914,0.0
11.096108,0.003035568202265914,0.0
11.098496,0.0030355682022659143,0.0
11.100875999999998,0.0030355682022659143,0.0
11.103272,0.0030355682022659143,0.0
11.10566,0.0030355682022659143,0.0
11.108056,0.0030355682022659143,0.0
11.110452,0.0023032513885643635,0.0
11.11284,0.0023032513885643635,0.0
11.11522,0.0023032513885643635,0.0
11.117616,0.0023032513885643635,0.0
11.120004,0.0011516256942821817,0.0
11.122383999999998,0.0,0.0
11.124788,0.0,0.0
11.127176,0.0,0.0
11.129556,0.0,0.0
11.131952,0.0,0.0
11.13434,0.0,0.0
11.136724,0.0,0.0
11.13912,0.0,0.0
11.141508,0.0,0.0
11.143888,0.0,0.0
11.146292,0.0,0.0
11.14868,0.0,0.0
11.151064,0.0,0.0
11.15346,0.0,0.0
11.155844,0.0,0.0
11.158228,0.0,0.0
11.160624,0.0,0.0
11.163012,0.0,0.0
11.165396,0.0,0.0
11.167792,0.0,0.0
11.17018,0.0,0.0
11.17256,0.0,0.0
11.174956,0.0,0.0
11.177344,0.0,0.0
11.179728,0.0,0.0
11.182132,0.0,0.0
11.184516,0.0,0.0
11.186896,0.007752853122001256,0.0
11.189303999999998,0.030215467887483048,0.0
11.191688,0.06343086463185481,0.0
11.194068,0.09980994925002978,0.0
11.196464,0.14386877991403935,0.01159786023036038
11.198852,0.20235783296780896,0.02197431389441806
11.201236,0.2714126765453652,0.032047561196268275
11.203632,0.3486591228479538,0.04204774969865864
11.20602,0.4350755592635961,0.05173792704879043
11.2084,0.5266577842994584,0.06153008540013647
11.210796,0.6234983457541579,0.07153281466074059
11.213184,0.7333261073596413,0.08113875228776274
11.215564,0.8593538746758246,0.09020739002545838
11.217964,0.9939000057990037,0.09914232806673233
11.220352,1.1345430911021812,0.10812813336964408
11.222732,1.2792338080106969,0.11736755181461796
11.225128,1.4353289332041608,0.12643448079940928
11.227516,1.6058089548170105,0.13514251038831887
11.229895999999998,1.784762014266482,0.14362030408682405
11.232292,1.9669278792758693,0.1519572114904836
11.234684,2.1381753074315837,0.160353473164936
11.237063999999998,2.2927108731973997,0.16882913059267865
11.239464,2.440171097395196,0.17726027243780784
11.241852,2.591777188570556,0.1854676980468877
11.244236,2.736402381834382,0.18200158520957643
11.246628,2.860126415618243,0.17988198102039094
11.249016,2.970910471079563,0.17810883440802258
11.251392,3.0720126797486316,0.17650390299111784
11.253787999999998,3.165108381289902,0.1752270413973358
11.256171999999998,3.255971560517147,0.1737402856638906
11.258552,3.3452085177660518,0.17186174712731805
11.260944,3.4173143037444786,0.1705441293890436
11.263328,3.4682374951313504,0.1700336247800811
11.265707999999998,3.518835821294128,0.1694725227275858
11.268123999999998,3.5717176833149122,0.16860177533010628
11.270507999999998,3.624184028170854,0.16730989299095797
11.272888,3.665153416943231,0.16613087656098757
11.27528,3.688525103736306,0.16543337645169082
11.277664,3.704587235678015,0.16498503062891193
11.280043999999998,3.7180881883658654,0.16467970836991686
11.28246,3.733311702546413,0.16432531727957259
11.284843999999998,3.747231964114845,0.1639571248425014
11.287224,3.7534705837795728,0.16377762858952571
11.289636,3.7535631315781894,0.1638399732078797
11.292024,3.7557031060935975,0.16396846789600308
11.294403999999998,3.7637549391917697,0.16403205522878114
11.296815999999998,3.7721788593422785,0.16412623011613262
11.2992,3.7838155850527038,0.1640816400548289
11.30158,3.8014586130023793,0.16382325094831035
11.303972,3.819333958377533,0.16362261364712222
11.30636,3.8354395204317466,0.163550623042533
11.308739999999998,3.8565276713668153,0.16323074400187548
11.311151999999998,3.8845079641305387,0.16251933229234244
11.313539999999998,3.895494959392775,0.1622679453104144
11.315916,3.8988928605499242,0.16226271021681327
11.318319999999998,3.902383309505691,0.1623189680743459
11.320707999999998,3.9051749103271574,0.1624468205110022
11.323088,3.91052769040248,0.16244991195100217
11.32548,3.9160202401046638,0.1624383592026605
11.327868,3.9258890783520184,0.16232697040182656
11.330263999999998,3.942648162570159,0.16207241103431044
11.33266,3.968579132759223,0.16158760827218724
11.335043999999998,4.001727110001035,0.16085448480288184
11.33742,4.034642769817371,0.16008166135872234
11.339823999999998,4.064951924409474,0.15930590049124926
11.342207999999998,4.096891092695658,0.15843623211539218
11.344588,4.133253771355256,0.1574018616424419
11.346991999999998,4.169663671843096,0.15631814421919604
11.349379999999998,4.197320995240594,0.15544626367404824
11.351756,4.222464361212479,0.15462855648689547
11.354152,4.248259353490421,0.15382743297223497
11.356536,4.271725483939982,0.1531780976088484
11.358916,4.292071356628244,0.15269507432976645
11.361332,4.3258728560339845,0.1518357758796893
11.36372,4.360325981745784,0.15098526221935923
11.366099999999998,4.391706071524526,0.15024474260501194
11.368504,4.425600118728882,0.1494651428120781
11.370888,4.461076957799075,0.1486684904796117
11.373267999999998,4.493527982764456,0.14789442278609913
11.375659999999998,4.520439236199412,0.1472023457909034
11.378047999999998,4.5420430355294155,0.14663146375734476
11.380428,4.5559179711274735,0.14626412308526407
11.382827999999998,4.566999410046196,0.1459655837316361
11.385215999999998,4.573704560419748,0.14574362398836851
11.387592,4.57905923635294,0.14557824825937274
11.389988,4.584134373032412,0.14543844280170667
11.392376,4.590512762324001,0.14531028580823016
11.394756,4.596983699414206,0.14523642715874985
11.397168,4.600102061317635,0.1452682328228407
11.399556,4.5979129691161145,0.14539855374883892
11.401936,4.588414322063229,0.14568438489749633
11.404331999999998,4.583758494264337,0.14578766840395513
11.406715999999998,4.582595011279081,0.14576784831681755
11.409112,4.575472447882818,0.14584081201037216
11.411516,4.563461739262186,0.14597653472777045
11.4139,4.550008008402578,0.14611703396654485
11.41628,4.533621011236774,0.14633133018009364
11.418684,4.517373783697832,0.14653069516070621
11.421068,4.506061923211502,0.1466027965147414
11.423452,4.493539357911672,0.14671983177186948
11.425848,4.479526548544623,0.14690717617662138
11.428232,4.46681699178969,0.14710596475450977
11.430611999999998,4.45140648615404,0.1474219884270238
11.433016,4.443165765742896,0.14759580586473467
11.435404,4.437486224585609,0.14766684512913889
11.437784,4.43287761861496,0.1477042749502799
11.440184,4.422402480031921,0.14788753567624388
11.442572,4.4089940751426875,0.1481432492025057
11.444952,4.402662907679343,0.1482099372803174
11.447356,4.40606270469436,0.14803546983083507
11.449744,4.418913926934024,0.14764396459195842
11.452124,4.4289244306661075,0.14738294445129688
11.454527999999998,4.436373755144334,0.14722383836161165
11.456915999999998,4.447919828914012,0.14701543900955674
11.459296,4.462771256042221,0.14675967093098663
11.461695999999998,4.479857101342326,0.14649214815556666
11.464083999999998,4.502809479254821,0.1460861405509205
11.466464,4.527484418660011,0.1456608702888062
11.468859999999998,4.54694445175887,0.14538262127985283
11.471244,4.569849607843121,0.14505065120930336
11.473624,4.597038504673926,0.14459666240477478
11.476027999999998,4.625997184825672,0.1440534722850452
11.478416,4.657377274604415,0.14341756231019123
11.480796,4.681587579158651,0.14291573094556523
11.483192,4.705378574832306,0.14245524200396803
11.485576,4.727167469759544,0.1420474567710194
11.487956,4.754962666926033,0.1414941332490821
11.490352,4.783828799279161,0.1409070140857978
11.49274,4.812555162005428,0.1403432946520366
11.495119999999998,4.836997783985143,0.13991241370355575
11.497524,4.857855513352604,0.13955219300023067
11.499912,4.880203486787284,0.13913341050362185
11.502287999999998,4.902319142796487,0.13867582012958046
11.504684,4.922991776566713,0.1382283195483769
11.507068,4.945946050337077,0.13771771059826968
11.509464,4.965874510002627,0.13722032013475483
11.511867999999998,4.982637385936506,0.13675834169545092
11.514252,4.9962346781387135,0.13632397118892456
11.516632,5.009320113661722,0.13586803173995257
11.519035999999998,5.020822757318895,0.13542625210247672
11.52142,5.027390033923455,0.13508908552882803
11.5238,5.0316756705278785,0.13481688191882021
11.526203999999998,5.038894573438497,0.13448819034967754
11.528591999999998,5.050629534521146,0.1340871202005359
11.530972,5.061293560417157,0.13371364546420142
11.533376,5.07223712556689,0.13331894086583176
11.535759999999998,5.078524862917729,0.13300802362659295
11.53814,5.081227707656317,0.1327482689286955
11.540544,5.080485429409512,0.13253211731172843
11.542927999999998,5.0812333952299245,0.13225933010817092
11.545312,5.0822609003040595,0.13196709048740082
11.547703999999998,5.081705613512357,0.1316865016272889
11.550092,5.081941722653573,0.1314007445133039
11.552472,5.076823155861596,0.13124309669370496
11.554875999999998,5.071425049815898,0.131106499838585
11.557259999999998,5.069611836382453,0.13091934480883974
11.55964,5.064306278135373,0.13082892742579968
11.562043999999998,5.056299771007573,0.13083131635532597
11.564431999999998,5.052949091678667,0.1307568316403267
11.566812,5.051320973842457,0.13066239909847607
11.569216,5.050903560819746,0.13053145393308166
11.571604,5.0519763918642555,0.13034332477810118
11.57398,5.048253625483012,0.13024220657166147
11.576375999999998,5.046393190221324,0.1301114168012717
11.57876,5.046022999026857,0.12992500999625925
11.58114,5.0437904767128305,0.12976783160430425
11.583536,5.041557954398806,0.1296102033777814
11.58592,5.045703821376369,0.12935767645754928
11.588299999999998,5.051013171339187,0.12912578192785526
11.590692,5.052038780555453,0.12899583835074746
11.59308,5.0485011097714425,0.12898837010612305
11.59546,5.042402259733573,0.12906372779623707
11.597872,5.03867759749446,0.12912392284839622
11.60026,5.040819467867737,0.12907265597169165
11.60264,5.040307611188541,0.12905659261916555
11.605047999999998,5.036862488203147,0.12909605088582238
11.607432,5.037561336337449,0.12904424116450613
11.609816,5.046408357084278,0.12882194555837898
11.612208,5.053113507457829,0.12865147606591373
11.614596,5.055023060405628,0.1285646932755887
11.616976,5.059726110032763,0.12843409860380853
11.619372,5.067874282645291,0.1282680967858933
11.62176,5.079747117496933,0.12804496397921755
11.62414,5.08789529010946,0.12788083470669392
11.626544,5.0936220530949905,0.1277857191567657
11.628932,5.104796039812329,0.127617031185812
11.631312,5.115550717649088,0.1274770481831067
11.633715999999998,5.129657970672623,0.12726245131220226
11.636103999999998,5.146978029256074,0.12697970961286448
11.638484,5.1693732245189965,0.1266014128509395
11.64088,5.1988456572078094,0.12608932732387246
11.643264,5.231530895456537,0.12550440273128918
11.645644,5.262633341839428,0.12493441554873853
11.648044,5.293084161916261,0.12436513485899757
11.650428,5.324326377926012,0.12379115915744679
11.652812,5.35850186024196,0.12317017264260005
11.655216,5.387462436251574,0.1226525393954438
11.6576,5.409345774835298,0.12227093604558636
11.65998,5.432160278978802,0.12187751837276059
11.662372,5.459910150174917,0.12139832067091955
11.66476,5.4847267550648375,0.12096985731511564
11.667139999999998,5.505678928088784,0.12060788690002222
11.669531999999998,5.524768769993175,0.12027433965600966
11.671919999999998,5.5457209430171215,0.11991641060770251
11.6743,5.568163360108287,0.11950796770424908
11.676692,5.588231589400699,0.11911612011222376
11.67908,5.611931933133607,0.11863369297701526
11.681456,5.625761542761291,0.11831398771097572
11.683872,5.636657886082779,0.11804205670350955
11.686255999999998,5.641408157538156,0.11787825008070253
11.688636,5.639360730821365,0.11781615656054209
11.691052,5.636382138544796,0.11776587753565536
11.693436,5.63219284145473,0.11774554008939339
11.695832,5.626653069924302,0.11776396861754178
11.698236,5.623115399140294,0.11774979070228016
11.70062,5.6194379587294225,0.11774431183663783
11.702999999999998,5.622697986117581,0.11763215925934116
11.705404,5.626749409438657,0.1175164326369505
11.707788,5.629729897573098,0.11742143142485417
11.710167999999998,5.6328501553343955,0.11731860173076927
11.712572,5.640905780148307,0.1171428594990632
11.71496,5.6489614049622165,0.1169671172673571
11.717339999999998,5.657668656082185,0.11679829450999166
11.719744,5.666096367948433,0.11664794597791117
11.722132,5.677689663546353,0.11649068064228979
11.724512,5.691377607689307,0.11634689101305297
11.726916,5.705158099630878,0.11624667585483107
11.7293,5.724525584931119,0.11608194049799972
11.73168,5.744824235791139,0.11590722371967993
11.734084,5.770198023330631,0.11565246481263544
11.736472,5.802509278669152,0.11529879812002698
11.738852,5.83668286512723,0.11492739862523309
11.741255999999998,5.87020482527925,0.11454825725539186
11.74364,5.906939590991184,0.1141162302982818
11.74602,5.942743191143341,0.11369980218924083
11.748416,5.9791058698029405,0.11325728027467664
11.750804,6.009741785477009,0.11288685464092935
11.753184,6.043730276337852,0.11245403592701728
11.755587999999998,6.081071342385471,0.11196304361231654
11.757972,6.117201703619592,0.11150368826575324
11.760352,6.145323661868043,0.11115569374721723
11.762755999999998,6.176798195303272,0.11075088254495855
11.76514,6.208552267992221,0.11033202301838839
11.76752,6.239514944748253,0.10991524103441346
11.769916,6.266101332959111,0.1095330654504989
11.7723,6.284586770385687,0.1092185118266339
11.774679999999998,6.30083778964037,0.1089023207021752
11.777084,6.315506017029214,0.10859078296337529
11.779472,6.331384949231557,0.1082566962814777
11.781852,6.346472485500984,0.10792681625999133
11.784256,6.3589062947179364,0.10762059089756419
11.78664,6.371619643188607,0.1073022389038957
11.78902,6.386335092405696,0.10695944773148759
11.791424,6.3963947138238915,0.10666140981402628
11.793812,6.402450133749253,0.106412280212353
11.796192,6.406084144047618,0.10621238722669345
11.798595999999998,6.413862125465677,0.10595571301607051
11.800983999999998,6.421779876510597,0.10569406329350822
11.803364,6.426624591622461,0.10547421798216586
11.805768,6.431236989308848,0.10522574612070597
11.808156,6.444137329234623,0.1048674424606925
11.810536,6.452893698040706,0.10456609925364012
11.812931999999998,6.464862872406701,0.10422252238506088
11.815319999999998,6.477251355653278,0.10385737019759872
11.8177,6.488568903713219,0.10350571870037967
11.820104,6.505752984385548,0.10308940114110675
11.822487999999998,6.524008000244516,0.10266001099706122
11.824868,6.542123246476624,0.10223896596974591
11.827263999999998,6.557584765656254,0.10183598702935028
11.829651999999998,6.572115119276109,0.10144245704769908
11.832032,6.584643372149545,0.10107271113410896
11.834435999999998,6.594098589089927,0.10074173307345329
11.836819999999998,6.601691474910751,0.10042637525019153
11.8392,6.61286925334383,0.10008909470300711
11.841603999999998,6.628330772523463,0.09969182091306182
11.843991999999998,6.638996694277343,0.09933582312042666
11.846372,6.643796083418834,0.09903949737450557
11.848776,6.646453602187047,0.09877425555306898
11.851159999999998,6.646317624275925,0.09853042997893141
11.85354,6.642409762297446,0.09836027536719115
11.855944,6.631424662893079,0.09827201864399618
11.858332,6.619228858675214,0.09820616071154181
11.860711999999998,6.599304190725401,0.09821392360783592
11.863116,6.57723765240231,0.09825101294304667
11.865504,6.559594624452634,0.09822015594864314
11.867883999999998,6.54223113575668,0.09817306309204706
11.870288,6.521654841500808,0.09816941660894787
11.872672,6.500147381685159,0.09817277017264044
11.875056,6.4771496778022914,0.09821334770370665
11.877452,6.454943369852341,0.09825296750411658
11.879836,6.431526357088893,0.09831511365983553
11.882219999999998,6.409831905818141,0.09836989425253398
11.884616,6.387857915293668,0.09843969280513833
11.887,6.365092528836277,0.09850742588757447
11.889383999999998,6.343118538311803,0.09857305463263277
11.89178,6.329013181146137,0.09856039375985445
11.894168,6.3243592492051155,0.09846977080648717
11.896548,6.3187741517043134,0.09838598658549993
11.898943999999998,6.315842781255989,0.09828824421945653
11.901331999999998,6.318126317113996,0.09812560990711366
11.903712,6.3284182559576685,0.0978785847024256
11.906104,6.342854165921036,0.09758181605875832
11.908492,6.362457760362494,0.09726415247250067
