Time,Force,Position
11.1065,0.041655973821669745,0.0
11.108904,0.033280891503051344,0.0
11.111292,0.025836974744211268,0.0
11.113672,0.02146609391842657,0.0
11.116068,0.02002847939883704,0.0
11.11846,0.018590864879247514,0.0
11.12084,0.014219984053462814,0.0
11.123236,0.009429794347097483,0.0
11.125624,0.006781475014009215,0.0
11.128004,0.002131054934504095,0.0
11.1304,0.000274131534333937,0.0
11.132788,0.000274131534333937,0.0
11.135168,0.00027413153433393706,0.0
11.137564,0.00027413153433393706,0.0
11.139952,0.00027413153433393706,0.0
11.142332,0.00027413153433393706,0.0
11.144732,0.00027413153433393706,0.0
11.14712,0.0,0.0
11.1495,0.0013450667209724677,0.0
11.151896,0.0013450667209724675,0.0
11.154284,0.003761068628583465,0.0
11.156668,0.008318940909471524,0.0
11.159064,0.015670309869694542,0.0
11.161452,0.024884009949474203,0.0
11.163836,0.03423747965611408,0.0
11.166232,0.044661884549392475,0.0
11.16862,0.055086289442670876,0.0
11.171004,0.0663020902688674,0.0
11.1734,0.08152209258789761,0.0
11.175788,0.09380882860073265,0.0
11.178172,0.10381392461343042,0.0
11.180568,0.11367925099926798,0.0
11.18296,0.12447574294488387,0.0
11.18534,0.134061530077001,0.0
11.187736,0.13950334608942425,0.0
11.190124,0.14387422691520893,0.0
11.192504,0.14545161106165866,0.0
11.1949,0.14545161106165863,0.0
11.197288,0.14410654434068618,0.0
11.199668,0.1455441588602757,0.0
11.202068,0.14442600184539403,0.0
11.204452,0.13986812956450598,0.0
11.206836,0.13251676060428297,0.0
11.209232,0.12330306052450331,0.0
11.21162,0.11394959081786345,0.0
11.214,0.10352518592458505,0.0
11.216396,0.09310078103130663,0.0
11.218784,0.08188498020511013,0.0
11.221168,0.06666497788607992,0.0
11.223564,0.05525677788539356,0.0
11.225952,0.048132318631261314,0.0
11.228332,0.041427168257709715,0.0
11.230728,0.03285968676460147,0.0
11.233116,0.023500809338575117,0.0
11.2355,0.021498708592158265,0.0
11.237896,0.020707312659240154,0.0
11.240284,0.02256964377879679,0.0
11.242664,0.026940524604581496,0.0
11.24506,0.03117163580350598,0.0
11.247448,0.02996093099000724,0.0
11.249832,0.03061255729606514,0.0
11.252228,0.03577483405476795,0.0
11.254616,0.044941312306304465,0.0
11.256996,0.052245459438284333,0.0
11.259396,0.05847867138362567,0.0
11.261784,0.060847451462993515,0.0
11.264164,0.06335600116922158,0.0
11.26656,0.06693548606208817,0.0
11.268948,0.06730216539503917,0.0
11.271328,0.06642362938289048,0.0
11.273728,0.06354299262432495,0.0
11.276112,0.06038281661203898,0.0
11.278496,0.05815380615953134,0.0
11.280892,0.05792689645344056,0.0
11.283284,0.05448718118743418,0.0
11.285664,0.05127437562751858,0.0
11.28806,0.048201339694463205,0.0
11.290448,0.0438304588686785,0.0
11.292832,0.039599347669754016,0.0
11.295228,0.042160526923611705,0.0
11.29762,0.04220774875185486,0.0
11.3,0.03876262576646199,0.0
11.302396,0.033175632407792074,0.0
11.304784,0.0302423661015969,0.0
11.307168,0.030382135728457115,0.0
11.309564,0.035317502781069134,0.0
11.311952,0.03918193464704262,0.0
11.314332,0.03890239539332221,0.0
11.316732,0.04183566169951738,0.0
11.31912,0.045927003271581654,0.0
11.321504,0.048156013724089286,0.0
11.323904,0.04973339787053902,0.0
11.326288,0.054244048323183934,0.0
11.328672,0.05875469877582884,0.0
11.331068,0.06112347885519668,0.0
11.33346,0.0619148747881148,0.0
11.33584,0.06284604034789312,0.0
11.33824,0.06307295005398392,0.0
11.340628,0.06316009013321448,0.0
11.343008,0.06037200117326601,0.0
11.345408,0.058375308146235635,0.0
11.347796,0.05665815437292569,0.0
11.350176,0.05307866948005911,0.0
11.352572,0.048707788654274414,0.0
11.354964,0.042334807082072864,0.0
11.357344,0.03503065995009298,0.0
11.359744,0.028657678377891443,0.0
11.362132,0.02535773273874527,0.0
11.364512,0.022057787099599106,0.0
11.366912,0.01796644552753483,0.0
11.3693,0.01573743507502719,0.0
11.371684,0.014160050928577451,0.0
11.37408,0.009649400475932542,0.0
11.376472,0.005138750023287634,0.0
11.378852,0.0027699699439197862,0.0
11.381252,0.0016118946780506792,0.0
11.383644,0.0003140497853213622,0.0
11.386024,0.0020838331062609434,0.0
11.38842,0.002131054934504094,0.0
11.390804,0.002131054934504094,0.0
11.393184,0.002131054934504094,0.0
11.3956,0.002131054934504094,0.0
11.397984,0.002131054934504094,0.0
11.400364,0.0033363520286163514,0.0
11.40278,0.0073351458020635705,0.0
11.405168,0.012404874762149319,0.0
11.407548,0.016543438162456747,0.0
11.409944,0.021333627868822078,0.0
11.412332,0.026543126455768035,0.0
11.414712,0.03268379060249232,0.0
11.417124,0.04189749068227197,0.0
11.419512,0.050040255575413105,0.0
11.421892,0.05604115009527717,0.0
11.424292,0.06097110942850271,0.0
11.426676,0.0640387376421716,0.0
11.429056,0.06710636585584051,0.0
11.431452,0.07124492925614795,0.0
11.43384,0.07124492925614793,0.0
11.43622,0.07417819556234312,0.0
11.438616,0.0801790900822072,0.0
11.441004,0.08697138053498937,0.0
11.443384,0.09255296617427282,0.0
11.445796,0.10027642218683333,0.0
11.448184,0.10572364591864303,0.0
11.450564,0.10637527222470093,0.0
11.452968,0.1028829274110649,0.0
11.455356,0.10018197853034701,0.0
11.457736,0.09710894259729164,0.0
11.460132,0.0934768281567954,0.0
11.46252,0.08998448334315938,0.0
11.4649,0.08248793703668968,0.0
11.467296,0.07606232591685849,0.0
11.469684,0.0729892899838031,0.0
11.472064,0.0689850884909694,0.0
11.47446,0.06870554923724899,0.0
11.476848,0.06656367886397194,0.0
11.479244,0.06242511546366451,0.0
11.481644,0.06042842243663414,0.0
11.484028,0.05736079422296524,0.0
11.486408,0.051359899703101175,0.0
11.488804,0.044567609250318996,0.0
11.491192,0.03949247257084675,0.0
11.493572,0.03213569589123725,0.0
11.495968,0.025989624025126484,0.0
11.498356,0.02198542253229278,0.0
11.500752,0.023056357718931313,0.0
11.503156,0.024406832159290265,0.0
11.505544,0.02519822809220837,0.0
11.507924,0.028503581450741024,0.0
11.510324,0.030411238540671574,0.0
11.512712,0.033667474213091825,0.0
11.515092,0.037154131453120104,0.0
11.517496,0.047993773657019415,0.0
11.519884,0.07591736530315354,0.0
11.522264,0.11496582598051515,0.009466869612401249
11.524664,0.16555846456968482,0.01855744425942939
11.527052,0.22382544148530265,0.027749825352769247
11.529432,0.2881421507526757,0.03725647173917702
11.531828,0.3608827801705582,0.046867128569834916
11.534216,0.4420945515671935,0.05637979293626781
11.536596,0.5324763130768825,0.06564551071582439
11.538992,0.6277969535007007,0.07496888205789909
11.541384,0.730285483291156,0.0842760874502119
11.543764,0.8425484076724798,0.09350147996563658
11.54616,0.9664480577642284,0.10255721889707758
11.548548,1.100960720208007,0.11134336028787492
11.550932,1.2454347686977576,0.11998278623580826
11.553328,1.3960057713675065,0.12871881764974236
11.555716,1.552394188963533,0.13748777751066799
11.558096,1.7207933151801917,0.1460981520469346
11.560496,1.9024157506888502,0.1543529683829521
11.562884,2.092607563548486,0.1623126399028365
11.565264,2.274562447712716,0.17016904147890094
11.56766,2.439480604262954,0.17801722257243588
11.570048,2.5872675895427144,0.17654997530411795
11.572432,2.724673879895922,0.1755338361324849
11.574828,2.8576132297632104,0.1743160867690834
11.577216,2.986552169853404,0.17264032856177575
11.5796,3.1000371741954416,0.17103272362946623
11.581996,3.2049112669318665,0.16953830462511282
11.584384,3.3027100181002713,0.16828257983868752
11.586768,3.4011622914326036,0.16682459138328545
11.589164,3.4895134090921034,0.165492017720911
11.591552,3.56515686585454,0.1643239379425305
11.593932,3.624740086533137,0.16350157482274147
11.596328,3.6708695763521257,0.16304241414591664
11.598716,3.706199062363982,0.16280862981059985
11.6011,3.7338488023300034,0.16254014544070838
11.603496,3.75014135583932,0.16230089612544205
11.605884,3.751165069197716,0.16233482921766285
11.608264,3.7344040891217056,0.16291283277128069
11.610668,3.710286332366087,0.16376756733955553
11.613056,3.6867729800882825,0.16469087744732272
11.615436,3.661769383743259,0.16572846062775715
11.617832,3.6389076577715125,0.16670474872173927
11.62022,3.620981298852378,0.16747911372346244
11.6226,3.6036593444110587,0.16831674167122854
11.625,3.586382715940113,0.16927983760531246
11.627388,3.581211239746284,0.16985761879535427
11.629768,3.5788332602317916,0.1703420196819037
11.632168,3.5747327192246017,0.17086674637775096
11.634552,3.5638344800452444,0.17161519709811812
11.636936,3.5637381405308886,0.17198163089627966
11.639332,3.566994376203309,0.17220539418710276
11.64172,3.576024596689503,0.1721653809823917
11.6441,3.5857536653099973,0.17204654836537378
11.646504,3.5985557698635473,0.17180983852133683
11.648888,3.618807198895323,0.17135080050535254
11.651272,3.6428758379648305,0.17083174069229762
11.653668,3.6725314703930074,0.17013286461556168
11.656056,3.706842930620076,0.169261602825303
11.658436,3.7400834556605056,0.16843860745672257
11.660832,3.7767691036863282,0.1675526955778687
11.66322,3.8174117313767413,0.166576578766776
11.665616,3.86112739500021,0.16547256142593325
11.668012,3.902748410078644,0.16442128629686437
11.6704,3.9450682732913807,0.16332647648007936
11.67278,3.9891579198250557,0.16214724547230194
11.675176,4.032316400798952,0.16105740125104612
11.677564,4.069236262108123,0.16011923308119883
11.679944,4.10299053968562,0.1592152455138437
11.682348,4.13530179502414,0.15830305745845316
11.684732,4.159464877750134,0.1577024509022094
11.687116,4.184791443461383,0.15712884355915707
11.689512,4.209558930665191,0.15662026335939683
11.6919,4.239401554548471,0.15596147887986245
11.694284,4.2685925521256936,0.15531150093724258
11.69668,4.296852384143138,0.15471794124712626
11.699068,4.32767339541444,0.15402652189167393
11.701452,4.355700910006405,0.15340831061218368
11.703848,4.387500308665729,0.15264983063588128
11.706236,4.419998555459353,0.15183116365641827
11.70862,4.4473291177748875,0.15111745140198476
11.711016,4.476289693784501,0.1503277730280202
11.7134,4.506321204980755,0.14951680133680548
11.715784,4.533279680243952,0.14879832054696357
11.71818,4.553068370282643,0.1482223619594189
11.720568,4.568992628455361,0.14774910012738704
11.722948,4.579701980321745,0.14742992663379698
11.725348,4.59571878629308,0.14701115208886442
11.727736,4.617462355249946,0.14645946452544847
11.730116,4.647354096819338,0.14569741189545135
11.732512,4.676733981709533,0.14491383126229415
11.7349,4.705322470666809,0.14414595549913142
11.737284,4.731257232571612,0.14342446473502257
11.73968,4.74760079962491,0.14292724923935482
11.742068,4.760639013319675,0.14247424148349525
11.744452,4.76930093846927,0.1421025708612637
11.746848,4.7750295973126695,0.1418040040519287
11.749236,4.779547551342571,0.14154528823167767
11.751632,4.778850599066139,0.14142920123187844
11.754028,4.781366452349623,0.1412254615849731
11.756416,4.782811370446468,0.14105019511877476
11.758796,4.7819746485431756,0.1409463625777261
11.7612,4.779927221826384,0.14088354461102237
11.763584,4.778019564736454,0.14080932113716088
11.765964,4.783049375445552,0.14057465162240151
11.76836,4.788498495035231,0.1403067558837509
11.770748,4.792736909811412,0.14007687186796589
11.773128,4.796323698281534,0.13984433540898517
11.775524,4.797676068579763,0.1396229448318097
11.777912,4.789716783280208,0.13957723496455252
11.780292,4.78389936835393,0.13947433403501383
11.782688,4.775008917494596,0.13944631101552957
11.785076,4.769703359247515,0.13935935365469687
11.78746,4.772266434359242,0.13909866742668575
11.789864,4.778693941336943,0.13875798454439456
11.792252,4.779766772381451,0.13855752441512065
11.794632,4.778650511224439,0.13847583183820367
11.797028,4.783400782679816,0.13826498136722548
11.799416,4.787359658202276,0.13805921396795914
11.801796,4.781168260365791,0.1381016654575933
11.804196,4.777770359208642,0.13808996298186885
11.806584,4.7783766595443256,0.13798379444030048
11.808964,4.778191563947091,0.1378844346132258
11.811368,4.780148338723135,0.1377274041418029
11.813756,4.778752538312401,0.13766837299611054
11.816136,4.776657889767368,0.13766484379927024
11.818532,4.7827114138348605,0.1374693194530691
11.82092,4.789835873088993,0.137248380847419
11.8233,4.797332419395463,0.13705621639935853
11.825696,4.808785945366523,0.13683307015731477
11.828084,4.8206115583899205,0.1366391577260686
11.83048,4.839514408839207,0.13628936363925595
11.832876,4.856554928168936,0.13597480517237195
11.835264,4.87145357712539,0.13571978296291584
11.837644,4.8829996508950675,0.1355562955904621
11.840052,4.902414358023552,0.13523023809943613
11.842436,4.931235164406306,0.13463809282831538
11.844816,4.958473178923225,0.13407080351766218
11.847216,4.986642358999921,0.13348382094908492
11.8496,5.023751107622063,0.13270722066716095
11.85198,5.060440547363624,0.131964338666101
11.854384,5.09419672079899,0.13129141448463158
11.856772,5.128884059794134,0.13060716521131804
11.859152,5.1582167228560865,0.13004588559632596
11.861556,5.18633868110454,0.12951745593234096
11.863944,5.212458538606575,0.12902355099275395
11.866324,5.230849532376665,0.1286814101681636
11.86872,5.246167490213699,0.12840764972539026
11.871108,5.259623116931176,0.12816497315704295
11.873488,5.272566886969455,0.12790710198383634
11.875888,5.287140670701814,0.12758815319284791
11.878276,5.295056525888864,0.1273855128098866
11.880656,5.305254021076052,0.12712580037297044
11.883052,5.3080947395836295,0.12702536747168977
11.88544,5.315079429210902,0.12683677389100628
11.88782,5.320481326972338,0.12665945452932778
11.89022,5.313311541747833,0.12675308634392957
11.892608,5.305722447642745,0.1268742895449662
11.894988,5.30185801577677,0.12693918382192873
11.897384,5.295991483164381,0.12703970604682496
11.899776,5.2918947338729305,0.12706820706776695
11.902156,5.284213091969227,0.12714114256448653
11.904552,5.274669118945966,0.12724062119163945
11.90694,5.2723421529754555,0.12719790143340984
11.90932,5.272436596631942,0.1270896864580645
11.911716,5.275092219542286,0.12690544973577136
11.914104,5.279610173572186,0.12669310822480723
11.916484,5.286130228348504,0.12644387908661617
11.918884,5.292091204617381,0.1262322120955847
11.921268,5.298843576819175,0.12601728201162488
11.923652,5.299310107527999,0.1259334346783143
11.926048,5.3033615308490765,0.12580470668028737
11.928436,5.306993645289573,0.12570656066073435
11.930832,5.323057673089152,0.12535992175252295
11.933228,5.334046564209258,0.12511059314254586
11.935616,5.340751714582809,0.12495244479920152
11.937996,5.35360293682247,0.12467083412307894
11.940396,5.363800432009658,0.12442155754008438
11.942784,5.372135596077289,0.12420236580280102
11.945164,5.379260055331421,0.12401637919140834
11.94756,5.385965205704972,0.12386149518759945
11.949948,5.398117579810332,0.12363770888656993
11.952328,5.415996716901224,0.12333068905047992
11.954724,5.4313146747382595,0.12310000841461438
11.957112,5.4442112229482955,0.12293212384032141
11.959496,5.458550793397308,0.12276846663779493
11.9619,5.475963399779375,0.12255142360677185
11.964288,5.492305070974804,0.12235706636349844
11.966668,5.514141187730286,0.12204846716225844
11.969064,5.536117074112627,0.12173314042263164
11.971452,5.564099262734221,0.12131671769701298
11.973836,5.590219120236257,0.12092715639064243
11.976232,5.613545481058958,0.12057503575210615
11.97862,5.632867640388825,0.12029851764272233
11.981004,5.6551230660248875,0.11997676506957994
11.9834,5.686457829833256,0.11950951906528841
11.985788,5.7205860903209595,0.11901611372715695
11.988172,5.75536597711472,0.11852744859138778
11.990568,5.786933058348566,0.11809772657983993
11.99296,5.820502240328829,0.11763835156414466
11.99534,5.84927582488334,0.11724321182667026
11.99774,5.875255912758516,0.11688573269337472
12.000128,5.894158763207805,0.11664487367069278
12.002508,5.911618591418116,0.11639993317607376
12.004904,5.931639598882283,0.11608932230644617
12.007292,5.951148749667254,0.1157667989364543
12.009672,5.964511828586114,0.1155453445364598
12.012072,5.978945842691612,0.11530509732117551
12.014456,5.991237986423834,0.11510829465230807
12.01684,6.002459194969416,0.1149314299402354
12.019236,6.0110266764625235,0.11477974438856392
12.021624,6.018523222768995,0.11464654758840906
12.024008,6.028161639448741,0.11447563117853765
12.026404,6.03579795538207,0.11433538910875057
12.028792,6.043434271315401,0.11419584784918284
12.031172,6.043201953889923,0.11416451810662363
12.033572,6.037522412732637,0.11418549697568858
12.03596,6.03226218045593,0.11418161871614695
12.03834,6.032356624112417,0.11408630976405783
12.040752,6.0299371103432895,0.11400463067367979
12.04314,6.02751759657416,0.11392246493960456
12.045520000000002,6.026308787618531,0.11381366419050065
12.04792,6.028452553849677,0.11364106151941979
12.050308,6.035531687133436,0.11340317202474125
12.052692,6.041400115603695,0.11319270872019424
12.055088,6.047268544073956,0.11298358607097948
12.057472,6.062356080343381,0.11264008993895704
12.059852,6.079305947732363,0.112281060763995
12.062248,6.092111844001652,0.11198416856461817
12.064635999999998,6.105057509897801,0.11167944987002265
12.067016,6.11679247098045,0.11140022040666141
12.06942,6.132811172809655,0.1110526652358915
12.071808,6.148690105011998,0.11071549035672222
12.074188,6.163498102027705,0.110395231516974
12.076592,6.176723307177574,0.1100781915653606
12.07898,6.191950613073859,0.10973324237742958
12.081359999999998,6.211693977142176,0.10935123050552754
12.083756,6.232368506770271,0.10896219370186515
12.086144,6.248107669345756,0.10863714381368042
12.088524,6.264498458227298,0.10831866984861843
12.09092,6.28596438378831,0.10792999336058542
12.093304000000002,6.3044970430431295,0.10757696856444467
12.095684,6.3182341048721975,0.10727643649231203
12.098088,6.325033698902235,0.10706492820023746
12.100472000000002,6.332764458492051,0.1068450615137361
12.102852,6.338632886962309,0.10664376282519561
12.105256,6.333839185394427,0.10656486160611853
12.107644,6.323738029721595,0.10652299731535037
12.110024,6.317408758116119,0.10639924088343648
12.112424,6.31322135688392,0.10624237880805977
12.114812,6.31131559565186,0.10604464732719225
12.117192,6.3055454025538245,0.10588951523677169
12.119596,6.295771007962955,0.10578408614163465
12.12198,6.286136382998949,0.105670676153895
12.12436,6.2762222187812196,0.10557271829672908
12.126768,6.26630805456349,0.10547455465799069
12.129152,6.251877832173731,0.10541109221162001
12.131531999999998,6.236376674597332,0.105363336464221
12.133928,6.222737848140492,0.10529844454410119
12.136316,6.2095183305642285,0.10520964312712891
12.138696,6.198720222614965,0.10507216691600532
12.141092,6.191786546531675,0.10489395801653377
12.143479999999998,6.194583834926748,0.10461218083439106
12.14586,6.2045981303745705,0.10423722792095204
12.148264,6.2118189291430586,0.10388600758661473
12.150652,6.223695555710438,0.10349783126977208
12.153032,6.241810801942545,0.10306698742171677
12.155428,6.262300235973407,0.10263343250358195
12.157816,6.280088721123549,0.10226300184438275
12.160196,6.2957353359004165,0.10192616325409729
12.162591999999998,6.307237979557589,0.10164295097134014
12.164980000000002,6.318600853587901,0.10136684952743161
12.167372,6.3353184035514065,0.10101345141276913
12.169776,6.354177823888189,0.10063033045089946
12.172164,6.376250049784886,0.10020288755816584
12.174544,6.400603915681722,0.09974101801139978
12.176948,6.427611508631031,0.09926398782075761
12.179336,6.457692137513397,0.09875402341931798
12.181716,6.490706032701958,0.09821887269271934
12.184119999999998,6.524371554196575,0.09769438950376184
12.186504,6.5545447308775575,0.09723741355990306
12.188884,6.580573936438846,0.09683157539592199
12.19128,6.599525904574245,0.09650953205929
12.193668,6.611121096030034,0.09628102136504524
12.196048,6.627651654538436,0.09600507583300881
12.198452,6.63645334931489,0.0957984482345674
12.20084,6.643951791479229,0.09557758344046516
12.20322,6.6535921040168455,0.09533008561072694
12.20562,6.663651725435042,0.09506032249400465
12.208004,6.674642512413017,0.09478470874122302
12.210384,6.691220292749662,0.09446908892456542
12.212788000000002,6.709660404205864,0.09414065348083839
12.215172,6.726750041221708,0.09384333906811615
12.217552,6.742628973424052,0.09356822277331074
