Time,Force,Position
13.806707999999997,0.19240953326976373,0.0
13.809092,0.19385255550873975,0.0
13.811471999999998,0.1913839240534991,0.0
13.813868,0.1849110911054248,0.0
13.816256,0.17320210124220456,0.0
13.818639999999998,0.15949101063256746,0.0
13.821036,0.14699062483642908,0.0
13.82342,0.13250938890268738,0.0
13.825799999999996,0.11507363605393695,0.0
13.828195999999998,0.10243348063093839,0.0
13.830583999999998,0.09144458951083266,0.0
13.832967999999996,0.08152663357736548,0.0
13.835363999999998,0.07403008727089576,0.0
13.837751999999998,0.06825610245712248,0.0
13.840148,0.06169072171043109,0.0
13.842551999999998,0.05605650652351803,0.0
13.844935999999995,0.04746777442159632,0.0
13.84732,0.04074137343923123,0.0
13.849723999999998,0.03415474208372637,0.0
13.852107999999998,0.028219737034279407,0.0
13.854491999999995,0.023495436798331184,0.0
13.856896,0.016908805442826323,0.0
13.859284,0.01274358371431894,0.0
13.861663999999998,0.011511628292006732,0.0
13.864059999999998,0.011511628292006732,0.0
13.866447999999998,0.011511628292006732,0.0
13.868827999999995,0.011511628292006732,0.0
13.871232,0.011350608056333053,0.0
13.873615999999998,0.011350608056333053,0.0
13.875999999999998,0.011350608056333054,0.0
13.878396,0.010770278940078745,0.0
13.880779999999998,0.009119014637185903,0.0
13.88316,0.007209461689386111,0.0
13.885559999999998,0.00651061355508506,0.0
13.887943999999996,0.008372944674641699,0.0
13.890328,0.014379246913892252,0.0
13.892723999999998,0.022828209388953753,0.0
13.895111999999996,0.0284836751846803,0.0
13.897492,0.03521007616704537,0.0
13.899891999999998,0.04421811714954771,0.0
13.902275999999995,0.05243476219913195,0.0
13.90466,0.06293304724885346,0.0
13.907055999999995,0.07394318897777265,0.0
13.909443999999995,0.08402216514691352,0.0
13.911828,0.0982451124357483,0.0
13.914223999999995,0.10953479341838791,0.0
13.916611999999995,0.12068470477416732,0.0
13.918992,0.12797018426397325,0.0
13.921388,0.13432449819400083,0.0
13.923776,0.14268091287044526,0.0
13.926156,0.14903522680047285,0.0
13.928555999999997,0.15524977110364022,0.0
13.93094,0.15557653218560377,0.0
13.933324,0.1536929504572337,0.0
13.93572,0.1493879591018661,0.0
13.938108,0.14200993181344315,0.0
13.940492,0.13356096933838166,0.0
13.942888,0.13141909896510465,0.0
13.945276,0.12913745896496734,0.0
13.947655999999998,0.12364301340491449,0.0
13.950059999999995,0.1217334604571147,0.0
13.952447999999997,0.1164713323225391,0.0
13.954828,0.11190805232226456,0.0
13.957224,0.1104178082550454,0.0
13.959612,0.10171055713507691,0.0
13.961996,0.09486563713466512,0.0
13.964388,0.09016258750753035,0.0
13.966776,0.09211746642570405,0.0
13.96916,0.09593467646343438,0.0
13.971556,0.0945369801948323,0.0
13.973944,0.0947220757920664,0.0
13.976339999999997,0.09621042400141633,0.0
13.978735999999998,0.10416970930097133,0.0
13.981123999999998,0.11531582894101225,0.0
13.983507999999995,0.1287416927233212,0.0
13.985903999999998,0.14854404993934894,0.0
13.988291999999998,0.17993780689542793,0.0
13.990672,0.21396214443729894,0.0
13.993067999999996,0.24947483018851985,0.0
13.995455999999995,0.2891295912015654,0.008751922091060908
13.99784,0.32771152117010327,0.018216459094346982
14.000235999999996,0.3746720453187767,0.027513973956634425
14.002623999999996,0.4264262710353328,0.03669669312561748
14.005004,0.4803204712672967,0.045937847065828236
14.007403999999998,0.541709321947861,0.05518498907950994
14.009791999999996,0.6129670108757802,0.06409513155146368
14.012172,0.6906011932374181,0.07284251933643551
14.014571999999998,0.7763816523537146,0.08118155323876394
14.016955999999997,0.8675148915453342,0.08945470057665462
14.01934,0.9674932556259134,0.09766687760661842
14.021735999999995,1.0733834782892568,0.10584952448184985
14.024123999999995,1.1845339332293063,0.11396028204001064
14.026508,1.29968858966219,0.12195436191234554
14.028903999999995,1.4179635038563718,0.1297723739800585
14.031291999999995,1.5371714794682012,0.1374128678232797
14.033672,1.6474890042206973,0.14512323201131744
14.036071999999995,1.7411399925536701,0.15309824034672176
14.038459999999995,1.8308812230502953,0.16103957673051053
14.04084,1.9197857316436289,0.16894454777296192
14.043236,2.0045481649751373,0.16813767976631971
14.04562,2.0858673711791225,0.16667771100064707
14.048015999999995,2.15987891838961,0.1653847643759731
14.05042,2.2273269807112754,0.1642966260159898
14.052808,2.292215759636953,0.16308906018292205
14.055187999999998,2.3518915281141672,0.16189459346326437
14.057592,2.400907062411109,0.16112156306260814
14.05998,2.4386107362217193,0.16066629922178605
14.062359999999998,2.4598801910382835,0.16100332462068004
14.064756,2.4765882617124424,0.16133191943574512
14.067144,2.4893865745502537,0.16164930572316402
14.069523999999998,2.4965525680590215,0.16202047789469662
14.071924,2.497294846305827,0.16246353938329988
14.074312,2.4963617848881796,0.1628373548877112
14.076691999999998,2.4949168667913346,0.16317005257659967
14.079088,2.490910769440631,0.163682905364225
14.08148,2.4904895647021816,0.16406260705775783
14.083859999999998,2.4939327918297054,0.16426311315157596
14.086256,2.4931395000389176,0.16460489962370678
14.088644,2.4924859778749906,0.16491992360790547
14.091023999999996,2.495417348323317,0.16509242108451247
14.093424,2.502864776943674,0.1650858628263008
14.095812,2.5105917448177517,0.1650370963330361
14.098191999999996,2.5218110575054657,0.1647642743675986
14.100592,2.530888499819902,0.164614049360803
14.10298,2.545133626612428,0.16430330282841174
14.105359999999996,2.562172250084289,0.1638730168456516
14.107764,2.582144139862345,0.1632877189900392
14.110152,2.610543741506649,0.16219673618046704
14.112531999999998,2.6350789112849795,0.16128668511628097
14.114928,2.6585431458766715,0.16045327018842706
14.117316,2.6841492508416405,0.1595084710480389
14.119699999999998,2.70961558617975,0.15858278246636132
14.122096,2.730146554465247,0.15791545239799032
14.124484,2.745881925324993,0.1574846871271403
14.126863999999998,2.757752864318764,0.15721662355627758
14.12926,2.7722775303650105,0.15687012934933905
14.131647999999998,2.791085937157811,0.15629891134640528
14.134031999999998,2.8126878406299465,0.15560606402651622
14.136428,2.834429513728942,0.15491185879836342
14.138815999999998,2.8561711868279374,0.15424432081340014
14.141199999999998,2.8760505288073763,0.15366568504753247
14.143596,2.8953707922793743,0.15316508930270673
14.145984,2.910826623885399,0.15282945109067816
14.148363999999995,2.9254910595585057,0.1525000245692156
14.150759999999998,2.936570602619359,0.15229862619138462
14.153147999999998,2.9473706064264933,0.1521371600650183
14.155531999999996,2.959101775793404,0.15194446671095657
14.157927999999998,2.965897578107704,0.15195463156527098
14.160315999999998,2.979491078594173,0.1517032119566097
14.162699999999996,2.995366219080778,0.151341510231998
14.165095999999998,3.010170424380745,0.15103820929030687
14.167483999999998,3.0241832337477934,0.15074452549013742
14.169863999999995,3.0384755823685623,0.15040747285012776
14.172259999999998,3.0521163046832736,0.1500630254031561
14.174647999999998,3.073765429983652,0.14939342400982353
14.177028,3.088477087485001,0.14900149998233528
14.179423999999996,3.0982533779337396,0.14880758350252754
14.181811999999995,3.1063071068897807,0.14865757944660543
14.184212,3.1124985047262657,0.1485720611282167
14.186608,3.115105009950497,0.14859256922713546
14.188996,3.117711515174729,0.1486134664937098
14.191375999999998,3.122599660399098,0.14852177316255236
14.193772,3.130421071929662,0.1483243256257965
14.19616,3.138661792340807,0.14807052426923953
14.198543999999998,3.1458315775653127,0.14786444055035483
14.20094,3.156353937976595,0.14750725403206721
14.203328,3.1668762983878764,0.1471540988739074
14.205707999999998,3.182753334732351,0.14657557601785784
14.208104,3.1921122121583774,0.14620399565745815
14.210492,3.1991894495842663,0.1459445250016188
14.212871999999996,3.2087806444357705,0.14564287975167683
14.215272,3.224378141526524,0.14514357420713356
14.217655999999998,3.242117508990556,0.1445614182190644
14.220039999999996,3.260508502760645,0.14398239385313305
14.222435999999998,3.2718222591048454,0.14365638854243473
14.224823999999998,3.290353022501794,0.1430700375621819
14.227207999999996,3.311537512951218,0.14241703122667834
14.229603999999998,3.3350036434007793,0.14166721641075253
14.231991999999998,3.3584697738503406,0.1409174015948267
14.234371999999995,3.3844498617255163,0.14012240076871446
14.236767999999998,3.4121525110933884,0.1393070237774377
14.239159999999998,3.438923994901482,0.13853287276852197
14.241543999999998,3.4638331475900195,0.13781935096392914
14.243939999999998,3.4924669625176703,0.13701831738605866
14.246327999999998,3.521380316699042,0.136182972365599
14.248724,3.543216433454524,0.1355841605811654
14.251123999999995,3.5662632550235043,0.13494269959708585
14.253511999999995,3.586748897338627,0.13443901463973204
14.255892,3.608957101146447,0.13389730968832544
14.258288,3.6322362401409047,0.1333225636000659
14.260676,3.6512788602170523,0.1328250947546664
14.263056,3.6623130773075316,0.13257245981317045
14.265448,3.675069855890708,0.1322977080022174
14.267836,3.688478260779942,0.13202913871269853
14.270215999999998,3.70617040641573,0.13161341825228745
14.27262,3.718927184998906,0.13134202960196345
14.275008,3.730240941343106,0.13107107978579324
14.277387999999998,3.73806235287367,0.13093557698996897
14.279784,3.744673059590735,0.13084905187844856
14.282172,3.751703075188381,0.13072186565404537
14.284551999999998,3.755148198173774,0.13066594019106534
14.286956,3.755520285226112,0.13070164685229985
14.289344,3.755752602651589,0.13075156388279915
14.291724,3.7539828193306493,0.13085639379100403
14.29412,3.753144201569488,0.13094029726388565
14.296508,3.7603139867939936,0.13080513282185677
14.298887999999998,3.7645505057123048,0.13074590951795828
14.301284,3.7658537583244205,0.13076077936872663
14.303672,3.767157010936537,0.1307755640107818
14.306068,3.7658065364961777,0.13083761998067994
14.308463999999995,3.768180724294932,0.13081865360861808
14.310848,3.7754902791462985,0.1306707766122701
14.313228,3.777724697318192,0.13066551288040731
14.315624,3.779587028437749,0.1306252479943592
14.318012,3.7793074891840295,0.13065263323629797
14.320396,3.7816816769827835,0.13063397925028852
14.322792,3.7864300525802923,0.1305971848823019
14.325176,3.7951826296706344,0.130453399231564
14.327572,3.806077077134254,0.1302416778294395
14.329975999999998,3.8140382582916774,0.13010451142259416
14.332359999999998,3.8249327057552973,0.12989585605081178
14.33474,3.8399711243386103,0.1295683314980829
14.337144,3.854730003668203,0.12926669009103406
14.339531999999998,3.869349113370936,0.12898089436951346
14.341915999999998,3.8838284534468084,0.12871077553596202
14.344312,3.890439160163874,0.12863754431063792
14.346699999999998,3.89555962281372,0.12863570245056205
14.349079999999995,3.902961725463704,0.12855296455653506
14.351484,3.910783136994268,0.12842984396295942
14.353872,3.9187443181516923,0.12829201320687872
14.356251999999998,3.917626161136811,0.12840219912207473
14.358656,3.91543706893529,0.1285449009922093
14.361044,3.9163210126668258,0.12860059657656067
14.363423999999998,3.9170651867715005,0.12866999480111113
14.36582,3.9190200656896743,0.1286919927393201
14.368208,3.92032331830179,0.1287067523713999
14.370587999999998,3.9220458797944864,0.128681578079215
14.372984,3.9249791461006818,0.12861219389458342
14.375372,3.928052182033737,0.1285304600490425
14.377751999999996,3.9332670883400693,0.12838595132889835
14.380147999999998,3.9355487283402066,0.1283102669395406
14.382535999999998,3.9375508290866237,0.12826157830506832
14.384915999999995,3.9390410731538426,0.12819198643038154
14.387315999999998,3.939088294982086,0.12811984418058214
14.389699999999998,3.93955482569091,0.12800967249013195
14.39208,3.9441653275194275,0.127788657563392
14.394479999999998,3.9542702749079974,0.1274019430121981
14.396867999999998,3.9662375534161254,0.1269834399395955
14.399248,3.976714587857034,0.1266323615337147
14.401643999999996,3.987843248603999,0.1262878195777018
14.404031999999996,4.00940172196363,0.12565665611095975
14.406416,4.028166698643926,0.12507769493199736
14.408811999999998,4.0450693442046655,0.12453509480334547
14.411199999999996,4.063182694578902,0.12395215504902284
14.41358,4.080225109766502,0.12340291294084257
14.415975999999995,4.095405193834544,0.12289075647610233
14.418363999999997,4.108583177156171,0.12243199799016287
14.420744,4.117896728611823,0.12205965069642927
14.423143999999995,4.127210280067475,0.12169059861992693
14.425531999999995,4.134242191522991,0.12139337586170593
14.427912,4.145557843725061,0.12098304326114478
14.430315999999998,4.153288603314877,0.1206272613216409
14.432703999999998,4.162741924397389,0.12025107480684166
14.435084,4.1737780373457385,0.1198674406297253
14.437479999999995,4.1825325102939495,0.11955437467333975
14.439867999999995,4.193149314361717,0.1192148063149277
14.442248,4.20055331286957,0.11896345214480453
14.444644,4.207026145817645,0.11873061829374702
14.447035999999995,4.218853654698911,0.11836467895826554
14.449416,4.2338939691400945,0.11792231592683565
14.451819999999998,4.244371003581002,0.11761570455625911
14.454203999999995,4.255359894701108,0.11732515308321466
14.456584,4.2684906561944915,0.11698203704737008
14.458992,4.278129072874238,0.11674121713981617
14.461375999999998,4.286836323994207,0.11651460560832651
14.463756,4.300199402913067,0.11621685687802051
14.466164,4.311141072204928,0.11599313289620881
14.468547999999998,4.320452727802712,0.11584040253623999
14.470927999999995,4.330555779333413,0.11568669288475361
14.473323999999998,4.345454428289867,0.11544843769886104
14.475711999999998,4.357652128365602,0.11531387609457722
14.478095999999995,4.373015412173009,0.11516634713203401
14.480491999999998,4.391451731913472,0.11495800123816645
14.482875999999996,4.41282131796013,0.1147019953909407
14.48526,4.435401608820288,0.11440802344132867
14.487655999999998,4.452766993374112,0.11423060326732411
14.490043999999996,4.469992608301077,0.11406398748963754
14.492428,4.488009619160959,0.11389790464690937
14.494823999999998,4.501742889274286,0.11383473323678547
14.497211999999998,4.5114719578947815,0.11384865338364952
14.499592,4.523762205769135,0.11378220251035928
14.501987999999995,4.5374029280838455,0.11366798281157037
14.504375999999995,4.5515555070777545,0.11357559371350186
14.506756,4.570271366071938,0.11336504400216925
14.509155999999996,4.593782822491874,0.11308196474262719
14.511543999999995,4.608913788873804,0.11291594784416596
14.513939999999998,4.631401531935344,0.11259762353941943
14.516336,4.657800928691101,0.1121526099822101
14.518724,4.679125188767385,0.11180169257811394
14.521103999999998,4.6957936210447775,0.11151909832060701
14.523504,4.709016930336776,0.1112638763282617
14.525887999999998,4.719866051830022,0.11101500920400416
14.528271999999998,4.725779806270656,0.11085464397915844
14.530668,4.72489586253912,0.11080528562490115
14.533055999999998,4.7248033147405035,0.11075399793770996
14.535435999999995,4.727923572501801,0.11063233051419842
14.537831999999998,4.7302524343301835,0.1105123149695307
14.540219999999998,4.727134072426754,0.11045832747831591
14.5426,4.7222931490306275,0.11041956077877271
14.544999999999998,4.7202457223138365,0.1103418487164153
14.547387999999998,4.715916655596909,0.11032200824624618
14.549768,4.717082034440034,0.11017594141100837
14.552167999999998,4.714662520670905,0.11006886107784954
14.554555999999998,4.711823698021196,0.10999366559585759
14.556935999999997,4.702606486079899,0.10999215806794387
14.559331999999998,4.700698828989968,0.10990463564725376
14.561719999999998,4.692924639287647,0.10990905884055381
14.564116,4.686453702197443,0.1099298234594985
14.566512,4.68682768510765,0.10978958963303906
14.5689,4.688691912085075,0.10959706280638942
14.571279999999998,4.693489405368696,0.1093585137298955
14.573684,4.700848077906175,0.10904680005411095
14.576072,4.708486289697374,0.10871347653245451
14.578452,4.7173352063020735,0.10834345514746445
14.580848,4.72767436697399,0.1079247758275045
14.583236,4.736942592459269,0.10752919039826447
14.585615999999998,4.7443484868249906,0.10715278106356114
14.58802,4.756270439362743,0.10672573955306695
14.590404,4.7695428663408554,0.1062531818598713
14.592783999999998,4.777368069587158,0.1058391182621144
14.59518,4.78533304246032,0.10541483899144066
14.597568,4.7870121738405125,0.10511734959919881
14.599947999999998,4.790972945220842,0.10476486295367131
14.602344,4.791488593615778,0.10443762609933119
14.604731999999998,4.793726803503411,0.10409549242723737
14.607111999999995,4.794382221525207,0.10375844204167432
14.609507999999998,4.795037639547003,0.1034202549666614
14.611895999999998,4.793179100143186,0.10309715602046371
14.614292,4.784755179992676,0.10291237506467077
14.616688,4.774561476521226,0.10279992421593671
14.619076,4.767301039355973,0.1026442128888326
14.621455999999998,4.757479422936861,0.10256022411248598
14.623852,4.751242699130003,0.10244346176210838
14.62624,4.749661803122034,0.10227424740747532
14.628619999999998,4.74551972786021,0.10217635851274853
14.631016,4.742588357411885,0.10204826494435498
14.633404,4.748736325135865,0.10178102280254557
14.635787999999998,4.754092896926927,0.10151472769893001
14.638184,4.7636859876363,0.10123116068753385
14.640572,4.783941208383815,0.10081625385426482
14.642951999999998,4.802194328384912,0.10042862721001758
14.645347999999998,4.818957204318791,0.10008584159169372
14.647735999999998,4.837163102491647,0.09975618647261086
14.650132,4.860816224396311,0.0993821177272832
14.652528,4.887914469286369,0.0989916088089904
14.654919999999995,4.912591304549429,0.09865882659050358
14.6573,4.936848830931909,0.0983524059577136
14.659703999999998,4.9629686884339455,0.09803139883287956
14.662091999999998,4.996026013735009,0.09761720771378393
14.664472,5.033367079782628,0.09712972454079279
14.666867999999996,5.06856627545697,0.09668780897694698
14.669255999999995,5.109352464489985,0.09619701710969451
14.671636,5.145203286470383,0.09577209371393781
14.674035999999996,5.180122942891004,0.09536451703861297
14.67642,5.215973764871404,0.09494794375536006
14.678804,5.254618083531138,0.09451522466029189
14.681207999999998,5.286836791071043,0.09419842549236732
14.683591999999996,5.3217092256634215,0.09386975986301466
14.685972,5.352856998016686,0.09357794619009123
14.688367999999995,5.373994266637868,0.09341487126964003
14.690755999999997,5.400066902311661,0.09319646508249307
14.693136,5.433636084291923,0.092865278967527
14.695532,5.462689208100153,0.09256382889347158
14.69792,5.487877900042412,0.0923058619139509
14.7003,5.511623569745693,0.09204072029830636
14.702696,5.537790649075972,0.09172614851110453
14.705084,5.5694521739663045,0.0913267536777685
14.707468,5.600694389976057,0.09095777387603934
14.709864,5.627932404492974,0.09063955417273638
14.712252,5.653028548636614,0.09035652619598875
14.714636,5.677193527220478,0.09008128756664469
14.717028,5.6949801165127525,0.08984884877736368
14.719416,5.714908576178304,0.08958473158334941
14.721799999999998,5.732834935097438,0.0893443597391858
14.724196,5.751320372524013,0.08907299694082821
14.726584,5.764870442897976,0.08885415712403011
14.728963999999998,5.778560282898802,0.08862691358380578
14.73136,5.788665230287371,0.0884194956867569
14.733748,5.7998411128625795,0.08819799881184705
14.736144,5.815812592863542,0.08793435040918395
14.738543999999996,5.827640101744809,0.0877229141364945
14.740931999999995,5.832250603573325,0.08759911245747268
14.743312,5.842168559506792,0.08745245889369846
14.745715999999998,5.850363953947563,0.08731025680618501
14.748103999999998,5.8562777083881965,0.08720534999255684
14.750487999999995,5.864193563575248,0.08708124971292808
14.752879999999998,5.869967548389022,0.08698765589957551
14.755267999999996,5.8741587413369585,0.0868909966930072
14.757648,5.879700408725255,0.08676529018769252
14.760043999999995,5.884590449807492,0.08663045015740131
