Time,Force,Position
13.375375999999996,0.04518677792670261,0.0
13.37776,0.05155834247328087,0.0
13.380144,0.05592780627344229,0.0
13.38254,0.06351007563351932,0.0
13.384924,0.07002140980695779,0.0
13.387308,0.07946601028659145,0.0
13.389704,0.0849064092733914,0.0
13.392088,0.09341984419324673,0.0
13.394467999999998,0.0999311783666852,0.0
13.396864,0.10444041179370683,0.0
13.399252,0.10215877179356955,0.0
13.401631999999998,0.0972302294859673,0.0
13.404032,0.08871679456611198,0.0
13.40642,0.08192592113895308,0.0
13.408799999999998,0.07355225584595795,0.0
13.411196,0.06769254797857738,0.0
13.413579999999998,0.06383494085761364,0.0
13.415976,0.061839664856206546,0.0
13.418376,0.06225897373678718,0.0
13.42076,0.06718751604438944,0.0
13.423144,0.07002823455196755,0.0
13.42554,0.06472078044701805,0.0
13.427928,0.0615551967153456,0.0
13.430307999999998,0.05397292735526858,0.0
13.432708,0.04746159318183012,0.0
13.435096,0.03801699270219647,0.0
13.437475999999998,0.03257659371539652,0.0
13.439872,0.024063158795541183,0.0
13.442264,0.0175518246221027,0.0
13.444643999999998,0.013042591195081067,0.0
13.44704,0.01239778963403293,0.0
13.449424,0.01239778963403293,0.0
13.45182,0.01239778963403293,0.0
13.454212,0.012397789634032931,0.0
13.4566,0.012397789634032931,0.0
13.45898,0.012397789634032931,0.0
13.461384,0.012397789634032931,0.0
13.463768,0.012397789634032931,0.0
13.466148,0.010402513632625841,0.0
13.468544,0.0054739713250235794,0.0
13.470932,0.002267990510117749,0.0
13.473311999999998,0.0012038800684889795,0.0
13.475708,0.0,0.0
13.478096,0.0,0.0
13.480488,0.0,0.0
13.482895999999998,0.0,0.0
13.485279999999998,0.0,0.0
13.48766,0.0,0.0
13.490064,0.0001329448818504488,0.0
13.492451999999998,0.0002658897637008976,0.0
13.494832,0.00039883464555134636,0.0
13.497236,0.0013231754603199057,0.0
13.499624,0.0013231754603199055,0.0
13.502003999999998,0.0013231754603199055,0.0
13.5044,0.0013231754603199057,0.0
13.506783999999998,0.0013231754603199057,0.0
13.509168,0.0053148646345361275,0.0
13.511572,0.017964687242608402,0.0
13.513956,0.03503612436622577,0.0
13.516339999999998,0.056948484885968834,0.0
13.518736,0.08486525178709323,0.0
13.521119999999998,0.11729618100237978,0.0
13.523504,0.15596383402452488,0.0
13.525899999999998,0.20356915973424647,0.010168131436848369
13.528287999999998,0.2577379703327902,0.019885295345009046
13.530668,0.31432629470046225,0.029867414615395417
13.533063999999998,0.37677925582265537,0.03972643363901677
13.535451999999998,0.4458882496322876,0.04942879089064466
13.537832,0.5239417408745062,0.05867523491185602
13.540228,0.6097694218190457,0.06756386352466678
13.542616,0.7023003572792674,0.07624765026509697
13.544996,0.7992529072550342,0.08493076744558886
13.547392,0.9031342044269509,0.0935850811657417
13.54978,1.0191659798463597,0.10181325162801999
13.55216,1.146092202729388,0.10957321165965911
13.554563999999996,1.2780935622918885,0.1170805677348298
13.556948,1.4015871745081414,0.12475288434600824
13.559328,1.5133496173574832,0.13258833415269156
13.561724,1.6242753383035322,0.1402874636312028
13.564112,1.7319429277192921,0.14795338777298198
13.566491999999998,1.8330942540744732,0.15559269617449728
13.568896,1.9285679351302365,0.16319978303186128
13.571284,2.0162221005133047,0.17083977838921174
13.573664,2.0927967228355193,0.1684349740336304
13.576067999999998,2.161457385828553,0.166590046807858
13.578452,2.2275587654255986,0.16450305941597568
13.580836,2.28407084602901,0.16271127974882993
13.583235999999998,2.3339268939449815,0.16107616185367768
13.585623999999996,2.374006651412216,0.16001686720711905
13.588004,2.410408968468579,0.15918838081156253
13.590407999999998,2.4399682613824,0.15858793375777502
13.592791999999998,2.4645940831014785,0.1579418142595139
13.595172,2.480282232132981,0.15747992601382874
13.597568,2.480235010304738,0.1576056536829148
13.599956,2.469013801759155,0.15824931005096446
13.602336,2.453788391720738,0.15907299162779212
13.604732,2.4433585791080734,0.15968262259510949
13.60712,2.436281341682184,0.16008026419803856
13.609515999999998,2.422406406084127,0.16083222480069922
13.611911999999998,2.4103938016056254,0.161474785598821
13.614295999999998,2.4003360760452983,0.1621238189371174
13.616676,2.3922332294031445,0.16278322378127186
13.619084,2.3886464409330217,0.1632528164107724
13.621467999999998,2.3869219835824564,0.16364549711053805
13.623848,2.3881307925380857,0.16388874935460754
13.626252,2.3890600622399947,0.16417810076543418
13.62864,2.397718195673851,0.16408176433258642
13.631019999999998,2.406516098734567,0.16396333389288786
13.63342,2.414150518810028,0.16380710066838308
13.635808,2.414754923287843,0.1639288624585231
13.638187999999998,2.4161507236985758,0.16403000606121118
13.640592,2.4161960496689496,0.16424473692919492
13.64298,2.423318613065212,0.1640641739363303
13.645359999999998,2.436679796126203,0.1636227639540325
13.647756,2.4539054110531673,0.16299829706749394
13.650144,2.4696407819129123,0.1625097090467033
13.652523999999998,2.485748239824995,0.16207426662387175
13.654928,2.503578259229774,0.16159185503502138
13.657316,2.525552249754247,0.16085482226738942
13.659696,2.543010182106688,0.160317694868169
13.6621,2.5600960274067925,0.15974341044189727
13.664488,2.578252807893535,0.15911921416403177
13.666868,2.5925451565143045,0.158687558717861
13.669264,2.606325648455876,0.15822515186205854
13.671648,2.618383578904751,0.15782372024914076
13.674032,2.63472525010018,0.1571919115654598
13.676428,2.6477143461088333,0.15677886679661623
13.678812,2.662286233983323,0.15633983077744854
13.681191999999998,2.6825848848433425,0.15566959112056208
13.683592,2.7046060971960584,0.1549179969306747
13.68598,2.7276982447354134,0.15411867011856745
13.688359999999998,2.754654824140742,0.1531589138645078
13.69076,2.779469533172793,0.15236086209393207
13.693148,2.801630515152369,0.15166218465589276
13.695527999999998,2.8174131078403573,0.15118730728939814
13.697932,2.8345461749687044,0.15061860072742767
13.70032,2.8515394724701917,0.15007005330731346
13.702699999999998,2.8691843962777366,0.1495456137954209
13.705096,2.888971190458559,0.14893639188420582
13.70748,2.910899855012658,0.14822473203347222
13.70986,2.933619915499675,0.14751570841751238
13.712264,2.9531271704267765,0.14695689708013937
13.714652,2.972215116473297,0.14644225628343274
13.717031999999998,2.9940965591991526,0.14583868273026646
13.719428,3.015326375618951,0.1452252634424253
13.721816,3.032691760172776,0.14477322686247437
13.724195999999996,3.0523387847267376,0.14421718049844243
13.726591999999998,3.07226534853442,0.14363981856695063
13.728979999999998,3.0863253797297125,0.14328095386444142
13.73136,3.1048089212984187,0.14272446683696513
13.733755999999998,3.119428031001151,0.14229789274297971
13.736143999999998,3.132976205517245,0.1419288584379598
13.73854,3.1442427400332025,0.14167086976576024
13.740936,3.154717878616241,0.14142253107830507
13.743324,3.1678467442517544,0.1411003043121006
13.745703999999998,3.1837691065666025,0.1407054830522131
13.7481,3.2041149792548653,0.1401327686428256
13.750488,3.2207361897040148,0.13967118603077563
13.752867999999998,3.2352155297798872,0.13930714134547148
13.755264,3.250626035415538,0.13892593333332645
13.757651999999998,3.268830037730524,0.1384868090458159
13.760032,3.2922489463518425,0.13786889261736315
13.762427999999998,3.322233235719852,0.13701325717356927
13.764815999999998,3.350215424341445,0.13623088610168516
13.767212,3.377638534455597,0.13549967171549113
13.769608,3.4035714005025297,0.13484536402015204
13.771992,3.425220525802908,0.1343536439758582
13.774375999999998,3.4435170759165104,0.13399603997316153
13.776772,3.4647468923363083,0.13354760547332814
13.77916,3.4812736591289717,0.13330698253760875
13.781539999999998,3.503666958534025,0.13289574000635995
13.783936,3.522847452379163,0.13259893632949746
13.786324,3.5421677158511615,0.1322837182995231
13.788707999999998,3.564141706375634,0.1319158995417092
13.791104,3.5859759272732474,0.13156015409143157
13.793492,3.6008726803718316,0.13141678524112746
13.795875999999998,3.611625462350722,0.13141943272305143
13.798272,3.6226577835833322,0.13139032798527753
13.80066,3.6307568385097477,0.13144520405351123
13.803039999999998,3.6364344838091656,0.13160717730458793
13.80544,3.6325209342570797,0.13203200053604638
13.807823999999998,3.6286073847049938,0.132445328149381
13.810207999999998,3.6182682240330766,0.1330706904476941
13.812604,3.6088602289209377,0.13367215344279815
13.814991999999998,3.604667140115131,0.134103978995859
13.817388,3.605037331309599,0.13436294928440867
13.819784,3.6098310328774814,0.13446536812698956
13.822172,3.61239031627347,0.13457441680751148
13.824556,3.6121561029901232,0.13474893032467916
13.826952,3.6156937737741335,0.13475638645593568
13.82934,3.616577717505669,0.13481401911640042
13.831724,3.6213733149314207,0.13469467888606368
13.83412,3.6285903219841695,0.1344789595460616
13.836508,3.6330138323575842,0.13432609572957283
13.838888,3.641721083477553,0.13403910991702975
13.841284,3.6556432409038533,0.13359176294542932
13.843672,3.6689137720240965,0.13313877597989726
13.846056,3.6839068646370356,0.13265965732663496
13.848452,3.7027643891159485,0.13208400872993892
13.85084,3.7229723880352203,0.13144561249659323
13.853224,3.7498383154998005,0.1306343996033533
13.855627999999998,3.768835609605574,0.13003314970325716
13.858012,3.7882522125919276,0.12938303537364232
13.860392,3.807668815578282,0.12873837419303702
13.862788,3.823360756325522,0.12818841464293368
13.865176,3.8359796611397066,0.12773440366648653
13.86756,3.844594364461058,0.1273915528937637
13.869956,3.862660493007053,0.12684414184866655
13.872344,3.8855222189788,0.1261889595927878
13.874724,3.905962535323549,0.12563355027536183
13.87712,3.928404952414715,0.12503935615977343
13.879508,3.947355024692245,0.12457204669531924
13.881887999999998,3.9638836873427774,0.12419904876338542
13.884284,3.9842767818592835,0.12374501942330196
13.886672,3.9966614733901222,0.12348668298856534
13.889055999999998,4.007975229734322,0.12326278270957415
13.891452,4.019288986078523,0.12303976560393708
13.89384,4.029671576862945,0.12283521803507125
13.896236,4.039262771714449,0.12263829677804024
13.898631999999996,4.0440583691402,0.12253838619874197
13.90102,4.046479778767197,0.12245275124393307
13.9034,4.051043058767471,0.12230331375363322
13.905796,4.058260065820221,0.12211429427823445
13.908184,4.064685676940052,0.12193107889513252
13.910564,4.070831748806163,0.12177367404614944
13.91296,4.075767115858775,0.12165882900253286
13.915348,4.083635749217582,0.12147871809452082
13.917728,4.083495979590722,0.12149148345468933
13.920124,4.082425044404084,0.12152093101871608
13.922512,4.079491778097889,0.12158489430958852
13.924896,4.0693415047389445,0.12183341414001958
13.927292,4.062124497686195,0.12201704917958303
13.92968,4.054907490633445,0.12220126407770197
13.932072,4.041684181341446,0.1225278242165503
13.934471999999998,4.036748814288834,0.12263923911031413
13.936859999999998,4.03302415204972,0.1227068493630555
13.93924,4.029159720183746,0.12278687858733336
13.941636,4.028368324250828,0.12279101299779363
13.944024,4.024503892384855,0.12287007218250086
13.946404,4.029579029064327,0.1227502836699012
13.948804,4.037028353542553,0.122619083574053
13.951188,4.051275376192949,0.12235261679311239
13.953572,4.062728902164008,0.1221355551954141
13.955971999999996,4.074973824067987,0.12191605356366267
13.958356,4.089640155598963,0.12161925258611726
13.960736,4.1067278967569365,0.12124231016174415
13.963136,4.117949105302519,0.12098238243519797
13.965524,4.132383119408018,0.12063625321917709
13.967904,4.143744097580461,0.1203637182847007
13.9703,4.159249046872598,0.11999131114001987
13.972688,4.179968902471067,0.11948279643295717
13.975072,4.201899462883036,0.11894525268816955
13.977464,4.226111663295142,0.11834478308538988
13.979852,4.253257130013442,0.1176743048195776
13.982248,4.277841417477885,0.11711292493659797
13.984647999999998,4.301215000128829,0.11659866269090928
13.987035999999998,4.324728352406634,0.1160733405154985
13.989416,4.340233301698772,0.11571424574702266
13.991811999999998,4.355738250990909,0.11534858836100562
13.994199999999998,4.364305732484017,0.11513141183847687
13.99658,4.370219486924651,0.11494845014324487
13.998979999999998,4.369335543193117,0.11489587546632558
14.001367999999998,4.372455800954414,0.1147610647665273
14.003748,4.373713727596156,0.1146557493756988
14.006144,4.372829783864621,0.11460346521647805
14.008535999999998,4.372737236066004,0.11454868355384384
14.010916,4.379442386439555,0.1143706729909391
14.013315999999998,4.387078702372885,0.11418084651508424
14.0157,4.39778805423927,0.11392680550388629
14.018084,4.406495305359239,0.11371453763007666
14.020479999999996,4.4152025564792075,0.11350427518299583
14.022868,4.420045375733203,0.11336118481914559
14.025248,4.423677490173699,0.11325510931615829
14.027644,4.431593345360748,0.11305496330434318
14.030032,4.433782437562269,0.11294255612180401
14.032427999999998,4.432898493830734,0.11289149586261925
14.034824,4.431595241218617,0.11287368031410452
14.037211999999998,4.4389520178982265,0.11271338698270443
14.039592,4.454317197563504,0.1124067182716736
14.041987999999998,4.47620053614723,0.11201219072494147
14.04438,4.500085975477372,0.11158131812087309
14.04676,4.529558408166183,0.11107584098650328
14.04916,4.553815934548663,0.11068026312614589
14.051548,4.577793921677422,0.11030217586565899
14.053931999999998,4.602004226231658,0.1099651114203953
14.056328,4.626354300412754,0.10962469159697438
14.058716,4.647631338660796,0.10934752434220317
14.061095999999996,4.671562103961312,0.10905262004451366
14.0635,4.693350998888552,0.10880532099055927
14.065888,4.716862455308487,0.10854713075543919
14.068267999999998,4.740094372474702,0.10831192163323904
14.070664,4.765700477439671,0.1080727020513551
14.073052,4.789304481658224,0.10786702638858103
14.075431999999998,4.806902183637525,0.10776616409119558
14.077827999999998,4.833439454162272,0.10751977333139062
14.080215999999998,4.8641206958067125,0.10719483072043176
14.082599999999998,4.89815451263793,0.10679803129227333
14.084996,4.930465767976451,0.10642402656541908
14.087383999999998,4.956770721075722,0.10615682486687986
14.089764,4.976417745629685,0.10597814014161719
14.092159999999998,4.997647562049481,0.10580068207141807
14.094547999999998,5.014501089924109,0.10565962110352951
14.096928,5.037640459291707,0.10540928559883311
14.099327999999998,5.06506356940586,0.10508075902298368
14.101711999999996,5.091323196534756,0.10472304087639274
14.104096,5.114230248476876,0.10443625358999854
14.106491999999998,5.137277070045856,0.10413932362793961
14.108879999999996,5.151943401576832,0.1039366210921493
14.111264,5.166889272361529,0.10371473130794845
14.113659999999998,5.181695373519365,0.10350483229850534
14.116047999999996,5.1978519491175605,0.10325883089745057
14.118443999999998,5.215778308036693,0.10295133165909005
14.12084,5.233844436582689,0.10263223868626363
14.123228,5.255635227367797,0.10227321280381828
14.125607999999998,5.2696971544209585,0.10201486998409878
14.128008,5.282176289608284,0.10176008132543228
14.130392,5.291722158489414,0.10154598025302813
14.132775999999998,5.299405696250985,0.10135225459373856
14.135176,5.307229003639418,0.10114956321907469
14.137564,5.318404886214627,0.10088191780670994
14.139943999999998,5.3302796169241375,0.10057383137954952
14.142344,5.342805973939706,0.10027450895987314
14.144732,5.350257194275801,0.10005016100797919
14.147111999999998,5.355054687559422,0.0998457668997681
14.149512,5.361062885656542,0.09961491517981517
14.1519,5.371494594127076,0.09930614357524564
14.154284,5.383276777037968,0.0989637045941996
14.15668,5.39720083032214,0.09858172125167534
14.159068,5.411404422860031,0.09818323465388093
14.161452,5.420440330919832,0.09780888974039613
14.163848,5.426542972673438,0.0974709271325706
14.166236,5.426499542560934,0.09722063301865506
14.16862,5.427946356515648,0.09692612302483003
14.171016,5.427670608977666,0.09664081725222111
14.173404,5.432609767746017,0.09627791126660748
14.175788,5.436198452074008,0.09594975003205883
14.178184,5.435782934909166,0.09567089511317656
14.180572,5.434436252184544,0.09540017905543861
14.182956,5.432810030206205,0.09514730713085143
14.185352,5.428110772294808,0.09493734353420419
14.18774,5.416334276957522,0.09482146674265571
14.190124,5.403906155314179,0.09469576799301993
14.19252,5.391757572924556,0.0945517527115052
14.194912,5.379189681654353,0.09443407084457611
14.197292,5.36634225113043,0.09433352117425348
14.199692,5.3454864176208385,0.09433504909774136
14.20208,5.325282210417304,0.09434381271760045
14.204464,5.306800564706468,0.0943447635751419
14.20686,5.286828674928412,0.0943892266213351
14.209251999999998,5.271233073695527,0.09441096387969568
14.211636,5.257499803582199,0.09441580059289131
14.214028,5.245628864588427,0.09440494292532015
14.216416,5.234269782273852,0.09441167439484492
14.218796,5.2230504695861395,0.094408860940179
14.221192,5.208338812084788,0.09447409380382647
14.22358,5.198562521636051,0.0944804509041271
14.22596,5.193861367866786,0.0944204724604469
14.228363999999996,5.191302084470797,0.09432664044876143
14.230748,5.189301879582249,0.09419724207898823
14.233128,5.191026336932815,0.09403648781621803
14.235531999999996,5.197266852455412,0.09384393906412072
14.23792,5.204158994284067,0.09366121227011073
14.2403,5.2124941583516975,0.09348961408003223
14.242699999999996,5.2219002576059665,0.0933018305272598
14.245088,5.233168687979794,0.09309980771934495
14.247468,5.253376686899065,0.09279195295596504
14.249864,5.2698600235792235,0.09251605869323387
14.252252,5.285132655445884,0.09226502700281512
14.254632,5.302547157685822,0.09198060300011657
14.257028,5.3202411991794785,0.0916807058059677
14.259416,5.335141743993801,0.09140388461131063
14.261796,5.356048591047373,0.09105914121678751
14.264192,5.376955438100946,0.09071703914279997
14.26658,5.399724616274077,0.09036367121198172
14.268959999999998,5.421702398514287,0.0900057720013169
14.271364,5.437673878515249,0.08972052872813259
14.273748,5.458720495195683,0.08938136646113523
14.276127999999998,5.477345702249117,0.08909133232984208
14.278536,5.494480665235335,0.08884253433001839
14.28092,5.506680261168939,0.08864545058105397
14.2833,5.517716374117288,0.08842033878916136
14.285704,5.531965292625552,0.0881513917361183
14.288092,5.545702354454619,0.08786480519502651
14.290472,5.559439416283686,0.08758009006557116
14.292868,5.573176478112752,0.08729850302396945
14.295256,5.580767468075708,0.08709132528170008
14.297636,5.59129172434486,0.08685630959524611
14.300039999999996,5.608101822106982,0.08654430581656627
14.302428,5.625051689495965,0.08622647466405756
14.304808,5.63985968651167,0.08593828157922807
14.307207999999996,5.660394446512906,0.08560676066230198
14.309592,5.673060573155333,0.08535125658664908
14.311976,5.683724599051345,0.08511629587825958
14.314372,5.692526293827799,0.08489515111245405
14.31676,5.706542894910587,0.08461344324677082
14.31914,5.723912071180149,0.08428172936283003
14.321536,5.731922370023687,0.08406134436316669
14.323924,5.744076639986917,0.08379512479784865
14.326304,5.756650218830728,0.08350411469268476
14.328704,5.775369869540651,0.08314710128891228
14.331092,5.795392772862687,0.08281185150576849
14.333472,5.811411474691891,0.08251781346578642
14.335872,5.829292507640652,0.08221512067185809
14.33826,5.846382144656495,0.08191164912998926
14.34064,5.862820155366279,0.08160108989164798
14.343036,5.88233120200912,0.08125813158549097
14.345424,5.9017024790251,0.08092540062594687
14.347808,5.909992317122357,0.08069737635519554
14.350204,5.918421924846474,0.08046331993585511
14.352592,5.930995503690284,0.08018718650943907
14.354988,5.938633715481484,0.0799535392228398
14.357383999999998,5.949344963205738,0.07968842793982642
14.359771999999998,5.965131347609466,0.0793777211508653
14.362152,5.982640293505888,0.0790668243349446
14.364547999999996,5.997727829775314,0.07879924018082116
14.366939999999998,6.013746531604519,0.07853005985920739
