Time,Force,Position
13.333451999999998,0.12056798020900397,0.0
13.335839999999996,0.1327203543143653,0.0
13.338224,0.15087903065897718,0.0
13.340619999999998,0.17076026849628545,0.0
13.343007999999998,0.19143290226651186,0.0
13.345388,0.209823896036601,0.0
13.347783999999995,0.23038250529850593,0.0
13.350171999999995,0.24877349906859514,0.0
13.352552,0.26651286653262635,0.0
13.354948,0.28131896769046244,0.0
13.357336,0.2902585362359082,0.0
13.359731999999996,0.29612506884829853,0.0
13.362127999999998,0.30385393258024546,0.0
13.364515999999998,0.31530745855130576,0.0
13.366899999999998,0.32475888377594914,0.0
13.369296,0.3308577338138168,0.0
13.371683999999998,0.33509425273212773,0.0
13.374063999999995,0.335326570157605,0.0
13.376468,0.33490726127702436,0.0
13.378851999999998,0.32955258534383175,0.0
13.381231999999995,0.32233557829108245,0.0
13.383627999999998,0.312976700865056,0.0
13.386011999999996,0.29789106045349956,0.0
13.388392,0.2797323841088877,0.0
13.390795999999998,0.26078231183135775,0.0
13.393183999999998,0.2471869154870205,0.0
13.395564,0.23452268470246146,0.0
13.397968,0.22106705798498433,0.0
13.400351999999998,0.20374699940153368,0.0
13.402735999999996,0.18456460969852645,0.0
13.405127999999998,0.17217991816768788,0.0
13.407511999999995,0.15979522663684928,0.0
13.409896,0.14661913917309255,0.0
13.412291999999995,0.12820240028446467,0.0
13.414676,0.11271892770203197,0.0
13.417071999999996,0.09796004837243903,0.0
13.419467999999998,0.08478396090868234,0.0
13.421851999999998,0.0776141756841762,0.0
13.424232,0.06816275045953278,0.0
13.426627999999996,0.06285529635458328,0.0
13.429015999999995,0.05603185306387588,0.0
13.431411999999998,0.04934817940002868,0.0
13.433816,0.04545800241551645,0.0
13.4362,0.04370969580428129,0.0
13.438579999999998,0.04196138919304611,0.0
13.440976,0.037000277021895345,0.0
13.443364,0.029105898544549414,0.0
13.445743999999998,0.02307385118676012,0.0
13.44814,0.01983530050830579,0.0
13.450527999999998,0.018459080949408097,0.0
13.452907999999995,0.014149595084315235,0.0
13.455303999999998,0.0109110444058609,0.0
13.457691999999998,0.007532724100546358,0.0
13.460072,0.007532724100546359,0.0
13.462467999999998,0.007532724100546359,0.0
13.464855999999996,0.006947900474566776,0.0
13.467251999999998,0.006642616102307616,0.0
13.469655999999995,0.003404065423853283,0.0
13.472044,0.002307385118676012,0.0
13.474424,0.0,0.0
13.476827999999998,0.002726693999256643,0.0
13.479215999999996,0.002726693999256643,0.0
13.481596,0.006244783931431396,0.0
13.483991999999995,0.006550068303690556,0.0
13.486379999999995,0.008577914168646148,0.0
13.48876,0.008577914168646148,0.0
13.491156,0.008577914168646148,0.0
13.493544,0.008577914168646148,0.0
13.495924,0.00916273779462573,0.0
13.498324,0.009747561420605313,0.0
13.500712,0.009747561420605313,0.0
13.503092,0.010332385046584895,0.0
13.505495999999996,0.010777439045704267,0.0
13.50788,0.010777439045704267,0.0
13.51026,0.010777439045704267,0.0
13.512656,0.010777439045704267,0.0
13.515044,0.010777439045704267,0.0
13.517423999999998,0.010777439045704267,0.0
13.51982,0.010777439045704267,0.0
13.522204,0.010777439045704267,0.0
13.524587999999998,0.008050745046447623,0.0
13.526992,0.008050745046447623,0.0
13.529376,0.0053970179939728715,0.0
13.531755999999998,0.007027031688052245,0.0
13.534152,0.0069344838894351835,0.0
13.53654,0.014736314568164061,0.0
13.538923999999998,0.021467210060254406,0.0
13.541328,0.03006043667190139,0.0
13.543712,0.0348560340976532,0.0
13.546091999999998,0.04137419301610144,0.0
13.548496,0.04768577962761116,0.0
13.550884,0.05341254261314129,0.0
13.553264,0.05927907522553163,0.0
13.555664,0.06251762590398596,0.0
13.558048,0.06775827732885714,0.0
13.560432,0.07458172061956454,0.0
13.562828,0.08233632947005026,0.0
13.565216,0.0910221038803143,0.0
13.567595999999998,0.10250137496991331,0.0
13.569992,0.11290971087287378,0.0
13.57238,0.12224711158919574,0.0
13.574759999999998,0.13051357711887915,0.0
13.577156,0.13298031271625052,0.0
13.579544,0.13544704831362192,0.0
13.58194,0.136982618351215,0.0
13.584343999999998,0.13037001577628046,0.0
13.586727999999995,0.12799393211965687,0.0
13.589108,0.12249759070173478,0.0
13.591507999999996,0.12561405674729484,0.0
13.593892,0.1297070143230071,0.0
13.596276,0.14231833570571523,0.0
13.598679999999998,0.1597233586563059,0.0
13.601067999999998,0.18355209686885854,0.0
13.603448,0.21729689515700915,0.0
13.605843999999998,0.2573256390802614,0.007494223589699853
13.608231999999996,0.30270716307883716,0.014976974671624945
13.610612,0.3547447197648521,0.022463991883261133
13.613007999999995,0.4099931861529134,0.030164776730153206
13.615395999999995,0.4645881303770476,0.038250615246036665
13.617776,0.5236046891167268,0.0465329844375814
13.620179999999998,0.5875547190511488,0.05503510920476534
13.622567999999998,0.6584403209267304,0.06354976245373291
13.624948,0.7439903584754187,0.07178580882189421
13.627347999999998,0.8319599097932351,0.0801331553126044
13.629731999999995,0.925282241186375,0.08852547088541439
13.632112,1.0262389926549758,0.09690380853883084
13.634508,1.129243170840367,0.10529636740312884
13.636896,1.2403482998100428,0.11352660083756308
13.639276,1.3529436728469377,0.1214924931889279
13.641672,1.4647023239805408,0.1293740522431462
13.64406,1.5668716761205093,0.137339944594511
13.646439999999998,1.6650387226255134,0.1452864538057196
13.64884,1.7588767024135896,0.15322164915842834
13.651228,1.8508995729103521,0.16100441173526545
13.653607999999998,1.9346363970255962,0.16129295072240277
13.656004,2.0098548573338446,0.16162776837300144
13.658392,2.0774861193948753,0.16195831989388898
13.660775999999998,2.144280659552614,0.16198497989901853
13.663179999999995,2.2146619881804748,0.16138794396356473
13.665564,2.2866280045320413,0.16038776936074467
13.667944,2.355802420062142,0.15911677651325923
13.67034,2.421114299584138,0.1577521263143178
13.672728,2.4773487367916975,0.15667291384123083
13.675112,2.5343292439618015,0.15538846859030758
13.677508,2.5916837340421126,0.1539006696037897
13.679896,2.6434059047933793,0.1524616022781161
13.682292,2.6881925036034864,0.15104629480632345
13.684687999999998,2.7269274742039693,0.14978298117876285
13.687075999999998,2.7544884580871116,0.14897066700930842
13.689456,2.7779054708505613,0.1483587062000909
13.691851999999995,2.8031848147335667,0.14766241209372685
13.694236,2.8256706619372376,0.14706721651694651
13.69662,2.845922090969014,0.14650230589113425
13.699016,2.8580725692165063,0.14622703453514552
13.701404,2.872085378583555,0.14588523027464084
13.703784,2.8914056420555534,0.14538062028283405
13.706187999999996,2.9077926392213564,0.144990470811104
13.708575999999995,2.9190119519090705,0.1447564295571482
13.710956,2.925295897544172,0.14474709916507777
13.713352,2.9252940016863027,0.14503627902589317
13.71574,2.926363041015072,0.14527084151395583
13.71812,2.9242192747839253,0.14565836513774738
13.720519999999995,2.9244969181797766,0.14590231456240524
13.722908,2.9196068770975385,0.1462724429862008
13.725288,2.908850303402909,0.14685281434385708
13.727687999999995,2.8995839737755,0.14732757241803
13.730072,2.894042306387204,0.147681907063094
13.732456,2.8887801782526283,0.14799695498158597
13.734852,2.8896641219841643,0.148064520377535
13.73724,2.897485533514728,0.1478704333477559
13.739624,2.9082402113514876,0.1475760186134143
13.74202,2.9231388603079407,0.14711266837643266
13.744404,2.9373858829583357,0.1466398715945158
13.746803999999996,2.956847811915063,0.14594441762888014
13.749199999999998,2.9730969353118755,0.14539142270999428
13.751587999999998,2.9825483605365193,0.1450809343067513
13.753968,2.9980060880004125,0.14454147844340426
13.756367999999998,3.015326146583864,0.14393603824278509
13.758751999999998,3.027710838114702,0.14350399982382492
13.761135999999995,3.039304133712623,0.14307187457574053
13.763527999999996,3.048336250056686,0.14279865109581832
13.765915999999995,3.0595102367740257,0.14242451020789373
13.7683,3.063467216438616,0.14236039033907066
13.770695999999996,3.0651425561030687,0.14241455674542108
13.77308,3.0673297524467196,0.1424925681216712
13.775464,3.0710997406562073,0.14254419691874742
13.777859999999997,3.0727278584924176,0.14269683476375863
13.780248,3.0732850411419887,0.14289909092097364
13.782643999999998,3.073842223791561,0.14309906332980332
13.78504,3.067881247522684,0.14350777599716225
13.787427999999998,3.0597784008805307,0.14400352116139853
13.789807999999995,3.048322979051601,0.14465569237401835
13.792212,3.037519183528729,0.14531704650617636
13.794596,3.0253649135654985,0.146050108298447
13.796975999999995,3.015492283602405,0.14667516296817812
13.799384,3.012557121438341,0.14704340134173122
13.801768,3.005198448900862,0.14761071733468736
13.804147999999998,2.99970210748294,0.148116785198855
13.806548,3.0004916075579886,0.14836853210615084
13.808936,3.0032832083794547,0.14854598197700797
13.811315999999998,3.008356449201058,0.14861210068498365
13.813712,3.010496423716466,0.1487829638323487
13.8161,3.0147782686051507,0.14885818056453745
13.818483999999998,3.0293501564796403,0.1485111965686067
13.82088,3.042479022115154,0.14816121029401813
13.823268,3.053605787004251,0.14789739028468243
13.825647999999996,3.0678055878264026,0.14751567166952415
13.828052,3.078932352715499,0.14725032390558088
13.83044,3.0871258512984,0.14709361293477943
13.832824,3.0979730769337768,0.14686243285287726
13.83522,3.105887036262958,0.14673685565991038
13.837604,3.117944966711833,0.1464385161164834
13.839987999999998,3.1302824364144284,0.14610446466298607
13.842384,3.140757574997467,0.14582953832722179
13.844772,3.154165979886701,0.1454584904988207
13.847155999999998,3.1604971473500463,0.14536367509520123
13.849552,3.1692497244403883,0.14513905285637577
13.85194,3.173998100037897,0.1450667622734171
13.854323999999998,3.1773960011950466,0.14507769280721786
13.85672,3.1857292694048085,0.14491510843180228
13.859108,3.192991602427932,0.1448002025328427
13.861487999999998,3.2039785976901682,0.14457284268821435
13.863888,3.2189697944452385,0.14419982152743913
13.866276,3.2224602434010055,0.14428572862731973
13.868655999999998,3.227673253849468,0.14433210574274932
13.871052,3.2359593002309865,0.14426541258459882
13.87344,3.241963706612368,0.1443039939206828
13.875823999999998,3.2539744152330004,0.14413309292380586
13.87822,3.2699893253464656,0.1438266854138819
13.880608,3.2847935306464326,0.1435778980642263
13.882991999999998,3.3056040381856504,0.14312516036096243
13.885396,3.3264145457248677,0.14269170005026105
13.88778,3.3478766795701427,0.14226727382284865
13.890159999999998,3.3682678782287794,0.1418728399236891
13.892556,3.383723709834804,0.1416449749485178
13.894944,3.404254678120301,0.14123649418501258
13.897323999999998,3.425437272711856,0.1408421523084948
13.89972,3.4499724424901865,0.14030504205427935
13.902112,3.47264528114896,0.13981660632456583
13.904491999999998,3.4925246231283995,0.1394249213355688
13.906888,3.5137544395481974,0.13897148221411634
13.909275999999998,3.5344723992887976,0.1385052787302993
13.911655999999995,3.553328027909841,0.13809304041338233
13.914051999999998,3.5816823035837713,0.13735024596956402
13.916439999999998,3.6161826511238124,0.13643289317199583
13.918823999999995,3.642814365305046,0.13574194066558548
13.921219999999998,3.667863287620444,0.13506451802354577
13.923607999999998,3.6889080084430077,0.13451345746394944
13.926004,3.703946427026321,0.13414048908737686
13.9284,3.7224771904232705,0.13363314719851807
13.930792,3.7380746875140245,0.133217707551002
13.933172,3.7488765871790277,0.1329262197802528
13.935568,3.758607551657391,0.13267010314510844
13.937956,3.7754157535616444,0.1322134417783585
13.94034,3.792223955465897,0.13175096743351775
13.942736,3.808100991810372,0.13131592778913245
13.945124,3.8234661714756486,0.1308664900459712
13.947504,3.839482977446984,0.13043142145060713
13.9499,3.857641653791596,0.1299279517694142
13.952288,3.870725193456735,0.12956559995840344
13.954672,3.8833894242412934,0.12925103666383345
13.957064,3.8947031805854935,0.1289991196917461
13.959452,3.907599728795531,0.12873716097680732
13.961835999999998,3.910206234019762,0.12876638178868258
13.964232,3.9061548106986854,0.1289432271476291
13.96662,3.9070387544302205,0.1289981712434229
13.968999999999998,3.907922698161755,0.12905329000437418
13.9714,3.910948512266567,0.12904212032235185
13.973783999999998,3.9162559663715166,0.12894895533099895
13.976167999999998,3.9204924852898277,0.128891832346695
13.978564,3.9268708745814154,0.12877179475849365
13.980951999999998,3.932969724619283,0.12867569140085033
13.983348,3.9425609194707865,0.12845728551134378
13.985747999999996,3.9462855817098994,0.12838234954386166
13.988132,3.95215211432229,0.12824365646130556
13.990516,3.956296085441984,0.12812948936137783
13.992911999999995,3.9560165461882635,0.1281559088290574
13.9953,3.954945611001625,0.12818760405114218
13.99768,3.954805841374765,0.12820056282811176
14.000079999999995,3.9577391076809603,0.12813164950778114
14.002464,3.9572272510017625,0.12811099363515088
14.004848,3.956855163949426,0.1280772504506279
14.007244,3.9559712202178905,0.12802310830226765
14.009632,3.9645859235392424,0.1276987147958753
14.012016,3.976925289099707,0.12730441348202712
14.014412,3.9884732587272533,0.12691736021987496
14.0168,4.005236134661132,0.12639658206467036
14.01918,4.0201366794754545,0.12591266939903425
14.02158,4.040624217648447,0.12533280522311077
14.023964,4.056176388768827,0.1248632184172558
14.026348,4.062649221716901,0.12461007681430188
14.028744,4.072334860224891,0.12426431873068994
14.031132,4.07587442686677,0.12407624829633195
14.033511999999998,4.079413993508649,0.12388699844356914
14.035908,4.084024495337167,0.12366991685054529
14.038296,4.090497328285242,0.12341850859274033
14.040679999999998,4.102324837166508,0.12301478616538039
14.043076,4.115223281234414,0.12258704301534752
14.045464,4.122115423063068,0.12229796147827596
14.047847999999998,4.131289204891861,0.12193981879494784
14.050244,4.14097484339985,0.1215982832920037
14.052632,4.151731417094479,0.12122844766976715
14.055028,4.1622084515353865,0.12088720945322054
14.057427999999998,4.166399644483324,0.12071254736293133
14.059815999999998,4.16593500963237,0.12062184226433977
14.062196,4.166261770714334,0.12052719513687497
14.064595999999998,4.160302690303326,0.12059190591985915
14.066983999999998,4.1560661713850156,0.12063623232233155
14.069364,4.1473135942946735,0.12074564313458877
14.071759999999998,4.144846858697302,0.12069995070074195
14.074151999999998,4.1505282957124585,0.12046552619081843
14.076532,4.157420437541114,0.12019449462629236
14.078931999999998,4.168456550489461,0.11982255074151557
14.081315999999998,4.183357095303784,0.11937887252356516
14.0837,4.191180402692217,0.11909002384715726
14.086099999999998,4.1948597389609565,0.11889948701770367
14.088487999999998,4.195605808923501,0.1187695562075222
14.090868,4.190997202952853,0.1187796321336734
14.093267999999998,4.193745373661813,0.11860512236907764
14.095655999999998,4.1931409691839985,0.11852728769167951
14.098035999999995,4.1969600750795975,0.11832698095144835
14.100431999999998,4.198777080228781,0.11817005608953886
14.102819999999998,4.197940358325488,0.11804752000683094
14.105203999999995,4.198314341235695,0.1178840654313784
14.107603999999998,4.198548554519042,0.11773145971151337
14.109991999999998,4.198922537429248,0.11756737476558929
14.112371999999995,4.20222978664565,0.11734257678536557
14.114772,4.2047456399291345,0.11712223377598396
14.117159999999998,4.204048687652703,0.11698545831648229
14.119539999999995,4.198648685749136,0.11699863202281424
14.121935999999998,4.193248683845569,0.11701023218285736
14.124327999999998,4.187289603434563,0.1170684478432441
14.126707999999995,4.180119818210056,0.11716478993059608
14.129108,4.169365140373297,0.11730692680833008
14.131496,4.165408160708706,0.11732254094373844
14.133879999999998,4.169878892910364,0.11713593456045962
14.136276,4.1780742873511345,0.11689220570914588
14.138668,4.19069319216532,0.11652795019169385
14.141047999999998,4.201682083285426,0.11624398131928558
14.143448,4.218956815898502,0.11582264349958298
14.145836,4.22901454145883,0.11555725325742673
14.148215999999998,4.241214137392435,0.11524135857534902
14.150612,4.252854654818598,0.11496694281609637
14.153,4.267148899297236,0.11466268448754778
14.155379999999996,4.287169906761405,0.11426456195325034
14.157784,4.306119979038934,0.11389425972371768
14.160168,4.3232077201969075,0.1135521255725043
14.162551999999998,4.344020123593994,0.11316100824961077
14.164948,4.37149045553639,0.11266256103290906
14.167331999999998,4.401382197105782,0.11208867471434392
14.169715999999998,4.430854629794594,0.11155831465703588
14.172111999999998,4.457813105057791,0.11104820118706946
14.174499999999998,4.487704846627183,0.11049311035374439
14.176879999999995,4.518108444875774,0.10995713703415379
14.17928,4.5498625175647245,0.10938757598366874
14.181667999999998,4.576913540626538,0.10896019323591113
14.184047999999995,4.601031297382158,0.1085865499064827
14.186443999999998,4.6258006804438345,0.10822759722740724
14.188831999999998,4.648056106079896,0.10788522064785185
14.191212,4.6608128846630725,0.10773790752486628
14.193616,4.681438296605056,0.10746154756475919
14.196004,4.703926039666596,0.10716800101525431
14.198383999999995,4.732979163474828,0.1067334024067762
14.200779999999998,4.76217205690992,0.10629545910384217
14.203163999999996,4.783496316986204,0.10598052272731488
14.205548,4.804960346689349,0.10565578226964463
14.207943999999998,4.829497412325548,0.10527832394170135
14.210327999999995,4.850170046095775,0.10496195054781549
14.212708,4.865395456134192,0.10470472400773766
14.215107999999995,4.878758535053053,0.10447035981712127
14.217492,4.890678591732936,0.1042294129537378
14.219891999999998,4.903250274718878,0.10399700086505478
14.222283999999998,4.913680087331542,0.10380912360906128
14.224671999999998,4.927043166250401,0.10358070126228379
14.227051999999995,4.935051569236069,0.10345613120223549
14.229447999999998,4.941337410729039,0.10334237418427125
14.231835999999998,4.946412547408511,0.10325866170210175
14.234219999999995,4.951627453714844,0.10316626096762897
14.236615999999998,4.9574939863272345,0.10308277562004808
14.239003999999998,4.967644259686179,0.10291398182225067
14.241384,4.974209640432871,0.10278077909401384
14.243779999999996,4.978493381179426,0.10269968653666148
14.246167999999996,4.9764912804330095,0.10273006704082843
14.248563999999998,4.973418244499953,0.1027799757778523
14.25096,4.979284777112343,0.10269980537981654
14.253348,4.985942705657652,0.10261960195639315
14.255731999999998,4.9903189942028225,0.10258888476934346
14.258128,4.993764117188215,0.10256804501335262
14.260516,4.9998629672260835,0.10252669115902925
14.262899999999998,5.009546709876203,0.10245566003204142
14.265296,5.017879978085966,0.10242329864021205
14.267684,5.030357217415421,0.10232421459995114
14.270063999999998,5.043533304879179,0.10217939892298013
14.27246,5.052053564544043,0.10208329563953124
14.274848,5.068721996821435,0.10186596582424197
14.277227999999996,5.088603234658744,0.10159327219030867
14.279623999999998,5.11104565174991,0.10125534431016407
14.282011999999998,5.129623636975102,0.10096500161250568
14.284391999999997,5.150203722946712,0.1006478903561389
14.286787999999998,5.1719945137318195,0.10030473908001658
14.289175999999998,5.191503664516791,0.10000672731258749
14.291556,5.211292354555482,0.09969193333867878
14.293955999999998,5.237087346833425,0.09929633278992561
14.296343999999998,5.265024209484644,0.0988699560898664
14.29874,5.286023604336834,0.09853782789307625
14.301143999999995,5.3090250999354405,0.09818326338750703
14.303528,5.332306134787768,0.09781066679183872
14.305908,5.3565183351998735,0.09742819276511157
14.308304,5.380730535611979,0.09704785478060247
14.310692,5.400426677852053,0.09670370238903767
14.313071999999998,5.41840025859943,0.09636405109282829
14.315468,5.428365436361141,0.09613115006210632
14.317856,5.434698499682354,0.09597876990215476
