Time,Force,Position
15.198592,0.0,0.0
15.200976,0.0,0.0
15.203379999999996,0.0,0.0
15.205768,0.0,0.0
15.208152,0.0,0.0
15.210547999999998,0.0,0.0
15.212939999999998,0.0,0.0
15.21532,0.0,0.0
15.217715999999998,0.0,0.0
15.220104,0.0,0.0
15.222488,0.0,0.0
15.224883999999998,0.0,0.0
15.227271999999996,0.0,0.0
15.229656,0.0,0.0
15.232051999999998,0.0,0.0
15.234439999999998,0.0,0.0
15.236824,0.0,0.0
15.239219999999998,0.0,0.0
15.241607999999998,0.0,0.0
15.243988,0.0,0.0
15.246384,0.0,0.0
15.248772,0.0,0.0
15.251156,0.00017323830626071043,0.0
15.253555999999998,0.002348577358938272,0.0
15.255943999999998,0.007457182717811004,0.0
15.258328,0.01577859363659933,0.0
15.260723999999998,0.02396023492852744,0.0
15.263111999999998,0.034283746593732616,0.0
15.265492,0.04246538788566073,0.0
15.267891999999998,0.05358029548378401,0.0
15.270276,0.06404357677584939,0.0
15.27266,0.07357569250813645,0.0
15.275055999999998,0.082036873053785,0.0
15.277444,0.08649385210659984,0.0
15.279824,0.091881996719193,0.0
15.28222,0.09806153726470426,0.0
15.284608,0.10223897706379867,0.0
15.286992,0.10548525130311476,0.0
15.289391999999998,0.10873152554243085,0.0
15.291779999999996,0.11104663422196862,0.0
15.29416,0.11104663422196862,0.0
15.296559999999998,0.11104663422196862,0.0
15.298947999999998,0.11087339591570791,0.0
15.301332,0.10869805686303034,0.0
15.303727999999998,0.1035894515041576,0.0
15.306115999999998,0.09526804058536928,0.0
15.308496,0.08708639929344117,0.0
15.310895999999998,0.07676288762823599,0.0
15.313283999999998,0.0685812463363079,0.0
15.315664,0.057466338738184616,0.0
15.318063999999998,0.047003057446119226,0.0
15.320451999999998,0.03747094171383216,0.0
15.322832,0.03085833913889761,0.0
15.325228,0.03025203880321362,0.0
15.327619999999998,0.028714572907751305,0.0
15.330004,0.024523379959814243,0.0
15.332399999999998,0.02247405738515424,0.0
15.334791999999998,0.01922778314583815,0.0
15.337172,0.015981508906522057,0.0
15.339572,0.013666400226984284,0.0
15.341955999999998,0.013666400226984284,0.0
15.344336,0.014304273384199536,0.0
15.346728,0.016013081728053314,0.0
15.349112,0.017721890071907095,0.0
15.351492,0.018639302482842766,0.0
15.353888,0.0210469589609976,0.0
15.356272,0.025596485812429487,0.0
15.358651999999998,0.03242765266399865,0.0
15.361067999999998,0.03925881951556781,0.0
15.363452,0.04529859043421887,0.0
15.365836,0.04733415986003622,0.0
15.368235999999998,0.04750739816629693,0.0
15.370623999999998,0.045658820195582935,0.0
15.373004,0.041808141478452104,0.0
15.375407999999998,0.03795746276132127,0.0
15.377795999999998,0.0365616623505884,0.0
15.380176,0.035817488245913444,0.0
15.38258,0.039343301738949954,0.0
15.384968,0.044079820045485205,0.0
15.387347999999998,0.04853679909830003,0.0
15.389748,0.05192284296447634,0.0
15.392136,0.05128496980726109,0.0
15.394515999999998,0.049576161463407306,0.0
15.396912,0.047867353119553535,0.0
15.399299999999998,0.046949940708617854,0.0
15.40168,0.044542284230463025,0.0
15.404075999999998,0.039992757379031144,0.0
15.40646,0.033161590527461975,0.0
15.408844,0.02633042367589281,0.0
15.411239999999998,0.020290652757241755,0.0
15.413624,0.018255083331424404,0.0
15.416019999999998,0.018081845025163693,0.0
15.418424,0.018081845025163693,0.0
15.420812,0.018081845025163693,0.0
15.423191999999998,0.018081845025163693,0.0
15.425584,0.017489297838322353,0.0
15.427972,0.016105354718562902,0.0
15.430352,0.012579541225526389,0.0
15.432756,0.007843022918991135,0.0
15.43514,0.003386043866176302,0.0
15.437519999999996,0.0,0.0
15.439924,0.0,0.0
15.442312,0.0,0.0
15.444691999999998,0.0,0.0
15.447096,0.0,0.0
15.449484,0.0,0.0
15.451864,0.0,0.0
15.454268,0.0,0.0
15.456656,0.0,0.0
15.459036,0.0,0.0
15.461439999999998,0.0,0.0
15.463827999999998,0.0,0.0
15.466208,0.0,0.0
15.468604,0.0,0.0
15.470992,0.0,0.0
15.473372,0.0,0.0
15.475775999999998,0.0,0.0
15.47816,0.0,0.0
15.48054,0.0,0.0
15.482943999999998,0.0,0.0
15.485331999999998,0.0,0.0
15.487712,0.0,0.0
15.490107999999998,0.0,0.0
15.492496,0.0,0.0
15.494876,0.0,0.0
15.497272,0.0,0.0
15.49966,0.0,0.0
15.50204,0.0,0.0
15.504436,0.0,0.0
15.50682,0.0,0.0
15.509199999999998,0.0,0.0
15.511604,0.0,0.0
15.513992,0.0,0.0
15.516367999999998,0.0,0.0
15.518776,0.0,0.0
15.52116,0.0,0.0
15.52354,0.0,0.0
15.525944,0.0,0.0
15.528332,0.0,0.0
15.530712,0.0,0.0
15.533115999999998,0.0,0.0
15.5355,0.0,0.0
15.53788,0.0,0.0
15.540279999999996,0.0,0.0
15.542668,0.0,0.0
15.545048,0.0,0.0
15.547451999999998,0.0,0.0
15.549839999999998,0.0012894994632731505,0.0
15.55222,0.0029038641506406284,0.0
15.554615999999998,0.005075411487579704,0.0
15.557004,0.010457868526565132,0.0
15.559384,0.02026194008109565,0.0
15.561787999999998,0.032625295031614626,0.0
15.564175999999998,0.0456856022585654,0.0
15.566556,0.06344706325478167,0.0
15.568951999999998,0.08763223951295987,0.0
15.571339999999998,0.11903252696601814,0.0
15.57372,0.15899840005431543,0.0
15.576116,0.20701800209865398,0.009349317268786904
15.578504,0.25852805309875937,0.01882278804454448
15.580888,0.3164618193608267,0.028005648140960376
15.583284,0.3797483656982174,0.037099083239948184
15.585672,0.44880700099151216,0.04598805729389755
15.588052,0.5227065596809326,0.05478372215097033
15.590448,0.6026577465799775,0.06335078266562783
15.592836,0.6838177424346519,0.07227926115474687
15.595216,0.7707498272452304,0.08105626902696235
15.59762,0.8600698530034058,0.08973228223211319
15.600008,0.9525101365228799,0.09822180177569036
15.602388,1.0473265036989774,0.10650601963533031
15.604784,1.1398631267328068,0.1147342627371815
15.607172,1.2309114015572864,0.12277267000996808
15.609552,1.3220541200382523,0.1306862141858537
15.611955999999998,1.4151536132952613,0.1384811377893455
15.614344,1.5043433487159228,0.14625523709080807
15.616724,1.5828256281280682,0.1543332800369165
15.61912,1.6538132570916129,0.16246675472531763
15.621508,1.7182374011663357,0.1704706501855418
15.623888,1.7760508385239935,0.16910673018145028
15.626284,1.8331673236052195,0.16747496953284982
15.628672,1.8837203237976228,0.16615967283805108
15.631052,1.929711939847621,0.1649128942109932
15.633452,1.9696519276879947,0.1639220530498043
15.635836,2.0069854103041367,0.16298753597837431
15.63822,2.038499582136132,0.1623619192831023
15.640616,2.0725296072516106,0.16119563931536723
15.643004,2.102649874530742,0.16009548506934176
15.6454,2.13095503251856,0.15901365377985902
15.647799999999998,2.159260190506378,0.15800542324765401
15.650187999999998,2.18421277330742,0.15727025766796957
15.652568,2.209165356108462,0.15655203070210671
15.654963999999998,2.2318362989093665,0.1560297652765208
15.657351999999998,2.253576076150493,0.15557829051276512
15.659732,2.2733137526452025,0.15525169467830582
15.662136,2.2958449258192477,0.15482133072789991
15.664523999999998,2.330248933844933,0.15379828942942178
15.666904,2.3646529418706184,0.15275921608580095
15.669304,2.397846245082805,0.15183756356666728
15.671691999999998,2.4302481523620734,0.15094189950720463
15.674068,2.460368419641205,0.15021680731296744
15.676472,2.489277982106837,0.14955686824085943
15.678859999999998,2.518978940505388,0.14889247404765327
15.68124,2.5516131652101337,0.14810139408841377
15.683631999999998,2.5838753028625416,0.14728618413285183
15.686019999999996,2.6208404901420854,0.14620859438252476
15.6884,2.6538014759287947,0.1453462680934297
15.690803999999998,2.6808959291031136,0.1447226994849864
15.693191999999998,2.7007733752246836,0.1444350350585375
15.695572,2.713061727241167,0.14445686620277132
15.697967999999998,2.726700553698009,0.14437587220189863
15.700355999999998,2.7401996105279904,0.14431947939786885
15.702732,2.7518363362384153,0.14433249036953658
15.705135999999998,2.760679565269505,0.14445579728362812
15.707523999999998,2.7710130383678147,0.14446128279164605
15.709904,2.777761618853871,0.1445913607176398
15.712307999999998,2.777992040421479,0.14495569608636052
15.714695999999998,2.781575037175863,0.14514158729847626
15.717076,2.7831559331838305,0.14541148522724306
15.719471999999998,2.7840852028857395,0.1456738928918676
15.721859999999998,2.784642385535311,0.14588977309413245
15.72424,2.791345640050993,0.1458362459220582
15.726636,2.7987477427009764,0.14569206027266196
15.729024,2.804287514231403,0.14561202064428247
15.731404,2.8058230842689964,0.14568964391397732
15.733807999999998,2.7982793161342836,0.14613186644630552
15.736195999999998,2.794879519119264,0.146392920980465
15.73858,2.798417189903274,0.14639212434639395
15.740975999999998,2.8113137381133106,0.1459882813648246
15.743363999999998,2.8330100852419324,0.1452536912136082
15.745744,2.8545666627436934,0.14454515862936373
15.748148,2.8773339450589543,0.14378334622008923
15.750536,2.899589370695017,0.14298000599110255
15.752912,2.922775961890858,0.1421372838269582
15.755311999999998,2.941539042713285,0.141509641356845
15.757695999999996,2.9581602531624345,0.14097107226151218
15.760076,2.9686353917454738,0.14068429372693456
15.762479999999998,2.97403539364904,0.14061560509065632
15.764867999999998,2.976641898873272,0.1406398567461252
15.767248,2.9780376992840045,0.14073607099164476
15.769643999999998,2.98287862268013,0.14074050591912465
15.772031999999998,2.9801304519711693,0.14102094787702146
15.774412,2.972307144582736,0.14151895212996715
15.776811999999998,2.9615505708881074,0.14213865739386458
15.779196,2.9569400690595895,0.14248303376400984
15.781576,2.958475639097183,0.14255927390328277
15.783983999999998,2.9514909494699104,0.14294910747053058
15.786371999999998,2.939710662416887,0.14351798837584134
15.788752,2.9237864042441686,0.14425711517614573
15.791152,2.9042772534591976,0.14507440973587626
15.793535999999998,2.8841164763681695,0.1458804934519665
15.79592,2.8631643033442224,0.14667943514240864
15.798324,2.8450056269996105,0.1473905333700948
15.800712,2.826986720281859,0.14808479002558558
15.803091999999998,2.8131117846838007,0.14860903281776655
15.805492,2.8015184890858804,0.14902481325586345
15.807875999999998,2.795279869421153,0.1492046163153716
15.810259999999998,2.7901121849430637,0.14933791875877778
15.812656,2.7897400978907267,0.14929320020517275
15.815044,2.789647550092109,0.14920922429042327
15.817424,2.7821056778152653,0.14939212759148993
15.819819999999998,2.778288467777535,0.14944274814875963
15.822207999999998,2.777776611098337,0.14941738194850657
15.824592,2.780337790352195,0.14924712254031836
15.826987999999998,2.7775442936728605,0.14935002923368748
15.829375999999998,2.7726089266202485,0.14955868132046007
15.831756,2.773912179232364,0.1495691813449032
15.834151999999998,2.777589619643235,0.14953406721973386
15.836536,2.7832691608005216,0.1494102102343608
15.838931999999998,2.786667061957671,0.1494156823531884
15.841328,2.7925789205404348,0.14935922372792618
15.843716,2.7970005350559797,0.14941630510500964
15.846095999999998,2.8010028406909444,0.14953233807551475
15.8485,2.8098007437516603,0.14946759541981172
15.850884,2.818738416439237,0.14938936315058005
15.853263999999998,2.8292588809926498,0.14928844191507695
15.855655999999998,2.839220267038622,0.14926211845465834
15.85804,2.8539772505103462,0.1490685140242572
15.860435999999998,2.8710158739822065,0.14877014781085504
15.86284,2.891918929320042,0.14834215454672495
15.865228,2.918688517270266,0.14769057712719802
15.867603999999998,2.943595774100934,0.14709930104306454
15.87,2.970133044625682,0.14639912461689195
15.872388,2.993876818471094,0.1457837043495169
15.874764,3.0201817715703645,0.14501600227551115
15.877168,3.0447641631769384,0.1442787942320463
15.879552,3.0686949284774543,0.1435458407270064
15.881932,3.093184772285411,0.14274651777863506
15.884336,3.1148811194140333,0.14204055635347826
15.88672,3.1377881713561533,0.14126124256795494
15.8891,3.1583210354995193,0.14053151053762006
15.891495999999998,3.1772711077770492,0.1398136009034222
15.893883999999998,3.197571654494938,0.1390238355410929
15.896276,3.2104228767346004,0.1384741349933161
15.898676,3.2214117678547063,0.1379878900712906
15.90106,3.230817867108976,0.1375272205582088
15.903439999999998,3.243436771923161,0.1369396762021959
15.905848,3.2512600793115936,0.13651140678692686
15.908232,3.2580124515133884,0.1361363397648315
15.910616,3.2618315574089882,0.13585819456455797
15.913012,3.263788332185031,0.13563221231705636
15.915396,3.2686783732672695,0.13531760922192712
15.917775999999998,3.271706083229951,0.13505498969671068
15.92018,3.2798089298721047,0.1346279254841088
15.922568,3.2879117765142585,0.1342065937108453
15.924948,3.3028123213285805,0.13360044484702813
15.927352,3.3173407790905647,0.13296157504241052
15.929736,3.3320090064794097,0.1323155287694105
15.932116,3.3488191042415316,0.1315965340112614
15.93452,3.3639066405109572,0.13090178281830273
15.936908,3.3776437023400248,0.1302736157918295
15.939288,3.394174260848427,0.12957531887370294
15.941684,3.4067006178639954,0.12899782601317272
15.944072,3.421880701932038,0.12836104396429812
15.946452,3.437712412306138,0.12773540159202315
15.948848,3.4571290152924927,0.12704825830645095
15.951236,3.476685387905706,0.12636782476936434
15.953615999999998,3.497033156451838,0.12567674539181503
15.95602,3.5141681194380547,0.1250970085303484
15.958404,3.5319547087303294,0.1245265049946593
15.960784,3.549321989142023,0.1239999855588797
15.963188,3.567340895859775,0.12349426171497963
15.965576,3.5883856166823387,0.12298800445700972
15.967956,3.607520784557103,0.12261373184074469
15.970359999999998,3.628098974670843,0.12225178642527347
15.972747999999998,3.646255755157586,0.12199832622078638
15.975132,3.665436249002724,0.12179488611648262
15.977527999999998,3.684197433967281,0.12163596874733879
15.979915999999998,3.7022597707975375,0.12154665074815797
15.982292,3.7226962954265477,0.12144183882866327
15.984695999999998,3.7460660863617536,0.1212694395177415
15.987083999999998,3.7714379780433767,0.12105499473969043
15.989464,3.801605467150751,0.12073882870530121
15.99186,3.8305622514446265,0.1204630966007199
15.994244,3.859658805365363,0.12017687943567262
15.996624,3.881026495554152,0.12005821654753074
15.999028,3.898250214623247,0.12005307144731803
16.001412000000002,3.918407199998537,0.11998445805694512
16.003791999999997,3.939635120560466,0.11988178308824145
16.006195999999996,3.95820931406992,0.11981555544250509
16.008584,3.9790651475795116,0.11967562708763523
16.010964,3.9952651532902115,0.11962357999299472
16.013368,4.005366308963043,0.11965435521980604
16.015755999999996,4.012441650531064,0.11968883975324551
16.018136,4.0127192939269145,0.11987435581052565
16.020539999999997,4.006618548031177,0.12017423452497611
16.022923999999996,3.9990747798964645,0.12046858466746975
16.025304,3.989808450269055,0.12078616826952214
16.027707999999997,3.980030263962448,0.1210820503047819
16.030096,3.9736046528426168,0.12126665310797116
16.032476000000003,3.9662478761630076,0.12146651052856076
16.03488,3.955957833177203,0.12172803770725266
16.037267999999997,3.9448763942584795,0.12198797330362744
16.039648,3.935005660153256,0.12220747497019434
16.042051999999998,3.9249951564211716,0.12243821389651653
16.04444,3.923132825301615,0.1224715836431374
16.046816,3.921270494182058,0.12250540697326598
16.049224000000002,3.9175458319429457,0.12257181522489986
16.051608,3.9134490826514945,0.12260431237533452
16.053992,3.9156381748530147,0.12247509342362826
16.056384,3.9159649359349786,0.12237913468945476
16.058771999999998,3.921366833696414,0.1221660415592869
16.061147999999996,3.929701997764045,0.12188985015051615
16.063552,3.9401790322049526,0.12155549381602375
16.065939999999998,3.9558709729521926,0.12108288364491443
16.06832,3.977708985565544,0.120456462219228
16.070712,3.9974051278056186,0.11988485115832219
16.073099999999997,4.021896867471444,0.11922428434468149
16.07548,4.046947685644711,0.11851689080154248
16.077883999999997,4.06506103601895,0.11796628373492406
16.080272,4.0822432208334085,0.11743398941793991
16.082651999999996,4.097423304901452,0.11694271950484038
16.085056,4.107947561170604,0.11653320495513254
16.08744,4.12140508374595,0.11606718896679448
16.089824,4.1332798144554594,0.11560841210040733
16.092219999999998,4.140079408485497,0.11527216086569152
16.094603999999997,4.148229476955894,0.11488200974034918
16.096987999999996,4.152654883187178,0.11455338437129063
16.099384,4.160525412403854,0.11418959057880465
16.101771999999997,4.163320804941058,0.11394437598927959
16.104152,4.1679785285978195,0.11367058787175818
16.106547999999997,4.16676971964219,0.11351181077941279
16.108936,4.165560910686561,0.11335307001658171
16.111316000000002,4.165795123969907,0.11320170425837561
16.11372,4.166448646133834,0.11301545916206365
16.116107999999997,4.1628184275512075,0.1129346561860622
16.118488,4.160398913782079,0.1128150497853498
16.120883999999997,4.151461241094502,0.1127967187453677
16.123267999999996,4.142755885832403,0.11282273874760632
16.125652000000002,4.139405206503497,0.11271733925440545
16.128048,4.135542670495392,0.11259003603397229
16.130432,4.134753170420343,0.11239575773474106
16.132816,4.137548562957547,0.1121551553951304
16.135211999999996,4.138900933255775,0.11191025215966009
16.1376,4.141184469113782,0.11165101282855477
16.13998,4.1445389401584265,0.11136534551770969
16.142379999999996,4.147613871949352,0.11110383712394818
16.144768,4.151619969300055,0.11082457594050309
16.147148,4.151761634784784,0.11061547671124705
16.149552,4.151623761015794,0.11042949650637636
16.151939999999996,4.148552620940608,0.11029839189918544
16.15432,4.1504168479180334,0.11007229580490722
16.156715999999996,4.149347808589264,0.10989959973975762
16.159104,4.146556207767798,0.1097438799195572
16.161484,4.141203427692475,0.10967616905300916
16.163888,4.137852748363568,0.10956817784844401
16.166275999999996,4.138226731273774,0.1094042861207843
16.168652,4.141394210863317,0.10919694934862091
16.171056,4.139905862653966,0.10905952665627686
16.173443999999996,4.136787500750537,0.10899732545179622
16.17582,4.1351121610860835,0.10894302161340855
16.178224,4.132505655861852,0.10890260467236247
16.180611999999996,4.13124962507798,0.10881279152631414
16.182992,4.127292645413389,0.10882120119896867
16.185392,4.12855057205513,0.10871627289386691
16.187779999999997,4.131810599443289,0.10857479207484565
16.19016,4.139214597951142,0.1083507765778465
16.192563999999997,4.1496916323920505,0.10806596358593923
16.194947999999997,4.163101933139154,0.10773349855809423
16.197328,4.179864809073032,0.10732023859081427
16.199723999999996,4.196627685006912,0.10690419991161856
16.202112,4.209386359447957,0.10656208278940572
16.204492000000002,4.226940631314754,0.10614534918546771
16.206896,4.240211162434997,0.10581909980828937
16.209283999999997,4.256554729488295,0.10543269494101573
16.211664,4.274248770981954,0.1050021957006781
16.214064,4.291011646915832,0.10459239922759682
16.216451999999997,4.309497084342407,0.10417290131292758
16.218832,4.333849054381373,0.10365412910955532
16.221235999999998,4.359551498860698,0.10309557338215222
16.223624,4.3853937129668825,0.10253045228528876
16.226003999999996,4.412167092632846,0.10195701338116273
16.2284,4.436519062671812,0.10145711709229677
16.230787999999997,4.461010802337638,0.10094024222079
16.233168,4.479216700510492,0.10055863002298056
16.235563999999997,4.495420497936931,0.10021485941467954
16.237947999999996,4.506688928310758,0.09995337856941681
16.240344,4.516886423497946,0.09971545788322306
16.242748,4.523219486819158,0.09953211766027996
16.245131999999998,4.527131140513377,0.09941446275116356
16.247512,4.533976060513788,0.09925465175465246
16.249907999999998,4.54682728275345,0.09900162104852137
16.252296,4.559678504993113,0.0987525661882786
16.254675999999996,4.581748835031941,0.09834886415433797
16.257072,4.602887999510991,0.09796046465660498
16.259459999999997,4.624678790296099,0.097588790906119
16.261843999999996,4.645678185148288,0.09722199842582922
16.26424,4.664023852948005,0.09687574988942052
16.266624,4.683440455934358,0.09651677511712697
16.269008,4.700715188547435,0.09619952498711366
16.271403999999997,4.718921086720291,0.0958768947716009
16.273787999999996,4.737126984893146,0.09555713164569422
16.276168,4.7557521919465815,0.09520829353432547
