Time,Force,Position
15.72886,0.056061509841759956,0.0
15.731239999999998,0.06089750435074515,0.0
15.733636,0.06480233329995204,0.0
15.736024,0.07070926299557577,0.0
15.738403999999996,0.07847852381075614,0.0
15.740808,0.08345428794660155,0.0
15.743192,0.082529947131833,0.0
15.745575999999998,0.082529947131833,0.0
15.747972,0.08234295567672963,0.0
15.75036,0.07875616720660732,0.0
15.752739999999998,0.08015007175947095,0.0
15.755135999999998,0.08740861306685566,0.0
15.757523999999998,0.10322591526446961,0.0
15.759904,0.12091047746878074,0.0
15.762299999999998,0.13859314381522264,0.0
15.764687999999998,0.15897486318451315,0.0
15.767072,0.180425621882573,0.0
15.769467999999998,0.20680985177537556,0.0
15.771855999999998,0.2386866313703618,0.0
15.774252,0.2801999317872255,0.009406019783097809
15.776648,0.3289283433989693,0.018686591023110998
15.779036,0.38529117508617383,0.027663187695898137
15.781415999999998,0.4476584131547597,0.036660477930805825
15.783812,0.5124451649924737,0.045678688007617055
15.7862,0.5812814442933955,0.05447948858240753
15.788579999999998,0.6574726044160573,0.06327300678579818
15.790976,0.7452030135633869,0.07189091744772703
15.793364,0.837920940478712,0.08035624467544955
15.795743999999996,0.9348753863123481,0.08877068005853185
15.798144,1.0378361343852347,0.09697347602985971
15.800527999999998,1.1411236435400849,0.10510402478558215
15.802911999999996,1.237056271873195,0.11339232839766364
15.805307999999998,1.325773789011425,0.12165559113852742
15.807695999999998,1.413654584246363,0.1297927135932242
15.810092,1.5016298231377874,0.1378355809138379
15.812492,1.5887683401259196,0.14578422034475272
15.814876,1.668831515546032,0.15385294366316823
15.817256,1.7471740253313168,0.16177634077190295
15.819652,1.8180218846680016,0.16972498020281773
15.822036,1.8752290216899754,0.16858971212991647
15.824415999999998,1.9280145441964034,0.16752898575220046
15.82682,1.9740968121871496,0.16679887041406302
15.829204,2.014826300102572,0.16610154322013815
15.831583999999998,2.0529965046220062,0.16528233234111367
15.833988,2.0856269376110137,0.1647356141107695
15.836376,2.1162099438832302,0.16410101885137574
15.838755999999998,2.1418122571324614,0.1635976441009778
15.84116,2.160431776612289,0.1633195922797936
15.843548,2.176444790867885,0.16304785065239924
15.845928,2.1869180335930545,0.16296277302083356
15.848331999999996,2.1979503548256654,0.16278896437908655
15.85072,2.2160599134841643,0.16219871262306243
15.8531,2.231655514717049,0.1616924851270698
15.855503999999998,2.2455285544572376,0.16127117838051938
15.857891999999998,2.2568876367718116,0.16094412676805198
15.860272,2.2688983453924436,0.16063620018337937
15.862676,2.2817004499459936,0.16029346810374348
15.865059999999998,2.291289748939628,0.16015995464158111
15.867444,2.3018102134930407,0.15998298867612343
15.869839999999998,2.3191283762186226,0.1594256547035402
15.872223999999996,2.3340251293172063,0.15905082525756517
15.874608,2.3507842135353463,0.15859019421089882
15.877003999999998,2.369964707380485,0.15795223080265428
15.879388,2.386351704546288,0.15745436556129638
15.881772,2.399433348353558,0.15704529863317232
15.884171999999998,2.4090698691754358,0.15677317523003922
15.886559999999998,2.418194533318115,0.15648074717321464
15.88894,2.4302524637669904,0.15603432628581104
15.891336,2.439796436790251,0.15567280712333448
15.893724,2.4489211009329312,0.15538169103564978
15.896104,2.453901793955917,0.1553390042148814
15.8985,2.453807350299431,0.15557812394469972
15.900888,2.457297799255198,0.15567481419327622
15.903263999999998,2.4578549819047693,0.15591934150078737
15.905668,2.458412164554341,0.15616386880829855
15.908056,2.457526324964937,0.15641828784056042
15.910436,2.460784456495226,0.15644280298049668
15.912839999999996,2.4671156239585708,0.15630344506923693
15.915227999999995,2.4740058699293566,0.1560797587253319
15.917608,2.481315424780723,0.15579902491132033
15.920004,2.4943989644458626,0.1551670307033831
15.922388,2.5057599426183055,0.1545942016237847
15.924772,2.516841381537028,0.15407989577061848
15.927168,2.526712115642252,0.15363199666990418
15.929552,2.5403075119865894,0.15302698342685087
15.931936,2.554554534636985,0.15242030355491448
15.93434,2.5674510828470214,0.15191859856983708
15.936728,2.57955623512414,0.15144452472742564
15.939112,2.592872092214757,0.15089027283576584
15.941508,2.607258884492012,0.15027766437870863
15.943896,2.6276519790085184,0.14940093076655964
15.946276,2.647113907965246,0.14855073339890962
15.948676,2.6639221098694987,0.14779585228515368
15.95106,2.682592642893308,0.14695360606576843
15.953444,2.703125507036675,0.14604952242774924
15.955847999999998,2.720305795993265,0.14533047545847957
15.958235999999998,2.735763523457159,0.14468607595777494
15.960616,2.748287984614858,0.14417293783577279
15.963011999999996,2.7571803313320604,0.14388524657989124
15.9654,2.762580333235627,0.1438058721343338
15.96778,2.7634170551389188,0.1439863324119906
15.970179999999996,2.765184942601989,0.14413288143956493
15.972564,2.765230268572363,0.14432482217906242
15.974944,2.76927979603557,0.14434509558726674
15.977344,2.7765421290586936,0.14421369844925708
15.979732,2.78780866357465,0.1439227472910986
15.982112,2.8024277732773824,0.14347018158345914
15.984508,2.816115717420337,0.143053460637106
15.986896,2.830315518242489,0.1426667939461336
15.989288,2.8446550886915016,0.14226581330586324
15.991692,2.8529883569012635,0.14210413248823084
15.99408,2.862252790670804,0.14191053785498023
15.996456,2.8720290811195417,0.14174065355231816
15.99886,2.881013975635361,0.14157978044140332
16.001247999999997,2.8898591005243204,0.14144226990165248
16.003628,2.9029879661598343,0.1411124184244652
16.006023999999996,2.91369542216835,0.1409149556243011
16.008407999999996,2.926404978923283,0.1406412397305538
16.010784,2.9423273412381317,0.14021757724471515
16.013188,2.962533444299534,0.139604786493115
16.015575999999996,2.985021187361074,0.13888417277976556
16.017952,3.005506829676197,0.13823947308042533
16.020359999999997,3.0257129327375996,0.13763151538054352
16.022743999999996,3.0468502013587804,0.13701416717489182
16.025123999999998,3.0617016284869907,0.13666200339268275
16.027527999999997,3.0697553574430314,0.1365420920813438
16.029911999999996,3.074736050466017,0.13654351211878418
16.032291999999998,3.0794372042352824,0.13657994846365515
16.034695999999997,3.0852092931911868,0.13657283666297787
16.037079999999996,3.090841612520231,0.1365836576452476
16.03946,3.0958223055432166,0.13658482201532093
16.041863999999997,3.1020137033797015,0.1365245866402477
16.044252,3.110346971589463,0.136376672341585
16.046632000000002,3.1224049020383386,0.13612460202309645
16.049028,3.1326005013676568,0.1359274209905853
16.051412,3.141725165510337,0.1357779229965293
16.053792,3.154062635212932,0.13550112332440123
16.056199999999997,3.1670517312215853,0.13523764603253932
16.058583999999996,3.1828343239095735,0.13490890711061015
16.060964,3.1947524847315885,0.13469897560448976
16.063367999999997,3.205320171113244,0.1345649345369596
16.065751999999996,3.2217543901072903,0.13426308499796735
16.068132,3.23632627798178,0.1340030173770423
16.070535999999997,3.247964899550074,0.13383366445082692
16.072919999999996,3.262816326678284,0.13354200725339777
16.0753,3.2839535952994647,0.1330285151107126
16.077703999999997,3.3058822598535644,0.13250887063301064
16.080092,3.3256690540343863,0.13205874338986048
16.082468,3.343313977841931,0.13169189338864426
16.084868,3.360307275343418,0.1313193787846378
16.087252,3.382887566203575,0.1308091685105962
16.089632,3.408261353743067,0.13024714878764954
16.092039999999997,3.4325642060959205,0.12973164202635695
16.094423999999997,3.456215432142716,0.12922514911930896
16.096807999999996,3.4790752622565937,0.1287214700025463
16.099204,3.501935092370471,0.12822339502437607
16.101588,3.5227928217379314,0.127790211078478
16.103968000000002,3.5389947233065002,0.12746114113773196
16.106364,3.548678465956621,0.12728472833819177
16.108751999999996,3.5620868708458553,0.12702526560482325
16.111148,3.5729813183094747,0.1267975935603088
16.113543999999997,3.578288772414424,0.12670159654706087
16.115927999999997,3.5894627591317643,0.1264532188332812
16.118308,3.603058155476101,0.1261095573186246
16.120703999999996,3.6177244870070773,0.12573704062535465
16.123092,3.628107077791499,0.12550571985715578
16.125476,3.6366273374563645,0.12531310007517138
16.127879999999998,3.648500172308005,0.12500117553162632
16.130263999999997,3.6607923160402263,0.12464558213431255
16.132647999999996,3.672804920518728,0.12431870688984524
16.135047999999998,3.6801616971983373,0.12409525954778322
16.137436,3.6767165742129446,0.1241470803827099
16.139815999999996,3.6706177241750773,0.12424584317632616
16.142212,3.659164198204017,0.12452025219915146
16.144599999999997,3.6505041689122915,0.12473216403701445
16.14698,3.6430548444340647,0.12489163758017713
16.149383999999998,3.6356055199558384,0.12505111112333978
16.151767999999997,3.6341624977168614,0.12504810621987486
16.154148,3.6376548425304978,0.12491701763805976
16.156551999999998,3.6372827554781604,0.12487994986779771
16.15894,3.6387729995453792,0.1248028519238432
16.161319999999996,3.641054639545516,0.12471988465615762
16.163716,3.638540682119902,0.1247504721008763
16.166103999999997,3.632534379880651,0.12490991530459526
16.168484,3.623734580962066,0.12512608955868754
16.170887999999998,3.6189389835363137,0.1252357019868348
16.173271999999997,3.6162852564838386,0.1252791021236387
16.175655999999996,3.6154938605509206,0.12528397697688848
16.178052,3.614702464618002,0.1252887896314201
16.180436,3.614982003871723,0.1252613232488358
16.18282,3.616192708685222,0.12521515553740206
16.185223999999998,3.6303471835370003,0.12484212129759645
16.187607999999997,3.647434924694974,0.12439756144374593
16.189988,3.668806406599501,0.12381439633668297
16.192383999999997,3.686592995891776,0.1232950565572239
16.194772,3.7013065492509947,0.12286439592576323
16.197156,3.716811498543132,0.12242985373884013
16.199559999999998,3.726170375969158,0.12216387624288823
16.201943999999997,3.730174577461992,0.12206046107230237
16.204327999999997,3.7352497141414642,0.12192338226157075
16.206724,3.7432581171271315,0.12171832904553959
16.209111999999998,3.751266520112799,0.12151327582950848
16.211492,3.761137254218023,0.12127072321711727
16.213896,3.7724982323904666,0.12095269629872636
16.216279999999998,3.7867924768691044,0.1205678464983436
16.21866,3.7952201887353523,0.12032253078622167
16.221064,3.799783468735628,0.12016442879060846
16.223452,3.798759755377232,0.12011870368547951
16.225831999999997,3.7975962723919765,0.12008678425624254
16.228228,3.7979230334739404,0.11998199702784625
16.230615999999998,3.8002518953023205,0.11982834363748567
16.232996,3.7945723541450334,0.11987062323297462
16.2354,3.787961647427968,0.1199294717184895
16.237788000000002,3.781350940710903,0.11998693792358334
16.240167999999997,3.7767423347402547,0.11999690852922312
16.242571999999996,3.774135829516023,0.11995919740615679
16.244956000000002,3.77287979873215,0.11986505718625166
16.247335999999997,3.7766989046277497,0.1196463678337001
16.249739999999996,3.7852210601504845,0.11926514031572809
16.252128,3.790949718993883,0.11893206272808039
16.254508,3.79174301078467,0.11871306761658865
16.256907999999996,3.7918846762694005,0.11848425078702213
16.259292000000002,3.7917468025004095,0.118282992859382
16.261671999999997,3.794542195037614,0.11802018813159787
16.264075999999996,3.790120580522068,0.1179402929939614
16.266460000000002,3.792636433805552,0.11770239913034085
16.268844,3.800227423768508,0.11734024565272712
16.27124,3.809680744851021,0.11693964093139601
16.273623999999998,3.8191340659335338,0.11653903621006491
16.276004,3.8218822366424945,0.11634703220359512
16.278408,3.821976680298981,0.11619400497836284
16.280796000000002,3.824073224701884,0.11599211159116629
16.283175999999997,3.827892330597483,0.11577074930036861
16.285572000000002,3.829988875000386,0.11557063334733869
16.287959999999998,3.8312468016421284,0.1154503886657768
16.29034,3.830223088283732,0.11540432309574424
16.292735999999998,3.8244037774995854,0.11545674728738373
16.295124,3.8185844667154383,0.11550718898908437
16.297503999999996,3.814720034849465,0.11558484867318497
16.2999,3.8160705092898244,0.1155297642733164
16.302287999999997,3.8195628541034603,0.11541564919615248
16.304684,3.824218681902352,0.11533420408508074
16.30708,3.8277110267159884,0.11522008900791682
16.309468000000003,3.825708925969572,0.11526546570107861
16.311847999999998,3.835439890447936,0.11506550886087882
16.314248,3.8371624519406318,0.11504630828343375
16.316635999999995,3.8384657045527475,0.11506617577417728
16.319015999999998,3.8449366416429527,0.11503152933934871
16.321419999999996,3.8544806146662127,0.1149277661512171
16.323803999999996,3.872592069182581,0.11460195371213573
16.326183999999998,3.8929379418708434,0.11428230111611212
16.328587999999996,3.9180794119848583,0.11388435918405224
16.330971999999996,3.9413585509793165,0.11351948639080388
16.333351999999998,3.967663504078587,0.1131600765562975
16.335748000000002,3.9988112764318515,0.11265277848327834
16.338132,4.02809671766556,0.11216155523791561
16.340511999999997,4.060687512257801,0.11164204780763058
16.34292,4.094209472409822,0.11112203589781705
16.345304,4.124565848830168,0.11062040026603363
16.347684,4.154875003422273,0.11020006352084973
16.350088,4.189839985813268,0.10972317519044039
16.352472,4.226574751525203,0.10916908295119612
16.354852,4.264473000222394,0.10864769348136531
16.357252000000003,4.303442184106224,0.10808735877802735
16.359636000000002,4.334030877952048,0.10766262392140016
16.36202,4.37262797478354,0.10708394236785188
16.364419999999996,4.411225071615031,0.1065150518310313
16.366808,4.4477275199014885,0.1059456586778319
16.369188,4.479294601135334,0.10546660777841795
16.371584,4.505367236809128,0.10512385686512475
16.373972000000002,4.529065684684166,0.10478534770377322
16.376351999999997,4.546385743267618,0.10452616280694746
16.378755999999996,4.564636967410847,0.10425602697303377
16.381144,4.584006348568957,0.10390680848835643
16.383524,4.596158722674319,0.10369453765543667
16.38592,4.615388334205569,0.10336014603519307
16.388308000000002,4.638110290550456,0.10294544656784582
16.390687999999997,4.653894779096313,0.10263948840247508
16.393084,4.669399728388449,0.10235563832367157
16.395468,4.6828100291355526,0.10205480446766044
16.397864,4.689562401337346,0.10184390683544817
16.400259999999996,4.694824529471922,0.10168727306392314
16.402648,4.701856440927438,0.10146011008918425
16.405028,4.7102388268233115,0.10119061090552817
16.407424,4.721414709398521,0.10088906835413361
16.409807999999998,4.731659426413952,0.10060491985127024
16.412191999999997,4.743254617869742,0.10028552032621846
16.414588000000002,4.7536391045120325,0.0999995812847661
16.416972,4.768819188580076,0.0996561993684076
16.419368,4.785209977461617,0.09928136936111816
16.421771999999997,4.804394263022494,0.09887921974561283
16.424155999999996,4.8273032108224845,0.09844035429796123
16.426536,4.852773337876331,0.09794175785667232
16.428931999999996,4.873819954556764,0.0975348149647972
16.43132,4.901943808663087,0.09702698059729187
16.4337,4.930486971649989,0.09650700706577757
16.436104,4.953954997957419,0.09606483283353984
16.438491999999997,4.98477980094446,0.09550555472607497
16.440872,5.016675539118139,0.09493052460987216
16.443267999999996,5.04642940691854,0.09438995039716876
16.445656,5.078325145092219,0.09381149711048596
16.448036000000002,5.112642292892895,0.09318638937334466
16.450432,5.146679901439851,0.09259140354589443
16.452819999999996,5.183930315546722,0.0919531546604415
16.455199999999998,5.221180729653595,0.09132003435574314
16.457603999999996,5.251773215215157,0.09075279389202996
16.459987999999996,5.274077758537331,0.09030142714349627
16.462367999999998,5.293588805180171,0.08987376997021682
16.464764000000002,5.3081644847703995,0.08950490791550482
16.467152,5.320877833241072,0.08915013019480196
16.469547999999996,5.326793483539575,0.08886727468896159
16.471944,5.328285623464664,0.08866230811286771
16.474331999999997,5.325074713762618,0.0885540005320664
16.476712,5.32172403443371,0.08845462259964378
16.479112,5.313949844731389,0.08843262506722774
16.481496,5.3016123750287925,0.08849455813546106
16.48388,5.290206070885975,0.08854910482707296
16.486275999999997,5.272234385996467,0.08871278450574265
16.488664,5.25319176592032,0.08889221619315027
16.491044000000002,5.236942642523509,0.08904925829731644
16.49344,5.220274210246116,0.08923309195064237
16.495824,5.1954576053561965,0.08952474054528521
16.498207999999998,5.165286324533083,0.0899023264053514
16.500603999999996,5.128689432590138,0.09038016638010499
16.502992,5.092092540647194,0.09085364512289448
16.505387999999996,5.059732167622561,0.09132045283159806
16.507784,5.033238327210317,0.09172918194477583
16.510171999999997,5.010329379410328,0.09211481427369558
16.512552,4.994497669036227,0.09240532888615552
16.514947999999997,4.984392721647656,0.09263885075614944
16.517339999999997,4.9850896739240875,0.09275170053979195
16.51972,4.991281071760572,0.09277247203830527
16.522123999999998,4.999474570343474,0.09276868234001101
16.524507999999997,5.010880874486292,0.09271541499244168
16.526888,5.022566717882829,0.09264366726380284
16.529296000000002,5.033600934973308,0.09256116240255623
16.53168,5.043983525757731,0.09246829539867497
16.534059999999997,5.0638647635950385,0.0922371252042183
16.536464000000002,5.0818836703127905,0.09201972819369619
16.538848,5.100973512217181,0.09178817886890343
16.541227999999997,5.12127405893507,0.09153192247127509
16.543632000000002,5.147720677519069,0.09119088560945762
16.54602,5.176588705730066,0.09079257880458406
16.5484,5.21332536729987,0.09030638386100313
16.550804,5.248059928123258,0.08984565607262644
16.553188,5.283353567454086,0.08935128383074475
16.555571999999998,5.320137450852134,0.08881889838466601
16.557975999999996,5.354127837570847,0.08831076167843202
16.560364,5.38225169167717,0.08787305901293557
16.562744000000002,5.405859487611461,0.08746782797917833
16.56514,5.42467168612,0.08711545657303754
16.567527999999996,5.440410848695483,0.08680469264825129
16.569907999999998,5.4539155930990715,0.08647973893357298
16.572303999999995,5.46248497045005,0.08620552508352565
16.574688000000002,5.471473656681607,0.08590618201446301
16.577072,5.481253738846084,0.08560834059370666
16.579476,5.493547778436174,0.0853088401711386
16.58186,5.498904350227235,0.08508470106033016
16.58424,5.509336058697769,0.08480449201135704
16.586644,5.518045205675606,0.08453026805867288
16.589031999999996,5.529035992653583,0.08422220773436123
16.591412,5.541237484445056,0.08389508933031817
16.593807999999996,5.554370141796309,0.08356188964949583
16.596196,5.561403949109693,0.08324814453193151
16.598576,5.569508691609716,0.08292001756544065
16.60098,5.576682268549961,0.08259902596495536
16.603367999999996,5.58092257918401,0.08230449892702146
16.605748,5.587304760191337,0.0819828713213789
16.608143999999996,5.592476236385165,0.08168138314875782
16.610532,5.599510043698549,0.08136934235743562
16.612916,5.605472915825295,0.08107204847225344
16.615316,5.608502521645847,0.08079805123895425
16.617703999999996,5.615117020078651,0.08051083722650598
16.620084,5.627598051123844,0.08017496953646475
16.622487999999997,5.640079082169037,0.0798406873936948
16.624876,5.652699882841091,0.0794985726601931
16.627255999999996,5.6617357909008925,0.07917000792125943
16.62966,5.671423325266752,0.0788521004779703
16.632044,5.676966888512918,0.07858121267757863
16.634423999999996,5.6814395165724445,0.07832352937064478
16.63682,5.678555367952361,0.07815032972956472
16.639207999999996,5.670037004145366,0.07805930405899317
16.641588,5.664591676271425,0.07793684099764431
16.643983999999996,5.661520536196239,0.07782292730150153
16.646368000000002,5.657658000188135,0.07770579845983912
16.648747999999998,5.651513824179894,0.07762245440794648
16.651151999999996,5.645090108917932,0.07755491577986966
16.65354,5.63852662402911,0.07749527466608816
