Time,Force,Position
15.129164,0.06929871576389504,0.0
15.131543999999998,0.0562322166870434,0.0
15.133944,0.043165717610191764,0.0
15.136328,0.031821780026036556,0.0
15.138711999999998,0.02655965189146096,0.0
15.141108,0.027583365249856343,0.0
15.143496,0.02860707860825172,0.0
15.145875999999998,0.02804800010081088,0.0
15.148272,0.02655775603359172,0.0
15.150659999999998,0.027209382339649618,0.0
15.153043999999998,0.02800077827256773,0.0
15.15544,0.03277933511003154,0.0
15.157823999999998,0.03676649601457724,0.0
15.160224,0.04182459210576147,0.0
15.162619999999997,0.047953623383584235,0.0
15.165007999999997,0.05301171947476846,0.0
15.167392,0.061142851499008076,0.0
15.169791999999998,0.06913421389638749,0.0
15.172179999999996,0.07954698592076438,0.0
15.174563999999997,0.08874905313164252,0.0
15.176959999999998,0.09715972440960256,0.0
15.179347999999996,0.09970386307517225,0.0
15.181731999999997,0.09970386307517225,0.0
15.184127999999998,0.09970386307517225,0.0
15.186515999999996,0.09869719030506487,0.0
15.188896,0.0915444456688467,0.0
15.191291999999995,0.0862540321521852,0.0
15.193679999999995,0.08175501456844181,0.0
15.196064,0.07911832810425506,0.0
15.198459999999995,0.07541070645342979,0.0
15.200847999999995,0.07170308480260451,0.0
15.203232,0.0669245279651407,0.0
15.205627999999995,0.06293736706059501,0.0
15.208015999999995,0.05787927096941077,0.0
15.210396,0.05175023969158801,0.0
15.212795999999996,0.04669214360040378,0.0
15.215183999999995,0.038561011576164164,0.0
15.217568,0.03056964917878476,0.0
15.219963999999996,0.020156877154407872,0.0
15.222347999999997,0.012380791594217736,0.0
15.224732,0.0039701203162577,0.0
15.227127999999997,0.0015014888610170678,0.0
15.229515999999997,0.001501488861017068,0.0
15.231896,0.0032995575640425577,0.0
15.234295999999995,0.0032995575640425573,0.0
15.236683999999997,0.0032995575640425573,0.0
15.239068,0.0032995575640425577,0.0
15.241463999999995,0.0032995575640425577,0.0
15.243848,0.0032995575640425577,0.0
15.246232,0.0032995575640425577,0.0
15.248627999999997,0.0032995575640425577,0.0
15.251016,0.0032995575640425577,0.0
15.2534,0.0032995575640425577,0.0
15.255795999999997,0.0032995575640425577,0.0
15.258184,0.003299557564042558,0.0
15.260568,0.003299557564042558,0.0
15.262963999999997,0.003299557564042558,0.0
15.265351999999996,0.003299557564042558,0.0
15.267732,0.003299557564042558,0.0
15.270131999999997,0.0018735759133545484,0.0
15.272519999999997,0.0018735759133545484,0.0
15.2749,0.00179806870302549,0.0
15.277296,0.00179806870302549,0.0
15.279684,0.0,0.0
15.282063999999998,0.0009141249714903196,0.0
15.284464,0.0009141249714903195,0.0
15.286852,0.0009141249714903195,0.0
15.289247999999995,0.0013163932637829494,0.0
15.291648,0.0013163932637829494,0.0
15.294035999999998,0.0025100574889936897,0.0
15.296415999999995,0.0025100574889936897,0.0
15.298816,0.003424182460484009,0.0
15.301203999999998,0.004058768178253909,0.0
15.303583999999995,0.006835224269300869,0.0
15.305984,0.007330040360210557,0.0
15.308367999999998,0.013831158690370798,0.0
15.310751999999995,0.019261341833892512,0.0
15.313147999999998,0.025622690537192544,0.0
15.315535999999998,0.030913104053854043,0.0
15.317919999999996,0.04006794943648904,0.0
15.320315999999998,0.044566967020232426,0.0
15.322703999999998,0.04799504941733728,0.0
15.325087999999996,0.04984033994860593,0.0
15.327483999999998,0.05047492566637583,0.0
15.329876,0.05019538641265541,0.0
15.332255999999996,0.053623468809760266,0.0
15.334656,0.05691178158000493,0.0
15.337044,0.05872689087131841,0.0
15.339423999999998,0.061503346962365375,0.0
15.341824,0.06560009625381613,0.0
15.344207999999998,0.069028178650921,0.0
15.346587999999995,0.07075074014361743,0.0
15.348983999999998,0.07568610719622945,0.0
15.351367999999995,0.07526679831564881,0.0
15.353744,0.08127310055489938,0.0
15.35614,0.07633773350228736,0.0
15.358524,0.07526679831564882,0.0
15.360919999999997,0.07326469756923197,0.0
15.363315999999998,0.07619796387542714,0.0
15.365699999999997,0.07033143126303679,0.0
15.368095999999998,0.07205399275573321,0.0
15.3705,0.07619796387542713,0.0
15.372884,0.08364728835365368,0.0
15.375263999999998,0.09044498652582235,0.0
15.377668,0.09617174951135249,0.0
15.380056,0.09817385025776933,0.0
15.382435999999998,0.09938455507126809,0.0
15.384828,0.1036682958178222,0.0
15.387216,0.10632202287029698,0.0
15.389595999999996,0.10553062693737887,0.0
15.391991999999998,0.10846389324357404,0.0
15.394375999999998,0.1151218217888825,0.0
15.396756,0.11819485772193787,0.0
15.399151999999996,0.12769350477482444,0.0
15.401539999999995,0.13211701514823876,0.0
15.403935999999998,0.14254682776090366,0.0
15.406339999999997,0.14738964701489862,0.0
15.408724,0.1520926966420334,0.0
15.411103999999998,0.1490668825372211,0.0
15.4135,0.1529785362314378,0.0
15.415888,0.15395692361945928,0.0
15.418267999999998,0.1520945924999026,0.0
15.420672,0.14757853432787124,0.0
15.42306,0.1438538720887579,0.0
15.425439999999998,0.14255061947664213,0.0
15.427843999999997,0.14296992835722278,0.0
15.430228,0.1441806331707215,0.0
15.432612,0.14031620130474798,0.0
15.435008,0.13631199981191428,0.0
15.437392,0.13216802869222036,0.0
15.439771999999998,0.12580667998892034,0.0
15.442176,0.11651206497942515,0.0
15.444564,0.10786907627598785,0.0
15.446943999999998,0.09601328201263495,0.0
15.449347999999995,0.08508865330906037,0.0
15.451732,0.07309308941884728,0.0
15.454116,0.06389102220796913,0.0
15.456511999999996,0.0548287246239512,0.0
15.458896,0.04963085890590676,0.0
15.461275999999998,0.04243089244144547,0.0
15.463676,0.03523092597698417,0.0
15.46606,0.02952120357974204,0.0
15.468443999999998,0.02474264674227823,0.0
15.47084,0.021035025091452948,0.0
15.473223999999998,0.015976929000268716,0.0
15.475603999999995,0.010127436976166372,0.0
15.477999999999998,0.005237395893928256,0.0
15.480383999999995,0.009472018954369985,0.0
15.482779999999998,0.02306362358296882,0.0
15.485176,0.04401010903330793,0.0
15.487564,0.0697332554632416,0.0
15.489943999999998,0.09615335416960707,0.0
15.49234,0.12378226183160204,0.0
15.494728,0.15755534550183853,0.0
15.497107999999995,0.1958425914862372,0.0
15.499503999999998,0.2450696109046292,0.00880957939514418
15.501891999999998,0.3027224463314,0.017142999563001603
15.504288,0.3680097018336313,0.025158033678933857
15.506684,0.43464553591835253,0.03358082155917583
15.509068,0.5088685682502913,0.041910954043935314
15.511447999999998,0.5876529847246352,0.05026083421921531
15.513852,0.6671343534754111,0.05894425237808266
15.51624,0.7495943145027559,0.06769806844302076
15.51862,0.83312331485887,0.07683545371441197
15.521016,0.9246588223427824,0.08574061807380838
15.5234,1.0238287499021554,0.09439216233411536
15.525779999999996,1.124925270997616,0.10301557902172215
15.528187999999997,1.2186196894430934,0.11178356621359548
15.530572,1.3032366655741343,0.12061108561986847
15.532951999999998,1.3815696960700734,0.12943860502614143
15.535352,1.4589262350358598,0.13809089540296315
15.53774,1.5374481528447712,0.14663219623651413
15.540119999999998,1.620115937631246,0.15478260124670556
15.542516,1.6971986249169202,0.16283024627273074
15.544904,1.7692552932092345,0.17084852985654586
15.547287999999998,1.8285098569479987,0.17015371803445903
15.549691999999997,1.8794783743052443,0.1699088928390341
15.552076,1.9226727019601693,0.1700086262961592
15.554455999999998,1.9645184510326044,0.16970060598897457
15.556859999999997,1.9967749011114049,0.16961192580580767
15.559247999999997,2.025121593353858,0.169506111971629
15.561628,2.0551455211186345,0.16899600648711074
15.564031999999996,2.0844252747787353,0.16837318302558318
15.566415999999997,2.115429485789402,0.16722696230306422
15.5688,2.134422988179436,0.16655257123655917
15.571195999999995,2.1456423008671495,0.1661577005956204
15.573583999999997,2.1539755690769113,0.16581692352454072
15.575964,2.163379772473312,0.16538370595715224
15.578359999999996,2.171852810309934,0.16499322592956744
15.580744,2.1783237474001393,0.16473595808243427
15.583128,2.1812097918780915,0.16468134856775427
15.585524,2.183024901169405,0.16471091555857761
15.587908,2.1801369608335834,0.16513198716049193
15.590304,2.1773415682963795,0.16565642019207344
15.592703999999998,2.177711759490847,0.1660806891152183
15.595091999999998,2.178733576991373,0.16651263399136274
15.597472,2.1771942152380417,0.16718613735552976
15.599875999999998,2.174164609417491,0.16802875023209668
15.602263999999998,2.175790831395832,0.16859400663051116
15.604643999999997,2.180490089307228,0.168953683120018
15.607039999999998,2.187610756845622,0.16910812251778173
15.609423999999995,2.1923572365852615,0.1693333155822977
15.611804,2.198082103712922,0.16938450872939223
15.614207999999998,2.204086510094304,0.16939415405004454
15.616595999999998,2.2151660531551576,0.1690980433673268
15.618979999999995,2.2254542002830924,0.1688187537253459
15.621375999999998,2.2368132825976663,0.16847077671899244
15.623759999999995,2.248823991218298,0.16812080403214005
15.62614,2.2664216931976,0.1675030256511553
15.628539999999996,2.2888149926026538,0.166634180798091
15.630927999999995,2.3112082920077075,0.16575960459352276
15.633308,2.333461821785901,0.1649166302862818
15.635703999999995,2.3546444163774556,0.16413810981289617
15.638091999999997,2.374756075782372,0.16342447621429754
15.640472,2.3894205114554783,0.16296202848915592
15.642867999999996,2.406506356755582,0.16230974229419382
15.645256,2.424663137242325,0.16155029831797735
15.647636,2.4493852984757587,0.16035167939672418
15.650035999999997,2.47038279747008,0.1593923429032693
15.652424,2.4903093612777627,0.1585119015901869
15.654804,2.503298457286416,0.15801180020036032
15.6572,2.518289654041486,0.15741067866957464
15.659584,2.5307196715426987,0.1570302607690033
15.661983999999997,2.5407282794169133,0.15683555862904652
15.664388,2.5523196791569647,0.15661460409628264
15.666771999999998,2.566704575576351,0.15627763226808328
15.669151999999997,2.5798787671822385,0.15602458296848684
15.671547999999998,2.5988269436018996,0.15543296522222766
15.673931999999995,2.6136311489018658,0.15506542850359661
15.676312,2.6276439582689157,0.15473040674881955
15.678715999999998,2.6439384076361008,0.15427186239800794
15.681103999999998,2.6606521658838673,0.15375873933611786
15.68348,2.6777852330122145,0.1531805536526411
15.685883999999998,2.6974794793944192,0.1524394635913605
15.688271999999998,2.7218295535755157,0.15151801429107747
15.690651999999996,2.745760318876031,0.15067131803141912
15.693056,2.7731834289901838,0.14962438136180667
15.695439999999998,2.7935293016784466,0.1489133498280169
15.697819999999997,2.812804239180071,0.14825830536169263
15.700215999999998,2.8310082414950566,0.14765042854730195
15.702603999999996,2.8527971364222955,0.14690110761723701
15.704984,2.873095787282315,0.14627754770713697
15.707379999999995,2.893534207769195,0.1456380587970535
15.709767999999997,2.910387735643822,0.14510290476185855
15.712148,2.925938010906333,0.14457468919010966
15.714543999999997,2.9376238543028705,0.14419901295663706
15.716932,2.949309697699408,0.14381933254327886
15.719327999999996,2.954709699602975,0.14374673803431584
15.721723999999998,2.9636020463201773,0.14348698634200424
15.724111999999998,2.9695611267311848,0.14334264008444444
15.726495999999996,2.9712364663956374,0.14339866446009286
15.7289,2.9735634323661486,0.14346101074460885
15.731284,2.977612959829356,0.14348088894270414
15.733663999999996,2.9803120128522043,0.14358633595158143
15.736064,2.9850131666214703,0.14361651286921093
15.738447999999998,2.989854090017596,0.14362950077365821
15.740831999999996,2.9964175749064186,0.1436085006928192
15.743227999999998,3.0091271316613515,0.14335915583425285
15.745615999999998,3.0231871628566434,0.1430346415068815
15.747995999999995,3.040459999611851,0.14258257833597385
15.750391999999998,3.0620165771136123,0.14197022041188942
15.752779999999998,3.0849236290557327,0.141288426663294
15.755159999999997,3.1061081195051568,0.14064040442154196
15.757555999999996,3.1310172721936937,0.1398766638576244
15.759943999999996,3.1552275767479303,0.13920653732974975
15.762324,3.1810206731680024,0.1385027105171114
15.764727999999998,3.211749136640687,0.13765230818094087
15.767111999999996,3.2406152689938152,0.13684124292411023
15.769495999999997,3.264546034294331,0.13620296446863941
15.771891999999998,3.2900595914606834,0.13554255069651086
15.774279999999996,3.320648285306508,0.13470300674898533
15.77666,3.3515165184060525,0.1338498188465617
15.779063999999998,3.3815933555726794,0.1330182553080393
15.781451999999998,3.4119497319930265,0.13216353485503562
15.783831999999997,3.4365793454278433,0.1314840742487792
15.786227999999998,3.4621401244224383,0.13079143730335172
15.788615999999998,3.4826257667375615,0.13027429285815684
15.790996,3.4980362723732132,0.12992901898571965
15.793399999999998,3.5120963035685056,0.12965562705381042
15.795787999999998,3.5248058603234385,0.12945605240819932
15.798167999999997,3.534442381145316,0.12935950664142823
15.800567999999998,3.54035423972808,0.12934986125539213
15.802951999999998,3.5471972638706224,0.12931798972064165
15.805335999999995,3.5512467913338295,0.12935111832567767
15.807731999999998,3.552642591744562,0.12943538166420704
15.810115999999995,3.5565995714091527,0.12939995382594643
15.812499999999996,3.5524556002894587,0.1295324515876267
15.814895999999996,3.5524556002894583,0.12953245158762666
15.817283999999995,3.5544577010358753,0.12947334237067504
15.819679999999998,3.5580898154763716,0.12931915691515578
15.822076,3.557717728424034,0.12928145392045276
15.824464,3.553341439878863,0.12935897420306733
15.826843999999998,3.5472425898409954,0.1294642649432418
15.82924,3.5388620998029907,0.12965709309271775
15.831627999999998,3.5311332360710437,0.12986190610195894
15.834007999999995,3.519679710099984,0.13015434218049043
15.836412,3.5105078241290615,0.1303585342024489
15.838796,3.5016154774118586,0.13053483919247788
15.841175999999995,3.4948650010679327,0.13063529300581841
15.84358,3.4853210280446727,0.13080353641231765
15.845964,3.4739147239018555,0.1310161124875173
15.848343999999996,3.466372851625012,0.13112465013255956
15.850748,3.4608330800945852,0.13117278743327987
15.853136,3.46050821487049,0.131052713793366
15.855511999999996,3.4623252200196726,0.13085855996124335
15.857907999999998,3.466004556288412,0.13062680718504793
15.860291999999998,3.4751311162889613,0.13028247595315143
15.862688,3.481044870729595,0.13004665548951447
15.865091999999995,3.4877500211031465,0.12980594491945674
15.867476,3.4921735314765607,0.12965237979764663
15.869856,3.498738912223252,0.12942920338443445
15.872248,3.5071666240895008,0.12916200577168613
15.874631999999998,3.5161061926349464,0.12891612646320913
15.877011999999995,3.5274671708073897,0.128570044745767
15.87942,3.542320493793469,0.12809098035133398
15.881804,3.56210918383216,0.12748330449119064
15.884183999999998,3.580966708311073,0.12690089180792657
15.886588,3.6014070246558223,0.12630642277457108
15.888972,3.6179829091345983,0.12580914428375853
15.891351999999998,3.6376318295464287,0.12521908053358283
15.893752,3.656070045144761,0.12466915736355971
15.896135999999998,3.6732975559295946,0.1241763445711893
15.898515999999995,3.6874520307813725,0.12377605618588243
15.900924,3.6951808945133195,0.12358464091805274
15.903308,3.703701154178185,0.12338870458910542
15.905687999999998,3.7060753419769394,0.12337162760511942
15.908092,3.7063076594024165,0.12342275866896818
15.91048,3.704677645708337,0.12351489640281273
15.912859999999998,3.7030476320142576,0.12360637946132655
15.915256,3.7002069135066793,0.12374734257358853
15.917644,3.6964350294393227,0.12390750702176383
15.920023999999998,3.6940136198123255,0.12400423685059063
15.922424,3.693082454252547,0.12402403456719797
15.924812,3.6926631453719665,0.12406617499752241
15.927191999999998,3.6924761539168633,0.12415784234905469
15.929595999999997,3.6870742561554275,0.12439862650353156
15.931984,3.6803218839536327,0.124701103144615
15.934364,3.676782317311753,0.12490147765824344
15.936767999999995,3.6769674129089873,0.1250279782410439
15.939151999999996,3.6799460051855566,0.12509909239356184
15.941532,3.688139503768458,0.12502744124807783
15.943939999999998,3.696100684925882,0.1249084395464245
15.946323999999995,3.70806606757614,0.12469423929540832
15.948708,3.728179622838926,0.124276207801507
15.951103999999996,3.749643652542071,0.12380997680986046
15.953491999999995,3.773529091872213,0.12325230214002895
15.955872,3.8012789630683286,0.12262159460042565
15.958267999999997,3.8378286331830296,0.12180837039860301
15.960652,3.8755890081112296,0.12096591924222719
15.963031999999998,3.9165621885993445,0.12003647144356112
15.965428,3.958606304274098,0.11908629593945724
15.967816,3.998368779948715,0.11820948108882551
15.970195999999998,4.040924752302666,0.11730857631929768
15.972592,4.080175371298085,0.1164358455517098
15.97498,4.115469010628914,0.11558505903687452
15.977376,4.153695916265937,0.11466602620102509
15.979771999999995,4.195135627462876,0.1136630742875201
15.982159999999997,4.22777553974123,0.11284026297326674
15.98454,4.258692890526887,0.11204412603388109
15.986939999999995,4.28574580944657,0.11133493509628699
15.989327999999997,4.308654757246559,0.1107291189347597
15.991708,4.3276520513523336,0.11026060583178157
15.994111999999998,4.3419935176592155,0.10987072253361135
15.996495999999995,4.352889860980703,0.10952628075033916
15.998876,4.360433629115416,0.10927429283491596
16.001271999999997,4.371422520235522,0.10899364633987678
16.003659999999996,4.375101856504261,0.10881326623326508
16.00604,4.373333969041192,0.10870574567508405
16.008436,4.368213506391346,0.10868443376467884
16.01082,4.360299547062164,0.10870250609419078
16.013216,4.353176983665901,0.10871744775893338
16.01562,4.347265125083137,0.10869685380208606
16.018003999999998,4.338420000194177,0.10872446404862139
16.020384,4.333159767917471,0.10871210905612831
16.022779999999997,4.32906301862602,0.10873063813725613
16.025167999999997,4.3243146430285115,0.1087392445546707
16.027548,4.315701835565029,0.10880936706378969
16.029951999999998,4.313467417393135,0.10880273298070973
16.032335999999997,4.3110932295943805,0.10880733359890121
16.034716,4.304854609929653,0.1088760434591225
16.037111999999997,4.298755759891786,0.10893414012022773
16.039499999999997,4.299873916906667,0.10884238047147055
16.041884,4.3036458009740235,0.10872210627844213
16.044283999999998,4.305787671347301,0.1086729636971244
16.046671999999997,4.309652103213274,0.10860862633271937
16.049052,4.308860707280356,0.1086102982059506
16.051455999999998,4.3127251391463295,0.10854620769567001
16.053839999999997,4.315611183624282,0.10856218483540346
16.056223999999997,4.318916536982814,0.10854341678328985
16.058619999999998,4.323944451834043,0.10850964719018452
16.061003999999997,4.324688625938718,0.1085751504657892
16.063384,4.329157462282507,0.10858787855433974
16.065787999999998,4.3274802267601835,0.10872622031014735
16.068175999999998,4.324452516797503,0.10891117212827772
16.070556,4.323706446834959,0.10903481467688321
16.072951999999997,4.322820607245555,0.10916978864299885
16.075339999999997,4.326450825828181,0.10925049972818136
16.07772,4.329708957358471,0.10929878987703191
16.080123999999998,4.334038024075398,0.10932306381152646
16.082511999999998,4.344093853777857,0.10925793447559382
16.084891999999996,4.360807612025623,0.10909519994903065
16.087296,4.373005312101358,0.10898752956070429
16.089679999999998,4.385994408110012,0.10887988977487321
16.092059999999996,4.400845835238222,0.10874815291265598
16.094455999999997,4.4182584416202895,0.1085410962238011
16.096843999999997,4.437533379121914,0.1083098818970907
16.099224,4.458391108489374,0.10808032119423798
16.101619999999997,4.479807916364275,0.10780534141405365
16.104007999999997,4.506811717597847,0.10746526508445042
16.106388,4.533815518831418,0.10712793684959021
16.108783999999996,4.566034226371322,0.10668923354514145
16.111172,4.592246631671975,0.10635487185182234
16.113567999999997,4.625396504771658,0.10589900243878675
16.115963999999998,4.658034521192143,0.10542384502166544
