Time,Force,Position
15.879351999999995,0.023169717499625108,0.0
15.881739999999995,0.022927229864646723,0.0
15.88412,0.01989124555033337,0.0
15.886523999999998,0.013782225302964642,0.0
15.888907999999995,0.009218945302690096,0.0
15.891292,0.0049352045561359735,0.0
15.893691999999998,0.004655665302415554,0.0
15.896079999999998,0.011173824220863797,0.0
15.89846,0.020588197826765176,0.0
15.900855999999996,0.029211175499748443,0.0
15.903243999999995,0.04076741947892689,0.0
15.905624,0.055396699391160716,0.0
15.908027999999998,0.06909481374361622,0.0
15.910415999999998,0.08065105772279466,0.0
15.912796,0.09048474020927667,0.0
15.915187999999995,0.09910771788225994,0.0
15.917576,0.10987256592852028,0.0
15.91996,0.12208043621375662,0.0
15.922355999999995,0.12794696882614698,0.0
15.92474,0.1360108679916894,0.0
15.92712,0.14593709827678847,0.0
15.929516,0.15665472449480564,0.0
15.931904,0.16751212033968302,0.0
15.934283999999998,0.17930068174433872,0.0
15.93668,0.19024235103620132,0.0
15.939068,0.19969377626084472,0.0
15.941447999999998,0.20528076961951466,0.0
15.943852,0.20393029517915567,0.0
15.94624,0.20164865517901842,0.0
15.948619999999998,0.20015841111179927,0.0
15.951016,0.1937327999919681,0.0
15.953404,0.18223205219266467,0.0
15.955783999999998,0.1735248010726962,0.0
15.95818,0.1691012906992819,0.0
15.960568,0.16840244256498083,0.0
15.962964,0.16905406887103872,0.0
15.965356,0.16649288961718103,0.0
15.967744,0.16397893219156648,0.0
15.970123999999998,0.1682626729381206,0.0
15.972527999999995,0.16910129069928184,0.0
15.974916,0.16635501584819004,0.0
15.977296,0.1609550139446235,0.0
15.979692,0.1534131416677799,0.0
15.98208,0.14386916864451943,0.0
15.98446,0.13562844823337478,0.0
15.986863999999995,0.12915751114316967,0.0
15.989252,0.124409135545661,0.0
15.991632,0.11834733712653543,0.0
15.994031999999995,0.11121460352077132,0.0
15.996416,0.10408186991500722,0.0
15.998796,0.09895123705565996,0.0
16.001199999999997,0.09582270494272956,0.0
16.003587999999997,0.0908318417102425,0.0
16.005968,0.08369910810447838,0.0
16.008364,0.07456427375229742,0.0
16.010752,0.06528966977325625,0.0
16.013132,0.057086000980853605,0.0
16.015528,0.0473920881212318,0.0
16.017916,0.03676700970183168,0.0
16.020296,0.027864492775127984,0.0
16.022692,0.020684537341120728,0.0
16.02508,0.015366913026670107,0.0
16.027472,0.012051389458636336,0.0
16.029875999999998,0.009806801077241098,0.0
16.032263999999998,0.006770816762927749,0.0
16.034644,0.0033155235680337692,0.0
16.037048,0.0,0.0
16.039436,0.000754344314176077,0.0
16.041815999999997,0.001648458255212364,0.0
16.044216,0.004684442569525713,0.0
16.046599999999998,0.009722527630255912,0.0
16.04898,0.01289828157142947,0.0
16.051375999999998,0.01793636663215967,0.0
16.05376,0.020180955013554908,0.0
16.05614,0.020180955013554908,0.0
16.058536,0.020180955013554908,0.0
16.060924,0.020180955013554908,0.0
16.063304,0.020180955013554908,0.0
16.065707999999997,0.020180955013554908,0.0
16.068092,0.020180955013554908,0.0
16.070472,0.020795529700870775,0.0
16.072868,0.020795529700870775,0.0
16.075256,0.02248103957482517,0.0
16.077648,0.02602888056833621,0.0
16.080043999999997,0.027574620815430398,0.0
16.082431999999997,0.027574620815430394,0.0
16.084812,0.027574620815430398,0.0
16.087215999999998,0.02682027650125432,0.0
16.089603999999998,0.02592616256021803,0.0
16.091984,0.022890178245904683,0.0
16.094379999999997,0.017852093185174486,0.0
16.096767999999997,0.014676339244000927,0.0
16.099148,0.009638254183270727,0.0
16.101543999999997,0.007496383809993665,0.0
16.103932,0.007496383809993666,0.0
16.106312,0.010020511445109324,0.0
16.108715999999998,0.010020511445109324,0.0
16.1111,0.010020511445109324,0.0
16.113484,0.010020511445109327,0.0
16.115879999999997,0.010020511445109327,0.0
16.118267999999997,0.00940593675779346,0.0
16.120648,0.00940593675779346,0.0
16.123051999999998,0.007720426883839062,0.0
16.125439999999998,0.004172585890328023,0.0
16.127816,0.0026268456432338356,0.0
16.130212,0.0026268456432338356,0.0
16.1326,0.0026268456432338356,0.0
16.13498,0.0026268456432338356,0.0
16.137376,0.0026268456432338356,0.0
16.139764,0.0026268456432338356,0.0
16.142159999999997,0.0026268456432338356,0.0
16.144555999999998,0.0026268456432338356,0.0
16.146943999999998,0.0026268456432338356,0.0
16.149324,0.002524127635115659,0.0
16.151728,0.002524127635115659,0.0
16.154116,0.0,0.0
16.156495999999997,0.0,0.0
16.1589,0.0,0.0
16.161288,0.0,0.0
16.163663999999997,0.0,0.0
16.166064,0.0,0.0
16.168452,0.0,0.0
16.170828,0.0,0.0
16.173236,0.0,0.0
16.17562,0.0,0.0
16.178003999999998,0.0,0.0
16.1804,0.0,0.0
16.182788,0.002524127635115659,0.0
16.185167999999997,0.003977320083592787,0.0
16.187564,0.006641217345568655,0.0
16.189947999999998,0.011027676100240955,0.0
16.192328,0.016485070041551784,0.0
16.194723999999997,0.023804795102419254,0.0
16.197111999999997,0.030193354603508405,0.0
16.199507999999998,0.0345798133581807,0.0
16.201904,0.039897437672631327,0.0
16.204288,0.045215061987081945,0.0
16.206671999999998,0.052534787047949415,0.0
16.209068,0.059854512108816885,0.0
16.211451999999998,0.06717423716968435,0.0
16.213832,0.07756699816360721,0.0
16.216236,0.08702859359775174,0.0
16.218624,0.09649018903189627,0.0
16.221003999999997,0.10301851815984563,0.0
16.223399999999998,0.11061778247443352,0.0
16.225787999999998,0.1140730756693275,0.0
16.228168,0.11407307566932749,0.0
16.230572,0.11154894803421184,0.0
16.23296,0.11075755210129372,0.0
16.235339999999997,0.11182848728793225,0.0
16.23774,0.11117686098187435,0.0
16.240128,0.1083833643025394,0.0
16.242507999999997,0.10465870206342613,0.0
16.244904,0.10479847169028633,0.0
16.247291999999998,0.10400707575736823,0.0
16.249675999999997,0.10335544945131032,0.0
16.252076,0.10442638463794887,0.0
16.254464,0.09963078721219705,0.0
16.256843999999997,0.09269331941316816,0.0
16.25924,0.0853735943523007,0.0
16.261623999999998,0.07498083335837784,0.0
16.26402,0.06551923792423332,0.0
16.266416,0.05605764249008879,0.0
16.268804,0.04952931336213943,0.0
16.271183999999998,0.041930049047551536,0.0
16.27358,0.03847475585265755,0.0
16.275968,0.04081189203266985,0.0
16.278347999999998,0.04538344638457627,0.0
16.280744,0.04696434239254324,0.0
16.283132,0.04322950994392885,0.0
16.285511999999997,0.043131274571704056,0.0
16.287907999999998,0.05169117263333532,0.0
16.290291999999997,0.06839734744962496,0.0
16.292688,0.08659187047526454,0.0
16.295084,0.1172164110021166,0.0
16.297472,0.1499809260443765,0.0
16.299856,0.18809822116195976,0.008917373149469136
16.30226,0.23822622490017495,0.01740836254223999
16.304644,0.2992014542737663,0.025401311258322373
16.307024,0.36647079949196065,0.03323678003879202
16.309424,0.4421659607185337,0.04081801522698431
16.311812,0.5247966938862664,0.04838469896382102
16.314192,0.6134318334353803,0.05599325525018253
16.316595999999997,0.7106325586197333,0.06339497686410457
16.318984,0.810532336826935,0.07094794147904268
16.321364,0.9156451254826,0.07855636512218411
16.32376,1.021771457287159,0.08630533180604236
16.326148,1.1331580213684247,0.09393759417579252
16.328528,1.2525529884353577,0.10142627728056355
16.330924,1.3774960013843494,0.10882936374758441
16.333312,1.4977314820703127,0.11629222114604021
16.335691999999998,1.608657203016362,0.12380977022558345
16.338088,1.7105054816479748,0.1313273193051267
16.340476,1.809654707256739,0.1387901767035825
16.342859999999998,1.898236246483847,0.146313847544842
16.345256,1.9798822137697958,0.1539978456509441
16.34764,2.0545926091145845,0.152741129034604
16.350019999999997,2.121808354010773,0.15191628977985847
16.352415999999998,2.1829724706973366,0.15149206985141023
16.354803999999998,2.2410182254804716,0.15111006622296325
16.3572,2.2914295601881456,0.15096677791255786
16.359592,2.333974157394882,0.1508755322938618
16.36198,2.36837247784696,0.1508640303655738
16.364359999999998,2.391923572663661,0.15120837863359235
16.366756,2.416360507069767,0.15126372734582316
16.369144,2.4387972365873254,0.1510843046912012
16.37154,2.4581628260296973,0.1507213588784867
16.373935999999997,2.4703133042771896,0.15043232483196128
16.37632,2.477575637300313,0.15027236489668339
16.3787,2.48367448733818,0.15008621577701034
16.381103999999997,2.4889819414431296,0.14990976775246007
16.383488,2.4960119570407753,0.1496786280468224
16.385868,2.4999689367053657,0.14959902584506604
16.388271999999997,2.4981991533844266,0.14977287098513375
16.39066,2.4960100611829064,0.15001841340608563
16.393036,2.5012702934596125,0.14994272862715244
16.395432,2.50518005129596,0.14997481803362703
16.39782,2.506575851706693,0.15008272818495008
16.400199999999998,2.5034555939453944,0.15037191059482538
16.402596,2.494049494691125,0.15102903000274323
16.404984,2.478776862824465,0.15201857022532972
16.40738,2.464575166144444,0.15294460751558395
16.409775999999997,2.4535862750243385,0.1536734054509384
16.41216,2.4479520598374247,0.1540594372271936
16.41454,2.438453412784539,0.15463277926761948
16.416936,2.4263935864777944,0.15538819588634462
16.419324,2.4128435161038313,0.15628366508526856
16.421704,2.3959408705430913,0.15742126672471124
16.4241,2.3771758938627956,0.15865107943934723
16.426488,2.3557099683017824,0.16009872055026467
16.428884,2.3427643024056337,0.1611003558409636
16.431288,2.3308895716961233,0.16203079470784434
16.433676,2.3239502080392254,0.16271876051810247
16.436055999999997,2.3242278514350767,0.16300749541869622
16.438451999999998,2.3272064437116455,0.163076497829012
16.440839999999998,2.3303248056150747,0.16312541852674067
16.44322,2.3357248075186416,0.1630301823192888
16.445615999999998,2.3461999461016796,0.16268028503431517
16.448003999999997,2.3554643798712203,0.16239835021047824
16.450384,2.3691523240141747,0.1618265381633142
16.452783999999998,2.3905691318890763,0.16085012500732923
16.455171999999997,2.411706400510257,0.1599205404405411
16.457552,2.4319125035716596,0.1590457620915015
16.459956,2.4461123043938118,0.15849515568178063
16.462339999999998,2.457378838909768,0.1580756792261522
16.464724,2.4669228119330286,0.15771573186823543
16.467124,2.479959129769925,0.15711330315949473
16.469511999999998,2.4943459220471804,0.15636769215786145
16.471892,2.509152023205017,0.1555394935758961
16.474287999999998,2.525588138056932,0.15454371533853392
16.476675999999998,2.5325728276842048,0.15404396444974544
16.479056,2.5415596180578937,0.15345188229327983
16.48146,2.5441680191399945,0.15312778499894467
16.483848,2.5424926794755414,0.15306904003711733
16.486227999999997,2.540398030930507,0.15307871801951387
16.488623999999998,2.5332282457060007,0.1533582157079269
16.491011999999998,2.5241961293619375,0.1537170153454175
16.493392,2.5098093370846826,0.15438544253713612
16.495787999999997,2.5012890774198175,0.1547696529276818
16.498175999999997,2.4947709185013696,0.15504190168305756
16.500556,2.4850871758512487,0.15537442746715666
16.502955999999998,2.478616238761043,0.15552187534516754
16.505343999999997,2.474147402417255,0.1555706310903791
16.507724,2.4735429979394397,0.15545205704908382
16.510116,2.480155600514375,0.15496918694161388
16.512504,2.4898412390223648,0.1543363123673229
16.514899999999997,2.4952431367838,0.1539365598104923
16.517304,2.505021323090408,0.1534000588745325
16.519688,2.51610276200913,0.15287549370717127
16.522067999999997,2.5267648920472725,0.1524194524665449
16.524472,2.5399409795110293,0.15188375545085267
16.52686,2.548041930295314,0.15159911458093572
16.529239999999998,2.5631728966772442,0.1510765331576672
16.531636,2.579886654925011,0.1505155134242697
16.534024,2.595669247612999,0.14999317774419216
16.536403999999997,2.6105206747412093,0.14949035237573882
16.538808,2.626954893735255,0.1489536662391472
16.541192,2.6451116742219978,0.14834148668955013
16.543571999999998,2.6581933180292685,0.14799477470300984
16.545968,2.668201925903484,0.14781806292646785
16.548356,2.680305182322732,0.14763758427694287
16.550735999999997,2.687984928368567,0.14772008388325739
16.55314,2.6940346607203223,0.14794762356569285
16.555524,2.701806954564774,0.1481234271686207
16.557903999999997,2.7086480828494466,0.14833815427263133
16.560308,2.7132075711339834,0.14868017187203542
16.562692,2.7222831175905506,0.14887225293580003
16.565071999999997,2.729356563300701,0.149150413503181
16.56748,2.73750094419749,0.14937501335604947
16.569864,2.748858130654195,0.14944744804461257
16.572243999999998,2.7632883530439547,0.14938952791842575
16.574648,2.783305568792385,0.14914595398778685
16.577032,2.8048130286080344,0.14881870383037757
16.579411999999998,2.826879566931124,0.14842161989478753
16.581812,2.8530900763739075,0.14786917462404509
16.584196,2.8853068880559425,0.14709514159271558
16.586579999999998,2.918734404551475,0.14627294037167568
16.588976,2.954583330674006,0.1453289597663693
16.591359999999998,2.995507393476009,0.14418553277607712
16.59374,3.03750239146465,0.14299961438748013
16.59614,3.079776928707012,0.1418022548481564
16.598527999999998,3.1252642715092893,0.14046443649882934
16.600908,3.171170923192148,0.1390805406961804
16.603303999999998,3.2132131430090323,0.13783494288240086
16.605691999999998,3.25297372282578,0.1367278003394341
16.608072,3.295947108202443,0.1355056672317979
16.610467999999997,3.3373377017132695,0.13432586461136853
16.612855999999997,3.3803583089181757,0.13305961302548666
16.615251999999998,3.421656354630385,0.13183986804438905
16.617648,3.456016932543566,0.13085194964720953
16.620036,3.488654948964051,0.12992064661891592
16.622415999999998,3.514774806466087,0.12916159474700467
16.624812,3.5355399880349303,0.1286110227246831
16.6272,3.55802773109647,0.12804238933648843
16.629579999999997,3.5763715030383154,0.12762350251128995
16.631975999999998,3.58991967755441,0.1273382189244011
16.634363999999998,3.6023969168838654,0.12709502279129542
16.636744,3.6160848610268204,0.12681099477714655
16.639139999999998,3.630052344423495,0.12650865610181763
16.641527999999997,3.64401982782017,0.12620940664694202
16.643924,3.6562647497241483,0.12593921218329351
16.64632,3.665716174948792,0.12572924581881356
16.648708,3.674096664986797,0.12555348136148378
16.651087999999998,3.683687859838301,0.1253280634772126
16.653484,3.690345788383609,0.12517427382244778
16.655872,3.6899264795030287,0.12521701953454834
16.658255999999998,3.6895071706224476,0.12525950182166568
16.66066,3.686526682488009,0.1254113743357531
16.663044,3.685408525473128,0.1255231967014854
16.665428,3.6881548003242197,0.12554263522851522
16.667828,3.6898301399886733,0.125595975421562
16.670216,3.6965806163325983,0.1255085461551765
16.672596,3.7038901711839647,0.12536259139554493
16.674999999999997,3.7046815671168822,0.12535670551038625
16.677387999999997,3.704541797490022,0.12537099792463197
16.679772,3.7042622582363016,0.12539978375278346
16.682167999999997,3.701049452676386,0.12550527057769353
16.684552,3.6934131367430565,0.12576334088916316
16.686936,3.6797705185704754,0.12618695593643064
16.689332,3.6653365044649773,0.1266140769740985
16.691716,3.6507627207326188,0.12705477258391382
16.6941,3.6400533688662335,0.12739644231334668
16.696496,3.629623556253569,0.12770973074894093
16.698884,3.621195844387321,0.12796615294047592
16.701264,3.6159809380809884,0.12812202074145557
16.70366,3.620264678827543,0.12798703681297696
16.706048,3.6225463188276805,0.12790536930506896
16.708427999999998,3.625247267708398,0.1277813257846914
16.710824,3.625154719909781,0.1277167406665539
16.713212,3.6245503154319656,0.12762989230162147
16.715591999999997,3.621012644647956,0.12761619137402902
16.717988,3.6159847297967262,0.12767760139536566
16.720375999999998,3.61454170755775,0.12767454639132772
16.722772,3.6176147434908055,0.1275874631785966
16.725168,3.624691980916695,0.12739529598331364
16.727556,3.6348422542756387,0.1271179056589897
16.729936,3.649788125060336,0.12673037752710548
16.732332,3.664082369538974,0.12632778264824027
16.73472,3.6845226858837234,0.1257517291028912
16.737099999999998,3.704683462974752,0.12520382616434964
16.739496,3.729500067864673,0.12457117224530037
16.741884,3.750312471261759,0.12404850361911028
16.744263999999998,3.7691227739124296,0.12357444307512068
16.74666,3.7848600406300443,0.12318748372556948
16.749048,3.8023198688403546,0.1227843988042669
16.751444,3.812422920371055,0.12259806773379583
16.75384,3.824807611901894,0.12233558166462949
16.756228,3.836121368246094,0.12210406266800759
16.758608,3.850368390896489,0.12180643932459768
16.761008,3.863264939106525,0.12156648984871464
16.763392,3.8848215166082873,0.12114208182859365
16.765772,3.905214611124793,0.1206877399661766
16.768168,3.9223023522827662,0.1202709009786874
16.770556,3.942602899000655,0.11977287412135733
16.772935999999998,3.9582476179196524,0.11936372120278056
16.775336,3.973100940905731,0.11896521732071337
16.77772,3.983438205719779,0.1186386171503062
16.780103999999998,4.000712938332856,0.11816568662323602
16.7825,4.013564160572518,0.11782389967781023
16.784888,4.025623986879262,0.11748376940821828
16.787284,4.031305423894418,0.1172460566771541
16.789679999999997,4.039128731282852,0.11695180401441141
16.792068,4.047883204231064,0.11663855271092229
16.794448,4.057848381992774,0.11628287273972829
16.796847999999997,4.064228667142232,0.11598118887151808
16.799232,4.071679887478328,0.11564750471835186
16.801612,4.078060172627785,0.11534452327369553
16.804019999999998,4.089375824829854,0.11494147996241474
16.806407999999998,4.096827045165949,0.11461412167046438
16.808788,4.109632941435238,0.11415228860107975
16.811183999999997,4.112847642853023,0.11387028218483784
16.813571999999997,4.116434431323145,0.11362182064929247
16.815956,4.119462141285827,0.1134216560734722
16.818351999999997,4.115552383449479,0.11336515884709139
16.820739999999997,4.116298453412025,0.11323335913153165
16.823124,4.11597358818793,0.11312911671489145
16.825519999999997,4.115369183710116,0.11304858670706285
16.827907999999997,4.1078273114332715,0.11310889845131503
16.830288,4.104708949529842,0.11304894861430556
16.832684,4.107736659492524,0.11285539530136621
16.835072,4.110624599828345,0.11267190087350336
16.837452,4.11178997867147,0.1125056048523272
16.839848,4.116959559007428,0.11225951508118111
16.842236,4.126273110463081,0.11192669824700104
16.84462,4.135586661918734,0.11159253211196221
16.847016,4.150906515613636,0.11114692978915483
16.849404,4.168088700428096,0.11067850077010781
16.851784,4.179264583003305,0.11032823148170919
16.85418,4.194304897444487,0.10991385435707254
16.856568,4.204781931885396,0.10962636982131838
16.858947999999998,4.220194333378916,0.10924742823068466
16.861348,4.237888374872573,0.10881118360055418
16.863736,4.258655452299285,0.10831458503184999
16.866132,4.285568601592109,0.10769573516016392
16.868527999999998,4.3046131175261255,0.10721107755073765
16.870911999999997,4.323238324579561,0.10676027075769046
16.873292,4.348800999432025,0.10618995803818465
16.875695999999998,4.375015300590547,0.10562173900404823
16.878083999999998,4.398947961748933,0.1051241278333119
16.880464,4.416315242160627,0.10478851121364928
16.882863999999998,4.438198580744353,0.10440218773959013
16.885247999999997,4.46352704231347,0.10399288758844699
16.887632,4.487505029442229,0.10363733754097376
16.890027999999997,4.505848801384075,0.10342262966366127
16.892412,4.530059105938311,0.10312250064112527
16.894792,4.547052403439799,0.10296017513950857
16.897195999999997,4.558970564261814,0.10288605410600789
16.899583999999997,4.574892926576662,0.1027447073190168
16.901964,4.588952957771954,0.10262817007432366
16.904359999999997,4.606365564154022,0.10243747928625525
16.906744,4.622707235349451,0.1022697300068217
16.909128,4.634904935425187,0.10217834657891774
16.911531999999998,4.648964966620477,0.10206887558603066
16.913916,4.66167452337541,0.10200433038414136
16.916296,4.683044109422069,0.10182305515529222
16.918692,4.706695335468865,0.10159103867604447
16.92108,4.7263423600228265,0.10142718637385703
16.923475999999997,4.749062420509844,0.10121219610614703
16.925872,4.769500840996723,0.10104657965883908
16.928259999999998,4.791429505550822,0.10082819152813371
16.93064,4.811915147865945,0.10060416276934465
