Time,Force,Position
16.277724,0.012976881999827704,0.0
16.280108,0.006738262335099882,0.0
16.282503999999996,0.0029585742418236894,0.0
16.284892,0.0011809868949643493,0.0
16.287272,0.0003345651078833296,0.0
16.289668,0.0003345651078833296,0.0
16.292056000000002,0.0003345651078833296,0.0
16.294435999999997,0.0003345651078833296,0.0
16.296832000000002,0.0017343778287974667,0.0
16.29922,0.01020953211773144,0.0
16.301603999999998,0.025387940922347772,0.0
16.304000000000002,0.044336337936451295,0.0
16.306388,0.06877728465273841,0.0
16.308771999999998,0.09922263775040688,0.0
16.311168000000002,0.13567239722945662,0.0
16.313556,0.1796168071571069,0.00983562592588873
16.315936,0.22840214048088286,0.01943597258065876
16.318331999999998,0.2789553612677292,0.02935047265717568
16.32072,0.3347215925030387,0.03914875085924509
16.323099999999997,0.39369873344039463,0.04913327905507361
16.325504000000002,0.45909958963971237,0.058810180414061115
16.327892,0.5291465737541328,0.06829141903912857
16.330275999999998,0.6068830037981767,0.07747058962595219
16.332672000000002,0.6887615091040454,0.08673107636294111
16.33506,0.7787862911645725,0.09571113907403926
16.337443999999998,0.8799378381141961,0.10410861702904974
16.339840000000002,0.9843947384223526,0.11237495391162881
16.342228,1.0922042139172847,0.12038297034437395
16.344611999999998,1.2007557470645798,0.12824452580951912
16.347008000000002,1.3013007730840767,0.13615274628760418
16.349396,1.3948630053341708,0.1441127235743316
16.351776,1.485446645307696,0.1520511746766198
16.354176000000002,1.570817274832758,0.15993829677162322
16.356564,1.6503232676032984,0.16779985223676835
16.358944,1.7256871851120144,0.17557040938646848
16.361344000000003,1.792205977731771,0.17362653094958463
16.363732,1.8554666388212382,0.17187680920629503
16.366115999999998,1.915608938007276,0.16993484685639781
16.368512000000003,1.9693275219313517,0.16820808648805274
16.3709,2.0234200887656346,0.16613327422975696
16.373283999999998,2.070949170711095,0.1643910090671937
16.375680000000003,2.113078250752989,0.1629195389102891
16.378068,2.1449191836669472,0.16191900875575205
16.380452,2.1748996813192187,0.16066443727690308
16.382852,2.19193830479108,0.15996056839257158
16.385239999999996,2.1938459618810104,0.16010733438319952
16.387624000000002,2.1901666256122714,0.16058523676821546
16.390023999999997,2.184997045276313,0.16120631231316088
16.392412,2.1786167601268556,0.1619178280448926
16.394792000000002,2.1750299716567336,0.16247360578463718
16.397191999999997,2.1714431831866112,0.16303262641478197
16.39958,2.170649891395824,0.16343017441760427
16.401960000000003,2.1712996218440126,0.16380495667982506
16.404364,2.1736719137848977,0.16410808259495088
16.406751999999997,2.1760442057257827,0.1644081551904982
16.409132,2.17762510173375,0.16473195976137542
16.411535999999998,2.17762320587588,0.16509688690977706
16.413919999999997,2.1840469211378415,0.16503545716579962
16.416303999999997,2.190750175653524,0.1649192305921991
16.4187,2.1930771416240353,0.16498520596837452
16.421084,2.1963352731543253,0.16500586103207404
16.423464000000003,2.2018750446847517,0.16486371429247934
16.42586,2.21193087438721,0.16451450021895958
16.428247999999996,2.216492258529615,0.16454056686988
16.430628,2.230644837523524,0.16405660151307716
16.433031999999997,2.2508037187566834,0.16320035159392543
16.43542,2.2731044703631196,0.16216672003006627
16.437799999999996,2.292844042715699,0.16136207895498655
16.440196,2.3135147806280565,0.16053211924532668
16.442583999999997,2.3321834177939964,0.15983372172843366
16.444964,2.3531336949600745,0.15897889835703624
16.447367999999997,2.3683572091406213,0.1584310398805497
16.449756,2.3835807233211685,0.15789966471800557
16.452135999999996,2.397873071941938,0.15742629614975767
16.454532,2.411374024629789,0.15698657662319346
16.456916,2.4308812795568904,0.1562326783586015
16.459296000000002,2.449038060043633,0.15557839468193063
16.461692,2.4627713301569614,0.1552340824561105
16.464080000000003,2.4811604280691815,0.15470253272979936
16.466476,2.499409756354541,0.15418559896833575
16.468871999999998,2.5128634872141493,0.1538769047708804
16.47126,2.5264569877006178,0.15356053197511416
16.473639999999996,2.541540732254304,0.15313446130342917
16.476036,2.5644931101667985,0.15233862995096703
16.478423999999997,2.5815789554669024,0.15183479409351144
16.480804,2.597593865580368,0.15140248693615907
16.483199999999997,2.617473207559808,0.15082100375492746
16.485588,2.6391223328601865,0.15007630833051086
16.487968000000002,2.6569070262945917,0.1494933396187454
16.490372,2.676833590102274,0.1488074943960029
16.492759999999997,2.6958289883501774,0.14817443504001063
16.49514,2.7168264873444983,0.1474359764198725
16.497543999999998,2.734750950405764,0.1468415689763237
16.499927999999997,2.7556086797732235,0.14614836121766303
16.502311999999996,2.7743245387674076,0.14556316608127573
16.504711999999998,2.7873136347760603,0.14520711019932647
16.5071,2.8053778674641867,0.14463317842207896
16.509484,2.8225109345925343,0.14409001095337895
16.511879999999998,2.8348484042951294,0.14373752791309258
16.514263999999997,2.8469063347440047,0.14341691541988663
16.516647999999996,2.869905934484742,0.14265285847436618
16.519044,2.8894131894118438,0.14208245194351843
16.521431999999997,2.9044969339655307,0.14174218516935472
16.523812,2.913993685160548,0.14159830292842537
16.526212,2.925632306728842,0.14135501935397976
16.528599999999997,2.9380623242300548,0.1411051375091207
16.53098,2.9464881402384333,0.14101732920560256
16.53338,2.95542581292601,0.14095756783080082
16.535767999999997,2.9692988526661983,0.1407173465508859
16.538148,2.98116979165997,0.14055751256822832
16.540551999999998,2.9915504865865232,0.14049795052321495
16.54294,3.0059353830059092,0.14029607812277298
16.545324,3.0236728546120712,0.13993988270059607
16.547719999999998,3.0354040239789826,0.13980633184851649
16.550108,3.0480663589056727,0.13964194498750312
16.552492,3.063242651257977,0.1394249778334729
16.554888,3.0726921806247507,0.13939623679678934
16.557271999999998,3.082281479618385,0.13934822015120316
16.559655999999997,3.094943814545075,0.1391823337209721
16.562052,3.1117501205914584,0.13885562783901856
16.564439999999998,3.119337318838676,0.13888564121215008
16.566823999999997,3.129485696339751,0.13877470728915098
16.569228000000003,3.142846879400741,0.1385304850188107
16.571612000000002,3.158861789514207,0.1382232945347607
16.573996,3.171663894067757,0.1380461193733636
16.5764,3.179670401195555,0.1380198780056598
16.578784,3.1879564475770743,0.1379581254432451
16.581164,3.194939241346477,0.137884131357223
16.58356,3.1988489991828244,0.1379269770212335
16.585948000000002,3.202618987392312,0.13798661918226837
16.588332,3.2065287452286593,0.13802831106185826
16.590728,3.2033612656391175,0.13832794895411524
16.593116000000002,3.2000540164227154,0.13863950341833983
16.595492,3.1999595727662284,0.13882199395739642
16.597896,3.200936064296381,0.13896066136173166
16.600284000000002,3.204333965453531,0.13897988936368946
16.602663999999997,3.209733967357098,0.13892915255567775
16.60506,3.2146221125814667,0.13885432699038266
16.607447999999998,3.217508157059418,0.1388497410043282
16.609828,3.2185318704178134,0.13889710262726168
16.612232,3.2227683893361245,0.1388180941406328
16.614620000000002,3.2279360738142144,0.13871610700812903
16.616999999999997,3.2313811967996062,0.1386492280760486
16.6194,3.2352456286655804,0.13853665101830034
16.621788000000002,3.2451163627708044,0.1382336815631304
16.624167999999997,3.2580601328090837,0.13781908232805457
16.626571999999996,3.2730060035937805,0.13734500115252862
16.62896,3.287532565497896,0.13691948842943405
16.63134,3.3003365659093156,0.13652168569138248
16.633739999999996,3.3123491703878165,0.13612968687094668
16.636124000000002,3.3209166518809248,0.13579691430082655
16.638508,3.3319055430010303,0.1353379864134305
16.640904,3.3391697718820224,0.13498336216315887
16.643292000000002,3.344431900016598,0.13469775317156446
16.645671999999998,3.3498337977780337,0.13439859464355777
16.648068000000002,3.3510917244197755,0.13425217163103426
16.650456,3.3544915214347943,0.13402507353550563
16.652839999999998,3.3593343406887892,0.133797006324438
16.655236000000002,3.3652480951294232,0.13352961199562682
16.65762,3.3691597488236398,0.13332775569334093
16.660004,3.373211172144716,0.13311196093534763
16.662399999999998,3.375400264346237,0.13294617425677635
16.664788,3.3794516876673137,0.13273502402531454
16.667167999999997,3.380430075055335,0.13262608908507514
16.669564,3.3786149657640214,0.13258660532995994
16.671951999999997,3.3798728924057633,0.13245066223743884
16.674332,3.3803394231145867,0.13232297891507647
16.676732,3.3838789897564663,0.13210323250099448
16.679119999999998,3.3902120530776805,0.13181870091055076
16.681516000000002,3.3985472171453113,0.1314771185466429
16.683912,3.414471475318029,0.13095064578041032
16.686300000000003,3.4330494605432222,0.1303784674649235
16.688684000000002,3.4542811728208895,0.12975313404241398
16.69108,3.475233345844836,0.1291495383778223
16.693467999999996,3.4952543533090052,0.12857268758592966
16.695852000000002,3.516486065586672,0.12794140522969216
16.698248,3.5331544978640648,0.1274847612734605
16.700635999999996,3.549822930141458,0.12703081025013735
16.703015999999998,3.5634183264857953,0.12666945461070514
16.705412000000003,3.579807219509467,0.1262453008956437
16.7078,3.592331680667166,0.12591951220352676
16.710183999999998,3.602714271451588,0.12566429855870478
16.712580000000003,3.6090926607431753,0.1255265846402928
16.714968,3.6133291796614864,0.12546038897445336
16.717348,3.6144926626467426,0.1254918913660172
16.719752,3.6115121745123036,0.12565787638395678
16.722139999999996,3.6073209815643668,0.12587508357218777
16.72452,3.5963320904442613,0.12627868949614268
16.72692,3.5853431993241553,0.12667872911902978
16.729304,3.574214538577189,0.12708960801245667
16.731684,3.5615030859643872,0.12749987934759388
16.734088,3.5489314029784453,0.12788783949409893
16.736475999999996,3.5358478633133057,0.1282504329777017
16.738856,3.5271878340215803,0.12845787481012474
16.741251999999996,3.5193192006627725,0.12865836954570029
16.74364,3.5141042943564402,0.12881158305197388
16.74602,3.513592437677243,0.12878873738268826
16.748424,3.5165729258116816,0.1286403664978535
16.750811999999996,3.5223469106254552,0.12843413390709854
16.753192,3.52718972987945,0.12824904544324198
16.755595999999997,3.5364088376786156,0.12799590951650536
16.757979999999996,3.5485612117839773,0.1276700823232868
16.760364000000003,3.5636468521955336,0.1272704926779962
16.76276,3.5827366940999235,0.12675926590633965
16.765147999999996,3.6036888671238705,0.12620162066501067
16.767528,3.62971617682729,0.12551196358078381
16.769923999999996,3.65439301209035,0.12487787888907206
16.772312,3.685727775898718,0.12408427821619748
16.774692,3.7150604389606703,0.12334397936579636
16.777088,3.7454640372092607,0.12258145154110041
16.779476000000003,3.7731666865771327,0.1219497176630873
16.78186,3.79807583926567,0.12138175633836065
16.784256,3.822565683073627,0.1208568039559632
16.786644000000003,3.8423524772544493,0.12050924030917803
16.789023999999998,3.862139271435271,0.12016540151789365
16.791420000000002,3.8780616337501193,0.11991274141171977
16.793808,3.8926335216246093,0.11972502772635048
16.796188,3.902781899125684,0.11968112154473111
16.798588000000002,3.9092056143876457,0.11970714882210001
16.800976,3.9156293296496085,0.11973364786143377
16.803371999999996,3.9238228282325096,0.11966572442267834
16.805768,3.9329474923751895,0.11958231608412993
16.808152,3.944074257264286,0.11945532806900316
16.810532000000002,3.95748266215352,0.11926190221999616
16.812939999999998,3.9723813111099733,0.11900371598646456
16.815323999999997,3.9812736578271757,0.11888197051829508
16.817704,3.993518579731153,0.11866220044617645
16.820099999999996,4.003109774582657,0.11848053031909783
16.822488,4.015634235740356,0.11823986626543072
16.824868000000002,4.024014725778362,0.11809877614085795
16.827272,4.0360273302568626,0.11783929092586348
16.829659999999997,4.0496227266012,0.11757341415287245
16.83204,4.064428827759036,0.11726863347300721
16.834435999999997,4.079282150745116,0.11688845030750213
16.836824,4.091202207425,0.11656609588085373
16.839208,4.1075457744782975,0.11612351803619313
16.841603999999997,4.122818406344957,0.1157098052713629
16.843987999999996,4.137159872651838,0.11530904196062837
16.846372000000002,4.158578576384609,0.11475245590473446
16.848768,4.180928445677158,0.11418663117342279
16.851152,4.20071713571585,0.1137221920508073
16.853532,4.219574660194763,0.11327776343136788
16.855932000000003,4.234567752807702,0.11290768059659442
16.858316000000002,4.246208270233866,0.11263278930978086
16.860712,4.257569248406309,0.11238489459854888
16.863115999999998,4.272003262511808,0.11207021722400803
16.865504,4.282712614378193,0.11181284592494477
16.867883999999997,4.293421966244578,0.11155623056248985
16.87028,4.303619461431766,0.11128244080120168
16.872672,4.315027661432452,0.11096778576041924
16.875051999999997,4.322152120686584,0.11075763347539666
16.877448,4.327693788074881,0.1105518266666769
16.879835999999997,4.333887081769234,0.11035730784013272
16.882219999999997,4.348181326247873,0.11007051184908925
16.884619999999998,4.367830246659704,0.10966401794921647
16.887008,4.383707283004178,0.10937978615231973
16.889387999999997,4.404519686401264,0.10901535504608247
16.891784,4.425751398678932,0.10861541886030492
16.894171999999998,4.441907974277126,0.10831732743038719
16.896552,4.456202218755765,0.10804610411335011
16.898947999999997,4.4697050673014855,0.10777679435771703
16.901336,4.4822767502874274,0.10752069079566501
16.903715999999996,4.496570994766066,0.10725050816643386
16.906112,4.510073843311787,0.10698037340049317
16.908499999999997,4.519292951110953,0.10680174095053674
16.91088,4.529955081149096,0.10663338831330617
16.91328,4.546204204545907,0.10639369916551764
16.915664,4.560730766450023,0.1061671176201548
16.918048,4.575489645779616,0.10598548896780424
16.920443999999996,4.59532366178868,0.1057159627148555
16.922832,4.614366281864827,0.10544389480031614
16.925212000000002,4.635922859366588,0.10515848227839597
16.927608,4.656036414629375,0.10486750969917019
16.929996000000003,4.666838314294377,0.10469800882967771
16.932375999999998,4.673728560265162,0.10464871613205483
16.934772000000002,4.684390690303304,0.10449355301563809
16.93716,4.686812099930302,0.10442973125505559
16.939543999999998,4.691467927729194,0.10437425846302087
16.941940000000002,4.703852619260033,0.10421348672541621
16.944328,4.713863122992117,0.10405365487371718
16.946711999999998,4.723873626724201,0.10389382302201816
16.949108000000003,4.736026000829562,0.10369370206969392
16.951496,4.747806287882586,0.1034648277546046
16.953876,4.7623800716149445,0.10320480275315205
16.956276000000003,4.788314833519747,0.10275469627872201
16.958664,4.810572155013679,0.10228960902560638
16.961044,4.8271027135220805,0.10189906763609233
16.963444000000003,4.846938625389015,0.10149809930828958
16.965828000000002,4.862817557591359,0.10109763295393225
16.968212,4.871619252367814,0.10080940507311631
16.970608,4.882423047890685,0.10048976128277255
16.972996000000002,4.891783821174581,0.10016244520464451
16.975375999999997,4.89914249371206,0.0998643404109475
16.977772,4.91143653330215,0.09949663999192039
16.980159999999998,4.92084452841429,0.099104940178526
16.982543999999997,4.922755977219959,0.09885425140916677
16.984955999999997,4.927321153078102,0.09858043283402496
16.987344,4.928069118898516,0.09829700841479269
16.989724000000002,4.9204365946809245,0.09810689326154848
16.992123999999997,4.9150384886352265,0.09792595703154623
16.994512,4.908197360350553,0.09773426588485583
16.996907999999998,4.896560634640129,0.09760248608867736
16.999304000000002,4.883713204116204,0.09750007465506161
17.001692,4.8675604202337475,0.09740647339664654
17.004072,4.841536902246067,0.09744590076352039
17.006467999999998,4.81760803280342,0.09750418045862766
17.008856,4.797823134480467,0.09749331652039783
17.01124,4.780319876157653,0.09743217288890041
17.013635999999998,4.766121971193369,0.09736292011213576
17.016024,4.755136871789001,0.0972363843561006
17.018408,4.7461538731310515,0.09708125481951528
17.020804,4.7382418096597405,0.09690682937329058
17.023192,4.73526511324104,0.09666827315898945
17.025571999999997,4.728004676075786,0.09650387608958923
17.027972,4.727262397828981,0.09627720479964258
17.03036,4.730152234022671,0.09596278748652728
17.032739999999997,4.736766732455475,0.09561440264605409
17.035136,4.748409145739507,0.0952528311482468
17.037523999999998,4.755767818276985,0.09495982688092607
17.039907999999997,4.763266260441325,0.09465670380445773
17.042312000000003,4.77206795521778,0.09437398089444751
17.0447,4.786596412979765,0.0940276169391808
17.04708,4.802987201861307,0.0936639283732878
17.049480000000003,4.82403381854174,0.09325932177014566
17.051868,4.844521356714732,0.09288866089074047
17.054248,4.864217498954806,0.09251876958760691
17.056644,4.882702936381381,0.09218267684097764
17.059032000000002,4.895321841195567,0.09192132774227856
17.061416,4.907289119703694,0.09165052820078566
17.063812,4.920047794144739,0.09138257201138958
17.066200000000002,4.9305248285856464,0.09116222328199089
17.068579999999997,4.938580453399558,0.09099771073719189
17.070976,4.942492107093775,0.09089643144172063
17.073363999999998,4.951478897467463,0.09072586788717998
17.075747999999997,4.955390551161679,0.0906253102282725
17.078151999999996,4.9627473278412895,0.09051255191472402
17.08054,4.970243874147759,0.09039293042388075
17.082924,4.975878089334673,0.09028996595694078
17.085319999999996,4.9944560745598645,0.09003331832910635
17.087708,5.012382433478999,0.0897658810509591
17.090092,5.035663468331326,0.08942052559354267
17.092487999999996,5.054009136131041,0.08913225023751392
17.094876,5.077429940610228,0.0887889963385926
17.097256,5.097498169902641,0.08850605587034067
17.099655999999996,5.122129679195328,0.08814177293807805
17.102044,5.147692354047791,0.08777254417083988
17.104424,5.1741861944600345,0.08740048570908804
17.106823999999996,5.202542365991834,0.0870126022708165
17.109208000000002,5.23248132938947,0.0866319466106713
17.111592,5.2662847246530795,0.08622404213718493
17.113988,5.302509529543686,0.08577187342471716
17.116376000000002,5.340876204807569,0.0852891464185124
17.11876,5.380034276004372,0.0848063875884326
17.121156,5.413046275335063,0.08439820841268796
17.123544000000003,5.4531355120916425,0.0839143629053643
17.125928000000002,5.488429151422471,0.08347375620696308
17.128324,5.514783222207853,0.08312291394301081
17.130712000000003,5.538343796313901,0.08279070359282804
17.133091999999998,5.55482713299406,0.08254423682271915
17.135488000000002,5.574103966353554,0.08228112059318925
17.137876,5.5860240230334375,0.08211371640289239
17.140256,5.601808511579295,0.08191391571720365
17.142656000000002,5.608373892325986,0.08181988944564295
17.145044,5.614287646766618,0.0817148931191963
17.147424,5.620201401207252,0.08161154866402832
17.14982,5.625183990088106,0.08151441231924779
17.152208,5.62551075117007,0.08144591238570414
17.154592,5.626256821132616,0.08135277318048148
17.156988,5.625420099229323,0.08125486695479753
17.15938,5.616854513594084,0.08121798301351503
17.16176,5.606007287958709,0.08121599593367529
17.164156,5.59702239344289,0.08120256353443354
17.166548,5.587385872621012,0.08117844604790667
17.168928,5.585106128478744,0.08106842281308224
17.171324,5.575888916537448,0.08101948832261048
17.173712000000002,5.571607071648763,0.08092842443202312
17.176096,5.578266896051941,0.08074015590250766
17.178492,5.59000185713459,0.08050306910238887
17.180884,5.598803551911046,0.08028791972848784
17.183264,5.6063945418740015,0.08009544493059564
17.18566,5.618269272583511,0.07985063011238266
17.188052,5.631214938479659,0.0795961054802709
17.190432,5.647373409935724,0.07930074137481102
17.192832000000003,5.665394212511344,0.0789958351438117
17.19522,5.680993605459967,0.07873438638892034
