Time,Force,Position
18.34246,0.06325323239026286,0.0
18.34484,0.060831822763265375,0.0
18.347236,0.06069205313640516,0.0
18.349624,0.0659069594427376,0.0
18.35202,0.07126163537593025,0.0
18.354416,0.0716809442565109,0.0
18.356804,0.07317118832373005,0.0
18.359188,0.07023792201753488,0.0
18.361584,0.07224002276395174,0.0
18.363972,0.07545282832386734,0.0
18.366352,0.07987633869728167,0.0
18.368752,0.08471915795127662,0.0
18.371136,0.09139928518807176,0.0
18.37352,0.096474421867544,0.0
18.375916,0.10380617541039704,0.0
18.378304,0.11113792895325007,0.0
18.380688,0.11553641618990794,0.0
18.383092,0.11553641618990794,0.0
18.38548,0.11539664656304774,0.0
18.38786,0.11164978563244776,0.0
18.390256,0.10282778802237556,0.0
18.392644,0.09707882634535875,0.0
18.395024,0.09039869910856362,0.0
18.39742,0.08264763668512995,0.0
18.399812,0.07475680463483607,0.0
18.402192,0.06886807333095904,0.0
18.404596,0.062048176467303685,0.0
18.40698,0.05858085479042414,0.0
18.409364,0.05325120199398796,0.0
18.41176,0.04671084438405303,0.0
18.414148,0.04003071714725789,0.0
18.416528,0.03414198584338086,0.0
18.418924,0.02746185860658573,0.0
18.421312,0.019990335436872477,0.0
18.423692,0.01265858189401944,0.0
18.426088,0.005326828351166402,0.0
18.428476,0.0009283411145085368,0.0
18.430872,0.0003942857438241635,0.0
18.433268,0.0,0.0
18.435656,0.0,0.0
18.438036,0.0,0.0
18.440432,0.0,0.0
18.44282,0.0,0.0
18.4452,0.0,0.0
18.447596,0.0,0.0
18.449984,0.0008135946244047934,0.0
18.452368,0.003489520368366228,0.0
18.454764,0.007236381298966194,0.0
18.457148,0.01005207666978784,0.0
18.459532,0.010074275361274523,0.0
18.461928,0.01116740923939974,0.0
18.464316,0.013191708677303272,0.0
18.466712,0.014284842555428489,0.0
18.469108,0.015238206806693492,0.0
18.471496,0.019124837364153668,0.0
18.47388,0.024082403108252375,0.0
18.476276,0.027177637732794437,0.0
18.478664,0.031204037917114822,0.0
18.481044,0.03523043810143521,0.0
18.483444,0.041398708659032654,0.0
18.485832,0.047287439962909676,0.0
18.488212,0.05531804164006377,0.0
18.490608,0.061346542570801,0.0
18.492996,0.06737504350153824,0.0
18.495376,0.07126167405899841,0.0
18.497768,0.07233260924563696,0.0
18.500156,0.07261214849935739,0.0
18.502536,0.07074981737980074,0.0
18.504936,0.0696788821931622,0.0
18.50732,0.07112190443213821,0.0
18.50972,0.07256492667111422,0.0
18.512116,0.07535842335044919,0.0
18.514504,0.07708098484314561,0.0
18.516884,0.0768014455894252,0.0
18.51928,0.07344887040264939,0.0
18.521672,0.06995652558901339,0.0
18.524052,0.0673953463351557,0.0
18.526448,0.0646943974544378,0.0
18.528836,0.0606679972701174,0.0
18.531216,0.054499726712519944,0.0
18.53362,0.04861099540864293,0.0
18.536008,0.04058039373148884,0.0
18.538392,0.0345518928007516,0.0
18.540788,0.028523391870014365,0.0
18.543176,0.024636761312554187,0.0
18.545556,0.022752231501510862,0.0
18.547952,0.019796766503829007,0.0
18.55034,0.017912236692785688,0.0
18.55272,0.016167476508602573,0.0
18.55512,0.014702255578139877,0.0
18.557508,0.012166099461038653,0.0
18.559888,0.007348303343800154,0.0
18.562284,0.004532607972978508,0.0
18.564672,0.0038587829754339244,0.0
18.567052,0.003324727604749551,0.0
18.569452,0.0018595066742868576,0.0
18.57184,0.0013254513036024841,0.0
18.57422,0.0,0.0
18.576616,0.0,0.0
18.579004,0.0,0.0
18.581384,0.0,0.0
18.583784,0.0,0.0
18.586168,0.0,0.0
18.588568,0.0,0.0
18.590964,0.0,0.0
18.593352,0.0,0.0
18.595732,0.0,0.0
18.598128,0.0,0.0
18.600516,0.0,0.0
18.602896,0.0,0.0
18.6053,0.0,0.0
18.607688,0.0,0.0
18.610072,0.0,0.0
18.612468,0.0,0.0
18.614856,0.0,0.0
18.617236,0.0,0.0
18.619636,0.0,0.0
18.62202,0.0,0.0
18.624404,0.0,0.0
18.6268,0.0,0.0
18.629188,0.0,0.0
18.631572,0.0,0.0
18.633968,0.0,0.0
18.636356,0.0,0.0
18.638736,0.0,0.0
18.641136,0.0,0.0
18.643524,0.0,0.0
18.645908,0.0,0.0
18.648304,0.0,0.0
18.650692,0.0,0.0
18.653076,0.0,0.0
18.655472,0.0,0.0
18.65786,0.0,0.0
18.660244,0.0,0.0
18.66264,0.0,0.0
18.665028,0.0,0.0
18.667412,0.0,0.0
18.669808,0.0,0.0
18.672196,0.0,0.0
18.674576,0.0,0.0
18.676972,0.0,0.0
18.679364,0.0,0.0
18.681748,0.0,0.0
18.684144,0.0,0.0
18.686536,0.0035598694754966046,0.0
18.68892,0.009261609324270269,0.0
18.691316,0.014451492493846245,0.0
18.693704,0.019781145290282427,0.0
18.696084,0.023108697340301763,0.0
18.698484,0.02857811976359816,0.0
18.700872,0.034978707746672874,0.0
18.703252,0.04259000054324633,0.0
18.705648,0.04726802703362462,0.0
18.708036,0.05045580945678374,0.0
18.71042,0.054015678932280355,0.0
18.712816,0.05762087437815086,0.0
18.715204,0.06187580027221004,0.0
18.717584,0.06957395329379282,0.0
18.719984,0.08672163568214976,0.0
18.722372,0.11108442926538677,0.0
18.724752,0.14121931180452782,0.0
18.727152,0.17391347773965732,0.0
18.72954,0.21270459785478518,0.0
18.73192,0.26173664326960533,0.009182242456812581
18.734324,0.31307345596345,0.018309891669608523
18.736712,0.3638965161202278,0.02778608906912359
18.739092,0.4225863137779433,0.03689527440773411
18.741496,0.4857902737498212,0.046145185276074294
18.743884,0.56044586383489,0.05506280452967999
18.746264,0.6386844506743428,0.06399846325856548
18.748668,0.7226951264696994,0.07272068953685987
18.751056,0.8104757904745432,0.08134839943109992
18.753436,0.9073338967938238,0.08992121211930838
18.755844,1.0118264231885652,0.09844539240699936
18.758228,1.1233017433527093,0.10682663694638467
18.760608,1.238037090905012,0.11509257921987938
18.763012,1.3601783328230368,0.12280666760688508
18.7654,1.4745000590683668,0.13067791692870367
18.76778,1.5783013207602838,0.13861452706537714
18.770184,1.6757714149888565,0.14662838549912693
18.772572,1.7726371047396141,0.154462015716175
18.774952,1.8697370077737179,0.16217865849760926
18.777348,1.958133451403592,0.16987573884317353
18.779736,2.0299105804421855,0.16865343258498375
18.782116,2.0964746990323166,0.16748953552004014
18.784512,2.1685804850107435,0.16569864071345786
18.7869,2.232400224607651,0.1643133118429977
18.789284,2.2929165067038957,0.16268401051699966
18.79168,2.3422606979406697,0.1614416025944734
18.794068,2.3854607131692025,0.16024690675221262
18.796448,2.4219102520538094,0.15938041057338503
18.798844,2.4541232720201056,0.15870474029991163
18.801232,2.483916778217273,0.15792644958776034
18.803612,2.510499374712394,0.15706367059635482
18.806012,2.53252058706511,0.1562365492242905
18.8084,2.5574750657240215,0.15532877760335168
18.81078,2.5766083377409164,0.1549528813373451
18.813176,2.6081263012886504,0.15410890295090066
18.815564,2.64178613520966,0.1531542786404334
18.817944,2.672699694279579,0.15217829477212705
18.820348,2.6996090518566644,0.15141386290896292
18.822736,2.726890496486087,0.15072432794883353
18.825116,2.761154734884912,0.1499541996325905
18.82752,2.8067327296279374,0.14876231166322365
18.829908,2.850308623624546,0.14763952007689315
18.832288,2.884805179448848,0.1469348919602411
18.834684,2.924561967549857,0.14618308939302302
18.837072,2.9674843393825387,0.14542630358026362
18.839452,3.0110583375212783,0.14465485969345854
18.841848,3.0561225797272367,0.14377772053641658
18.844236,3.1037480011870526,0.14274489973069623
18.846616,3.153143205967808,0.1415760171943288
18.849016,3.1996051444423683,0.1405566289973573
18.8514,3.2402005503045386,0.13975547629152824
18.853784,3.276140128367817,0.1391096380406753
18.856188,3.3054217778857864,0.1387062407488856
18.858572,3.3327013266573395,0.13837583307825452
18.860952,3.349271523562508,0.13850163035506843
18.863352,3.362908454161481,0.13872534658511262
18.86574,3.3766851543873138,0.13893063191050303
18.868124,3.3854339397619175,0.13923226860355603
18.87052,3.38980643659135,0.13963860629043442
18.872912,3.3870091481962765,0.14023376009353744
18.875292,3.3736894993899207,0.14117484670084882
18.877688,3.361488007598448,0.141984228621198
18.880076,3.3516153776353543,0.1425995166793935
18.88246,3.3327578531564415,0.14338628399388428
18.884856,3.3056596082663843,0.14441910509965
18.88724,3.2791204418837676,0.14538900453860287
18.889624,3.250067318075536,0.14641123090059668
18.89202,3.2195711720283287,0.14741935976766118
18.894408,3.1844191981822303,0.1485780953711911
18.896788,3.152200490642326,0.1496030081961618
18.899192,3.125848315714813,0.15042234401957502
18.90158,3.101218702279996,0.15121239492244232
18.903964,3.0742149010464246,0.15205766816573252
18.90636,3.0441852857080414,0.15295562107313712
18.908744,3.0169963888772355,0.15368860295252565
18.911128,2.9895279527927094,0.15448148580351487
18.913524,2.9677862796937142,0.15505378359300706
18.915912,2.9488381032740536,0.15555299910714981
18.918292,2.9331027324143077,0.1559003917468338
18.920688,2.9245371467790693,0.15602940846799612
18.923076,2.9262143823013913,0.15581334623314222
18.925456,2.927704626368611,0.15570965162390576
18.92786,2.928496022301529,0.15569621584319854
18.930248,2.9396700090188688,0.1553213007462077
18.932628,2.95508051465452,0.15483089478787068
18.935024,2.969372863275289,0.15447933373706768
18.937412,2.9856200908142316,0.15413743469512572
18.939792,2.9977233472334808,0.15397804766659215
18.942188,3.013830805145563,0.15364562922439082
18.944576,3.022209399325699,0.15361715569697826
18.946956,3.025792396080082,0.15377494313872997
18.949352,3.0288635361552685,0.15391039119730154
18.95174,3.0378012088428448,0.15380956182745936
18.95412,3.052465644515952,0.1534912963443704
18.95652,3.072856843174589,0.15298126996107575
18.958904,3.098462948139558,0.1522421992166318
18.961304,3.1179229812384164,0.15177454267310578
18.9637,3.143389316576525,0.15108373239541073
18.966084,3.1696470478475525,0.150404468598624
18.968468,3.191668260200268,0.1498392252741463
18.970868,3.207171313634536,0.14948331179929808
18.973256,3.225235546322662,0.1489912292633141
18.975636,3.2426481527047297,0.14848855668490574
18.97804,3.255404931287906,0.14814359700892965
18.980428,3.2677896228187446,0.14776071096606497
18.982808,3.285296672857298,0.14711225135292877
18.985204,3.3015004702837363,0.14645028896089954
18.987592,3.324641735509203,0.14555274172941282
18.989972,3.3452690433090555,0.1447104490685052
18.992368,3.368038221482185,0.14375210069654676
18.994756,3.394811601148148,0.1426522278314957
18.997136,3.423819398986005,0.14154053281772622
18.99954,3.4516164920103636,0.1405192330002496
19.001928,3.475688922795609,0.13961707837531792
19.004308,3.488959453915853,0.13906934888114497
19.006708,3.4991569491030408,0.13863812893245833
19.009096,3.512427480223284,0.13809538251077458
19.011476,3.5201110179848567,0.13771432124098051
19.013872,3.5235580368281187,0.13741216776788184
19.01626,3.5242115589920466,0.13718148594415924
19.01864,3.5303123048877834,0.1368205073292193
19.021036,3.536924907462718,0.1364886344514239
19.023424,3.548612646717124,0.13600014144959227
19.025808,3.5535026877993627,0.13569942831380039
19.028204,3.5573217936949617,0.13543720791701835
19.030592,3.56016251220254,0.13528625415658552
19.032972,3.567379519255289,0.1350530424901166
19.035368,3.5682181370164505,0.13496456117362746
19.037756,3.5699879203373897,0.13485369125741453
19.040136,3.5756221355243034,0.1346388178861151
19.042536,3.577764005897581,0.13456488433482866
19.044924,3.5784628540318817,0.1344917864991199
19.047308,3.5727833128745945,0.13455997726091942
19.049704,3.567103771717307,0.1346287139471392
19.052092,3.5694326335456874,0.13445680477314018
19.054476,3.574415222426542,0.13423391298946968
19.056876,3.577395710560981,0.13407054853175102
19.059264,3.5800966594416987,0.1339360663566964
19.061644,3.5831696953747545,0.13383738694344838
19.06404,3.591410415785899,0.13364575497734604
19.066428,3.5988597402641256,0.13346830943313778
19.068812,3.602724172130099,0.13336574201939763
19.071208,3.6028639417569597,0.1333513929855865
19.073596,3.6138056110488224,0.13304502276833158
19.07598,3.628611712206659,0.13264321535372917
19.078376,3.6419747911255183,0.1322471697443423
19.080764,3.6503099551931486,0.1319224166971521
19.083144,3.6594365151936983,0.1315859609838373
19.085544,3.665210500007471,0.13136601313380508
19.087932,3.670704945567524,0.1311778750610944
19.090328,3.682485232620548,0.13080060608992064
19.092728,3.69533645486021,0.13039257396252563
19.095116,3.716568167137877,0.12980203827080106
19.0975,3.7372408009081037,0.12926058249749933
19.099896,3.7547006291184144,0.12882991902748323
19.10228,3.7677841687835545,0.12847361134947
19.104664,3.7820784132621927,0.12806775961112699
19.10706,3.7960931184871103,0.12768502148041638
19.109448,3.8121099244584453,0.1272466500528913
19.111828,3.828685808937221,0.1267646624029924
19.114224,3.83781236893777,0.1264388127535829
19.116612,3.8441454322589843,0.12616785457945456
19.118996,3.8488484818861197,0.12598720032930685
19.121392,3.8472656900202833,0.12599949793617213
19.12378,3.842749631848252,0.1260843336096844
19.126164,3.836371242556664,0.12620807475151852
19.12856,3.83194773218325,0.1263559945555959
19.130948,3.8308295751683676,0.12646642005822564
19.133332,3.835717720392737,0.12641657857440683
19.135728,3.8414444833782664,0.1262873240215567
19.138116,3.841304713751407,0.12630075463173848
19.140496,3.8438186711770217,0.12627239389337488
19.142896,3.8406058656171065,0.12636591615898757
19.145284,3.8399542393110475,0.12635773624249932
19.147664,3.8387907563257926,0.12632819839059545
19.150064,3.8392100652063728,0.12628848668091297
19.152448,3.8425626403931483,0.12618228872377954
19.154828,3.8501989563264782,0.12595366384684806
19.157236,3.855833171513391,0.12577339349381428
19.15962,3.8542503796475547,0.12578309146260422
19.162,3.8611878474465837,0.12561791148875123
19.164396,3.876645574910478,0.1252795373499539
19.166784,3.895176338307427,0.12486139361152589
19.169168,3.9150575761447355,0.12438313562312572
19.171572,3.9357302099149623,0.12390111913603212
19.17396,3.952910498871552,0.12352826389979082
19.17634,3.9706498663355836,0.123104351985306
19.178744,3.986946211560639,0.12268049467558954
19.181132,3.999378124919721,0.12234635690252152
19.183512,4.006687679771087,0.1222152452069019
19.185908,4.01571979611515,0.12206077722540747
19.188296,4.016743509473545,0.12210309052484836
19.190676,4.023354216190611,0.12203752857084404
19.193072,4.0266123477209,0.1220778927615423
19.19546,4.031965127796224,0.12212938698411528
19.197844,4.041461878991241,0.1220723447991268
19.20024,4.047885594253202,0.12209504509495986
19.202624,4.050165338395471,0.12222485416920327
19.205008,4.0544471832841555,0.12230766052366354
19.207404,4.06608580485245,0.12219347459259154
19.209788,4.0747911601145494,0.12214643370179286
19.212172,4.07683858683134,0.1222293041563864
19.214572,4.075161351309018,0.12237835194260603
19.21696,4.072273410973197,0.12256934053236426
19.219344,4.070596175450874,0.12271758286487654
19.221748,4.07748642142166,0.12263580991483795
19.224136,4.082654105899749,0.12257501244076874
19.226516,4.087542251124117,0.12253887599315551
19.22892,4.095223893027821,0.12245432134808469
19.231308,4.106677418998881,0.12223269917043622
19.233688,4.116687922730966,0.1220072213078569
19.236092,4.134194972769519,0.12157916707015443
19.23848,4.145975259822544,0.1212643089067295
19.240864,4.161899517995262,0.12084638369425788
19.24326,4.175589357996085,0.1204286886178213
19.245648,4.183272895757658,0.12014833344183723
19.248032,4.191096203146092,0.11985606869503926
19.250428,4.199990445721163,0.11953400190085847
19.252816,4.211026558669512,0.11916082178779719
19.255196,4.21577683012489,0.11894380807165059
19.257596,4.2188045400875716,0.11874650881267149
19.259984,4.224765516356448,0.11848914955891585
19.262364,4.232588823744881,0.11819819155458128
19.264764,4.244556102253008,0.11780968118438366
19.267148,4.256802920014856,0.11740428008230581
19.269532,4.262763896283732,0.11715361662588501
19.271928,4.272169995538001,0.11686854803477612
19.274316,4.283997504419268,0.1165094821115504
19.276696,4.2942422214347,0.11615962496780763
19.279096,4.306349269569687,0.11578707424255871
19.281484,4.318176778450955,0.11543612180719638
19.283864,4.325720546585667,0.11519135813481993
19.28626,4.335545954720518,0.1148824412861084
19.288648,4.345371362855367,0.11457810208831198
19.291032,4.359340742109912,0.11418891483285509
19.293428,4.3766626965512305,0.11371311590813817
19.295816,4.395707212485248,0.11322510045977412
19.2982,4.415031267672984,0.11271585544285413
19.300596,4.426626459128773,0.11233550834098074
19.302984,4.443716096144617,0.11181938778395413
19.305364,4.460805733160459,0.11130123532387508
19.30776,4.477895370176302,0.11078751093903813
19.310148,4.4932624456994485,0.11028691536624809
19.312528,4.499550183050289,0.10996132949362297
19.314924,4.500483244467937,0.10976054192561226
19.317312,4.50448934181864,0.10949523543546127
19.319696,4.50369984174359,0.10931033377586241
19.322092,4.501559867228182,0.1091739989544061
19.32448,4.5008629149517505,0.10904523987809141
19.32686,4.49308872524943,0.10905477175550675
19.329256,4.487968262599583,0.10903552702937369
19.331644,4.483639195882656,0.10901440043180427
19.334024,4.478099424352227,0.10902916173563783
19.336424,4.470837091329104,0.1090582968299254
19.338812,4.45700937755929,0.10924501387524327
19.341208,4.439549549348979,0.10953998689751977
19.343604,4.420506929272833,0.10983550508303928
19.345992,4.401184769942964,0.11015225283711472
19.348372,4.388240999904685,0.11039169478928895
19.350768,4.373667216172327,0.11069609214582896
19.353156,4.362818094679081,0.11094608265399546
19.355536,4.3508980379991975,0.11121870634856935
19.35794,4.3422833346778456,0.1114737682889619
19.360328,4.344889839902077,0.11151122889160547
19.362708,4.349638215499587,0.11150011643976528
19.365108,4.355177987030013,0.11148785840306037
19.367492,4.365792895239912,0.11137879148516097
19.369876,4.374545472330254,0.11129530110317969
19.372272,4.3823668838608185,0.11122527085830018
19.37466,4.398988094309969,0.11100838462687562
19.37704,4.415376987333642,0.11075357249469048
19.379436,4.4320454196110335,0.110476953847673
19.381824,4.4524385141275395,0.11015286511202493
19.384208,4.474414400509882,0.10982946980363577
19.386604,4.502815898012054,0.1093675087961416
19.388988,4.534569970701004,0.10882136577774994
19.391372,4.5679068352557906,0.10827798464898207
19.393776,4.602314634997214,0.10771449214876729
19.39616,4.637281513246078,0.10711835209365808
19.398544,4.670525830002246,0.10653464886441173
19.400948,4.699765945265582,0.10602392581288889
19.403336,4.729145830155777,0.10550341631031242
19.40572,4.760435267993771,0.10490929204531302
19.408116,4.78851190027185,0.10439700711952635
19.4105,4.821523899602541,0.10381588364770199
19.412884,4.855886373373591,0.1032056508907851
19.41528,4.887455350465307,0.10263620111430173
19.417668,4.92023503237052,0.10203612877658698
19.420052,4.95078029610384,0.10142740534619471
19.422448,4.975086940172432,0.10087925648352156
19.424836,4.994970073867608,0.10042034892786071
19.427216,5.015924142749425,0.09994435481480599
19.42962,5.031430987899431,0.0995194666661744
19.432008,5.043213170810324,0.09913473630764558
19.434392,5.0529932529748,0.09878480517169193
19.436788,5.062913104766137,0.09842776824602434
19.439176,5.0701792295049986,0.09809094757806106
19.44156,5.074512087937666,0.09779195714114301
19.443956,5.076703075997055,0.09753289915867276
19.446344,5.080104768869943,0.09724495745227636
19.448728,5.082854835436773,0.0969454049869678
19.451128,5.0854651323767435,0.09665563897271288
19.453516,5.084583084503077,0.09644392066301538
19.4559,5.0809075399500765,0.09626025559640412
19.458304,5.069503131665129,0.0961688310628536
19.460688,5.054094521887347,0.09613155111517462
19.463072,5.037475207296066,0.0961218813324054
19.465476,5.021647288637705,0.09611152763256514
19.467864,5.009544032218455,0.09606423032672101
19.470244,4.998232171732123,0.0960168822630959
19.47264,4.991995447925266,0.09589708434705617
19.475028,4.984687788931768,0.09579527064678148
19.477412,4.982595036244604,0.09561203206810723
19.479804,4.983715089117354,0.0953745186355804
19.482192,4.979480466056914,0.09522644691051527
19.484576,4.975385612623333,0.09506918370632922
19.486972,4.969148888816473,0.09494734690448844
19.48936,4.968918467248865,0.09474590146113078
19.491744,4.9685482760543955,0.0945539291904568
