Time,Force,Position
18.619908,0.030748641395210757,0.0
18.622288,0.031642755336247046,0.0
18.624688,0.03164275533624705,0.0
18.627072,0.03164275533624705,0.0
18.629456,0.03164275533624705,0.0
18.631852,0.03668084039697725,0.0
18.63424,0.04278986064434598,0.0
18.63662,0.04796771533193639,0.0
18.639016,0.05393696595244492,0.0
18.641404,0.056972950266758256,0.0
18.643784,0.058006833834654756,0.0
18.646184,0.05800683383465476,0.0
18.648572,0.05800683383465476,0.0
18.650956,0.05800683383465476,0.0
18.653352,0.053807366535085825,0.0
18.65574,0.047326259235379614,0.0
18.658124,0.042847252682090255,0.0
18.66052,0.03808870687508048,0.0
18.662908,0.03225922588143216,0.0
18.665292,0.029223241567118814,0.0
18.667688,0.027258192439443996,0.0
18.670076,0.02636407849840771,0.0
18.672456,0.02636407849840771,0.0
18.674852,0.02636407849840771,0.0
18.67724,0.02636407849840771,0.0
18.679636,0.02132599343767751,0.0
18.682036,0.015216973190308777,0.0
18.684424,0.010039118502718367,0.0
18.686804,0.004069867882209846,0.0
18.6892,0.0010338835678964974,0.0
18.691588,0.0,0.0
18.693972,0.0,0.0
18.696368,0.0,0.0
18.698756,0.0,0.0
18.701136,0.0,0.0
18.703536,0.0,0.0
18.705924,0.0,0.0
18.708304,0.0,0.0
18.7107,0.0,0.0
18.713088,0.0,0.0
18.715468,0.0,0.0
18.717868,0.0,0.0
18.720252,0.0,0.0
18.722636,0.0,0.0
18.725032,0.0,0.0
18.72742,0.0,0.0
18.7298,0.0,0.0
18.7322,0.0,0.0
18.734588,0.0,0.0
18.736972,0.0,0.0
18.739368,0.0,0.0
18.741756,0.0,0.0
18.74414,0.0,0.0
18.746536,0.0,0.0
18.748924,0.0,0.0
18.751308,0.0,0.0
18.753712,0.0,0.0
18.756096,0.0,0.0
18.758476,0.0,0.0
18.760884,0.00047480506045565656,0.0
18.763268,0.0018807756806896335,0.0
18.765648,0.006220012607118781,0.0
18.768044,0.0077657528542129685,0.0
18.770432,0.0077657528542129685,0.0
18.772812,0.0077657528542129685,0.0
18.775208,0.010242658661085478,0.0
18.777596,0.013650730027736306,0.0
18.779976,0.015196470274830492,0.0
18.782376,0.01581104496214636,0.0
18.784764,0.018567490022739285,0.0
18.787144,0.018567490022739285,0.0
18.78954,0.018567490022739285,0.0
18.791928,0.019321834336915363,0.0
18.794312,0.0222180490243685,0.0
18.796708,0.02432286777890353,0.0
18.799096,0.03071142727999268,0.0
18.801492,0.03817092196772036,0.0
18.803888,0.045630416655448036,0.0
18.806276,0.05495224246273236,0.0
18.80866,0.0628680976497827,0.0
18.811052,0.06808300395611515,0.0
18.81344,0.06896694768765031,0.0
18.81582,0.07413273630787037,0.0
18.818216,0.08442726192956843,0.0
18.820604,0.10296061210454191,0.0
18.822984,0.12031841322688948,0.0
18.825384,0.14447201666353646,0.0
18.827768,0.1775632927877599,0.0
18.830164,0.21731060159942256,0.0
18.83256,0.26236346865816546,0.009450175806494342
18.834944,0.3216244108906923,0.018158404250617252
18.837324,0.3859585939448222,0.026909112472345648
18.839732,0.4519579464539042,0.035919457742596556
18.84212,0.5170242375453387,0.04535351950765028
18.8445,0.5896777268839907,0.05464009922219997
18.846896,0.6624218681633904,0.06411411373330675
18.849284,0.7406113373167307,0.07352705044670182
18.851664,0.8246654432245921,0.08289245405077464
18.85406,0.9128616243942781,0.09218516476459575
18.856448,1.0078536078782636,0.10144261961694846
18.858832,1.114763752184264,0.11033896160184439
18.861228,1.230706012834327,0.1190282797615431
18.863616,1.3532608760593245,0.1273549553707204
18.865996,1.4757250873435743,0.1354486956218383
18.8684,1.5890665303430134,0.1434721230504035
18.870788,1.7025968606554251,0.15137138971767716
18.873168,1.8065378919742028,0.1593485641885011
18.875564,1.9029842728443798,0.1673903617620661
18.877952,1.9969185921468113,0.17525148480807134
18.880332,2.0768873239104373,0.17394111199301615
18.882728,2.141539993694899,0.17356824611313412
18.885116,2.1994894089636783,0.17331561483498392
18.8875,2.2581848941950016,0.17271458844183207
18.889896,2.320979024575645,0.17147710855721454
18.892284,2.3748354822687117,0.17051545884199465
18.894664,2.4263196480208937,0.16925987896676625
18.89706,2.4732896514589133,0.16796209697002956
18.899452,2.5158380403813876,0.1666960474082763
18.901832,2.5542443540420376,0.1654245758277558
18.904228,2.5878569661348054,0.16412948251575973
18.906616,2.6089470129277434,0.16324808731111126
18.909012,2.6210993870331043,0.1625673005564058
18.911412,2.6231487096077646,0.16235026099796857
18.913796,2.6231487096077646,0.16235026099796857
18.91618,2.6274777763246924,0.1623065198296374
18.918576,2.63138753416104,0.16232850589538506
18.92096,2.6387424149827803,0.16223906549393405
18.92334,2.6468886917374386,0.16212905063738395
18.92574,2.652054480357659,0.1622637694573369
18.928128,2.6702565868147756,0.16186986135694384
18.930508,2.695256391444061,0.16116132762890534
18.932904,2.7210948138345072,0.16030421755780075
18.935292,2.7448385876799195,0.15948453133356116
18.937676,2.7642060729801607,0.15884538059885767
18.940072,2.7906507957062914,0.15788730199029413
18.942456,2.8133708561933086,0.1570782080937265
18.94484,2.832226484814352,0.1564340063137081
18.947236,2.8488476952635016,0.1558186842702523
18.949624,2.8629077264587934,0.15537331156974918
18.95202,2.8761291398929236,0.15504683977438133
18.954416,2.891305432245228,0.15472337725767912
18.9568,2.908157064261986,0.15444765610476702
18.959184,2.928733358517857,0.15402378653580062
18.96158,2.94865802646767,0.15360179161257642
18.963972,2.9635075577380103,0.15341841322382863
18.966352,2.980871046433966,0.1531815407429716
18.968748,2.9977226784507236,0.15292870239986037
18.971136,3.0156924674823626,0.1525301630422255
18.97352,3.0314278383421076,0.1521469798947767
18.975916,3.040645050283405,0.15201374372224002
18.978304,3.0479999311051453,0.1519507576393864
18.980684,3.0609418052855557,0.15170713473882272
18.983084,3.072672974652467,0.15153188905408121
18.985472,3.084264374392518,0.15137693489493398
18.987852,3.091432263759155,0.15143456719565798
18.990248,3.102836672044103,0.15139781982729417
18.992636,3.116755037754665,0.15130457666001387
18.995016,3.130254094584646,0.15125987288951445
18.997416,3.14459176917579,0.15110660839804366
18.999804,3.158836895968316,0.1508766227373739
19.002184,3.1764345979476176,0.15049107993547559
19.00458,3.191286025075828,0.1500976651952004
19.006968,3.2006902284722276,0.14986540008533694
19.009348,3.2085116400027913,0.14965934880926887
19.011748,3.218382374108015,0.14927742790590068
19.014136,3.2226661148545697,0.14908349136621257
19.016532,3.22294565410829,0.14904790121460726
19.018928,3.2195930789215144,0.14921294609401353
19.021316,3.22238657560085,0.1491207446069464
19.023696,3.2250403026533245,0.1490460269190898
19.026092,3.224201684892163,0.14915279806091378
19.02848,3.2165653689588334,0.14950819196735582
19.03086,3.2101397578390025,0.14979619673990008
19.03326,3.201200189293557,0.15014254010332037
19.035648,3.1910971377628554,0.15046292567193403
19.038028,3.1779682721273415,0.15081281003704441
19.040428,3.1635361538797127,0.15115348275350293
19.042812,3.1495233445126636,0.15144696477721972
19.045196,3.1347191392126965,0.15175308334478474
19.047592,3.1220568042860073,0.15195538346227538
19.04998,3.1045988719335647,0.15232236020828452
19.052364,3.090166753685935,0.15266020272679767
19.05476,3.083323729543393,0.15273862064805727
19.057148,3.0759216268934084,0.15289017944328054
19.059528,3.0710334816690406,0.1529818325643885
19.061928,3.0690786027508667,0.15296712715771385
19.064316,3.0709881556986667,0.15281361549972117
19.066692,3.0769019101393003,0.1525022795852933
19.069096,3.0757384271540453,0.15247511873193675
19.071484,3.0731319219298134,0.1524560914298047
19.073864,3.0733661352131594,0.15225120704111061
19.07626,3.075881988496644,0.15192890141512722
19.078648,3.0754645754739327,0.15171776679117893
19.081044,3.0789115943171943,0.15136420775847376
19.08344,3.0810081387200974,0.1510927267271149
19.085828,3.082126295734979,0.1509466880108655
19.088208,3.0845477053619765,0.1508093955725014
19.090604,3.0899023812951696,0.15056001103645061
19.092992,3.094697978720921,0.15038110482185751
19.095372,3.096001231333037,0.15039015346709678
19.097768,3.0999582109976274,0.15032092958818755
19.100156,3.104334499542799,0.15019822133152763
19.102536,3.103775421035358,0.15026999636710475
19.104936,3.106988226595274,0.15012349828783836
19.107324,3.1041947299159385,0.15021661315415458
19.109704,3.099538902117047,0.1503718271113916
19.112104,3.094743304691295,0.15054328604177683
19.114492,3.0892960809594854,0.15070614801171697
19.116872,3.0877132890936494,0.15073176536215196
19.119276,3.089296080959485,0.15070614801171697
19.121664,3.094184226183854,0.15061550977054886
19.124044,3.1005153936471985,0.1505199321732065
19.126444,3.113504489655852,0.15020958958371536
19.128832,3.1230012408508685,0.150071219119824
19.131212,3.139155920591195,0.14972194490972265
19.133608,3.1589427147720173,0.149187249235267
19.135996,3.1811509185798372,0.1485433524542227
19.138376,3.201868878320437,0.14800353126817867
19.140776,3.2250082476880353,0.14734327284974574
19.14316,3.2502894874289097,0.1465921301845883
19.145544,3.2789233023565605,0.14571951381282627
19.14794,3.3094194484037676,0.14481651001742318
19.150328,3.3416381559436714,0.14387141309160653
19.152724,3.371155914602858,0.14308766156400216
19.15512,3.4058885795683755,0.14210489337830728
19.157508,3.4434147412132283,0.14104894543597002
19.159888,3.480149506925164,0.14000669690962242
19.162288,3.512320992636824,0.13915081920410605
19.164672,3.543421543161846,0.13834003247655322
19.167056,3.5740102370076707,0.1375193288310692
19.16946,3.5998033334277433,0.13685236456672653
19.171848,3.6238738683551195,0.13622563691266826
19.174228,3.6411467051103275,0.1358107473604204
19.176624,3.6597700163058935,0.13531988148198618
19.179012,3.67280633414279,0.13498396825441777
19.181392,3.6827696160466314,0.1347528278344863
19.183792,3.687657761271,0.13468651198137227
19.18618,3.6928254457490897,0.13459082610729184
19.18856,3.7005070876527935,0.13445966335840853
19.190956,3.708328499183357,0.13431589189290868
19.193344,3.70972429959409,0.13439413495716981
19.195724,3.708047064071767,0.13456640591838007
19.19812,3.7101417126168013,0.1345732868866494
19.200508,3.7125159004155557,0.13455176201767077
19.202892,3.710606347467756,0.134671947030885
19.205288,3.7059032978406212,0.13485533583716608
19.207676,3.701479787467207,0.13501010411017478
19.210056,3.7016195570940673,0.13499593495336312
19.212452,3.702970031534426,0.13493225584922325
19.21484,3.7061828370943415,0.13482804858246591
19.217224,3.7126084482141732,0.13462076527622277
19.21962,3.7218275560133396,0.13435487646817837
19.222008,3.733840160491841,0.13402519897530363
19.224392,3.747854865716759,0.13364445738857422
19.226796,3.762800736501455,0.1332415399857445
19.22918,3.780540103965486,0.13277913351312254
19.23156,3.802283672922351,0.1322072370243919
19.23396,3.8232358459462974,0.1316455048344901
19.236348,3.839671960798213,0.13117842380128533
19.238728,3.8553166797172103,0.1307217539929618
19.241124,3.8715204771436484,0.13020117882362248
19.243512,3.8858619434505295,0.1297157601597523
19.245908,3.894708964197358,0.12942044678523396
19.248304,3.9055580856906036,0.12907491425272816
19.250692,3.9204114086766837,0.12862193598908947
19.253076,3.938197997968958,0.12809872774733763
19.255472,3.958358775059987,0.12756454943253606
19.25786,3.977448616964377,0.1270678605795456
19.26024,3.9954675236821284,0.1266064912616978
19.26264,4.008551063347268,0.12626841707954964
19.265024,4.016559466332936,0.12606405151297223
19.267408,4.020191580773432,0.12592874666312093
19.269808,4.024382773721369,0.12574243565675544
19.272196,4.027782570736388,0.1255638130253344
19.27458,4.031461907005128,0.12535968806565834
19.276976,4.032627285848252,0.12518459292188977
19.279364,4.030859398385182,0.12507624946324666
19.281748,4.030022676481891,0.12495040403074467
19.284144,4.028766645698018,0.12486257903763928
19.286536,4.0260203708469255,0.12484406802018475
19.28892,4.025648283794588,0.12481038762670328
19.291316,4.030351333421724,0.12464848373894849
19.293704,4.035054383048858,0.12448497949909189
19.296088,4.03496183525024,0.12442516810790338
19.298484,4.032495099652868,0.12438077298160222
19.300876,4.028166032935941,0.1243717912213055
19.30326,4.019600447300702,0.12441240675947973
19.305656,4.013968127971658,0.12438615780822594
19.308048,4.008615347896335,0.12433426281212719
19.310428,4.005683977448008,0.12419679994132549
19.312828,4.006477269238796,0.12398880371331486
19.315216,4.00764264808192,0.12381305395312403
19.3176,4.008248948417605,0.12368967462350404
19.319996,4.005782212820234,0.12364451407179297
19.322388,4.00410687315578,0.12359453922610485
19.324768,4.004014325357163,0.12353535230963493
19.327172,4.006203417558683,0.12340360735728209
19.329556,4.005599013080869,0.12332337190358855
19.33194,4.0106288237899665,0.12307090471102125
19.334336,4.02008214487248,0.12269063323054616
19.33672,4.032515954089431,0.1221852828822428
19.3391,4.043087432186825,0.12172035285185007
19.341496,4.056220089538076,0.1211642125671567
19.343884,4.074427883568801,0.1204921936015846
19.346264,4.096360339838638,0.11976678291692089
19.348668,4.117221860921838,0.11906758792298561
19.351056,4.139666173870872,0.11835838623690151
19.353436,4.157314889394155,0.11774393207113501
19.355832,4.172821734544161,0.11718225052479095
19.35822,4.188840436373365,0.11664528260615989
19.3606,4.207420317456427,0.11602745664650341
19.362996,4.228701147420207,0.11530938386628403
19.365384,4.246536854398594,0.11462304104904975
19.367764,4.266234892496538,0.11390185517281667
19.37016,4.282348037982228,0.11322743292353556
19.372544,4.295016060482526,0.11258711336108002
19.374924,4.303260572609409,0.11206601575815332
19.377324,4.317371617348682,0.11143468269139371
19.379712,4.321192619102151,0.11103754317011864
19.382092,4.319007318616369,0.11076725519471492
19.384488,4.3113275725705344,0.11064326555904765
19.386872,4.301785495405143,0.11054771184786671
19.389268,4.289682238985895,0.11054025519421994
19.391672,4.273295241820092,0.11063774023099524
19.39406,4.24955146797468,0.11091001615604987
19.39644,4.229020499689183,0.11109938689954271
19.398844,4.207558365843908,0.11130436394970358
19.401232,4.191683225357301,0.11142002163351712
19.403612,4.176739250430474,0.11152366081782743
19.406012,4.162074814757367,0.11160108224922317
19.4084,4.1441975735243455,0.11175138825780478
19.41078,4.125761253783882,0.11194447083941332
19.413184,4.111189365909393,0.11207135178718212
19.415572,4.094615377288487,0.11223967647253866
19.417956,4.085211173892087,0.11231936648401027
19.420364,4.082045590160414,0.11232676880829823
19.422752,4.082884207921575,0.1122564123612999
19.425132,4.079299315309322,0.112298468452001
19.42754,4.084094912735074,0.11221818289527591
19.429928,4.095688208332995,0.11201992477097439
19.432312,4.10993523098339,0.11179102862230345
19.434728,4.125345736619041,0.11159283108249815
19.437112,4.143689508560887,0.1113421285270855
19.439492,4.166037481995566,0.11101286233024021
19.441892,4.194251988042636,0.11056956008574632
19.444276,4.2176236748357105,0.11027584272082042
19.44666,4.24499956312162,0.10990713819077906
19.449056,4.2674400843549165,0.10963565603011302
19.451444,4.297609469320161,0.10924346942124458
19.453824,4.329082106897521,0.10887759628418481
19.456224,4.358412874101602,0.1085576920899136
19.458612,4.389466202798381,0.1082283956105837
19.460996,4.4219625537341365,0.10791447765285796
19.463396,4.459394271722503,0.10751567559489153
19.46578,4.49095945709848,0.10722045633467628
19.468164,4.518520440981623,0.10700117547350987
19.47056,4.549945856730739,0.10673056847545094
19.472948,4.580859415800657,0.1064372771637198
19.475332,4.6143341541244345,0.106079018782482
19.477728,4.642314446888157,0.10584572082445282
19.480116,4.67136567483852,0.10559313927954327
19.4825,4.697763175736407,0.10536017655062188
19.4849,4.724020907007435,0.1051415031850295
19.487284,4.747996998278324,0.10497853901140151
19.489664,4.772532168056655,0.1047789872728567
19.492064,4.802701553021898,0.10444992931213862
19.494456,4.829518362800368,0.10419944958920638
19.496836,4.857406107765473,0.10392569953228484
19.499232,4.8792875504913304,0.10375713251570957
19.50162,4.897584100604933,0.10362174464142489
19.504004,4.920676248144287,0.10342274172062389
19.5064,4.93939210713847,0.10325823241108714
19.508788,4.954523073520401,0.10312737067870491
19.511172,4.966720773596136,0.10303994930897564
19.513568,4.980268948112228,0.10291151815230483
19.51596,4.995307366695544,0.10273349988816514
19.51834,5.005550187853105,0.10262036645166654
19.520736,5.018446736063141,0.10248693295837842
19.523124,5.024405816474148,0.10245529453859806
19.525508,5.033205615392733,0.102335643162662
19.52792,5.041214018378401,0.10221771402695223
19.530308,5.051783600617926,0.10203097163607958
19.532688,5.058768290245197,0.1018744072722091
19.535084,5.070176490245885,0.10163245899054524
19.537476,5.080234215806211,0.10143150709861147
19.539856,5.086567279127426,0.10127077213346289
19.542252,5.0953217520756375,0.10105436754725933
19.544644,5.105147160210488,0.10081995045469473
19.547024,5.112598380546584,0.10058532499438588
19.54942,5.120608679390121,0.10031233861466397
19.551808,5.124102920061627,0.10007784109550842
19.554188,5.130111118158746,0.09983335648063887
19.556584,5.137190251442504,0.0995696239808644
19.558972,5.144409154353124,0.09929668152827237
19.561356,5.153490388383298,0.09900674523821862
19.563752,5.159358816853557,0.09877252034308119
19.566136,5.165506784577538,0.09851990530091763
19.56852,5.1705838171148795,0.0982873392408709
19.570916,5.180735986331693,0.09798224734046977
19.573304,5.1876753499885915,0.09773240420071609
19.575684,5.190750281779516,0.09752750296700732
19.57808,5.192614508756941,0.09735034406617381
19.580468,5.198622706854061,0.0971093699971478
19.582852,5.200766473085208,0.09691586497049602
19.585248,5.2021188433834356,0.09672242239652769
19.587636,5.206124940734139,0.096512683007234
19.590016,5.20519567103223,0.09636439612953161
19.592432,5.203335235770541,0.09622500257402385
19.59482,5.20305759237469,0.09608623071904236
19.5972,5.203291805658036,0.09596616646456296
19.599596,5.208321616367136,0.09579473997579928
19.601984,5.212839570397036,0.09560501664509138
19.604364,5.217357524426937,0.09541555189526979
19.606764,5.224948514389894,0.09518497574811716
19.609152,5.228535302860015,0.09500551324584024
19.611532,5.2364058320766915,0.09475731081824004
19.613928,5.245207526853147,0.0945023248824841
19.616316,5.251355494577126,0.09426210564961901
19.618696,5.253359491181412,0.09408250881609577
19.621092,5.259227919651672,0.09386186132479381
19.62348,5.269891945547683,0.09359159344390158
19.625864,5.286003195175504,0.09328525640943161
19.62826,5.299832804803188,0.09302369899621372
19.630644,5.3112410048038745,0.09281206144946172
19.633024,5.323580370364341,0.09259361981703118
19.635424,5.332055304058832,0.09241550265381647
19.637816,5.345325835179075,0.0921891970848267
19.640196,5.3595275318590945,0.09195627069108854
19.642596,5.372798062979338,0.0917305234108782
19.644984,5.389001860405776,0.09147492912378866
19.647364,5.400130521152741,0.09128486218409365
19.649764,5.412050577832625,0.09109712881699149
19.652148,5.425972735258926,0.09088748310388181
19.654532,5.436682087125312,0.09072815874092069
19.656928,5.448881683058915,0.09052600616468393
19.659316,5.457728703805745,0.09038131947353019
19.6617,5.4662961852988525,0.09025488425013341
19.664096,5.479938803471433,0.0900678082654029
19.666488,5.4937211912708745,0.0898714083627038
19.668868,5.507783118324036,0.08966110336671214
19.671264,5.522124584630918,0.08943714617040442
19.673656,5.5302274312730715,0.08924608269732438
19.676036,5.539680752355584,0.08902423653397412
19.678432,5.552626418251733,0.08874021215144573
19.68082,5.5643613793343825,0.08848018280989464
19.683204,5.582102642656283,0.08815745456527882
19.6856,5.597981574858626,0.08784998431622362
19.687992,5.610135844821857,0.08756794340598686
19.690372,5.626434085904781,0.0872373101992752
19.692768,5.64007859993523,0.0869207079426319
19.69516,5.6580068547122355,0.08654665158770668
19.69754,5.674212547996542,0.08617807020951115
