Time,Force,Position
18.786524,0.04637406230965916,0.0
18.788904,0.037519237536910735,0.0
18.791304,0.03145790944349727,0.0
18.793688,0.0252568117232236,0.0
18.796068,0.01826431807003182,0.0
18.798472,0.012063220349758142,0.0
18.80086,0.008143762629621742,0.0
18.803244,0.007297340842540722,0.0
18.80564,0.006450919055459702,0.0
18.808028,0.006450919055459702,0.0
18.810408,0.006450919055459702,0.0
18.812812,0.003462626895101621,0.0
18.8152,0.0011809868949643493,0.0
18.81758,0.0046261098803572105,0.0
18.819976,0.010268129093190042,0.0
18.82236,0.016701544238940984,0.0
18.824744000000003,0.021272628265135284,0.0
18.82714,0.029056517851245175,0.0
18.829524,0.03269643631766116,0.0
18.831904,0.03712775071699525,0.0
18.834304,0.04342139623588598,0.0
18.836692,0.047805488806976916,0.0
18.839072,0.05703050477419358,0.0
18.841472,0.06955897824207365,0.0
18.84386,0.09004673700950873,0.0
18.846244,0.11891308995707946,0.0
18.848648,0.153411762233694,0.0
18.851036,0.1918201923466559,0.0
18.853416,0.23208905772130528,0.0
18.855812,0.2801774387686494,0.009067192087117336
18.8582,0.33529393955577025,0.01813688263355774
18.86058,0.397485781910911,0.026973390526506227
18.862976,0.4626011906884578,0.03584472957991121
18.865364,0.5269233076752173,0.045052875606853546
18.867744,0.5937574862297221,0.054470405154024515
18.87014,0.6686907197106422,0.0636987035758265
18.872528000000003,0.75707768405117,0.07244908551918863
18.874912,0.8505378892133009,0.08096220523089723
18.877308,0.9537743848241697,0.08940167363276758
18.879692,1.056217588644251,0.0982237313592575
18.882092,1.1631749547784944,0.10706308546803116
18.884488,1.281119316174974,0.11567508143959647
18.886876,1.3964571723472223,0.12424124485700515
18.889252,1.509609728033689,0.1326224324043698
18.891652,1.61084601875601,0.14111416305840296
18.894036,1.6994199745516412,0.1498977804393684
18.89642,1.7846885769887397,0.15872798650703832
18.89882,1.8697248620003608,0.1674824768017248
18.901208,1.9525286246979576,0.17618975619197866
18.903588,2.022532178699873,0.17590556125653584
18.905992,2.079548532551005,0.1758852741204747
18.90838,2.1278595311400372,0.17628876379803407
18.910764,2.175007046743814,0.17664431523153093
18.91316,2.220154357459043,0.1766365840385073
18.915544,2.2572498350761006,0.17651719652223613
18.917928,2.282708586982732,0.17663049787233565
18.920324,2.296016860641872,0.1773351807049116
18.922712,2.3025746579570865,0.17834723936032054
18.925092,2.3095989859811246,0.17910515824175402
18.927488,2.320117554676668,0.1791911604607443
18.929876,2.3201628806470422,0.17942310510820692
18.93226,2.3072663324370057,0.18013674135032978
18.934656,2.2959525760928057,0.1807709927668398
18.93704,2.287337872771455,0.18147316866047933
18.939424,2.2858929546746096,0.18183524997593242
18.94182,2.290781099898979,0.1816636285665323
18.944208,2.2918992569138603,0.1814688722710811
18.946588,2.2887808950104307,0.1814467574432559
18.948988,2.2925055572495436,0.1812614242361339
18.951376,2.306378596989733,0.1808070286026102
18.953772,2.330214918633762,0.17988151205658462
18.956168,2.3510254261729795,0.17896841582498976
18.958556,2.3658768533011894,0.17828765354142984
18.960936,2.388921779012301,0.17736243484655287
18.963332,2.425048348530683,0.17604431313505184
18.965724,2.4679253943929904,0.17450612271773278
18.968104,2.507264769471288,0.17295040367228098
18.970508,2.5456276530194333,0.171247595065388
18.972896,2.57705306876855,0.16998826359610672
18.975276,2.6068012489953434,0.1690471530760847
18.97768,2.644650380006422,0.16776822520690493
18.980068,2.689204661391052,0.16604253814160472
18.982448,2.7314319768051707,0.16433962455204246
18.984844,2.7682120684874794,0.16287421738241706
18.987232,2.8037342335280466,0.16165157719755988
18.989616,2.8426542997257633,0.16050664542473167
18.992012000000003,2.88143459629662,0.15936290781344012
18.9944,2.915466517269968,0.15827090267732283
18.996784,2.941165170033554,0.1574533477824356
18.999180000000003,2.9660724268642227,0.15670716363278914
19.001564,2.988558274067894,0.15613970559582335
19.003948,3.0199836898170096,0.1551832130114127
19.006344,3.053458428140786,0.15399699228151909
19.008732,3.074223609709629,0.15319393364018846
19.011112,3.0846534223222934,0.15271631325563326
19.013508,3.0898683286286266,0.15248158188973543
19.015892,3.101461624226547,0.1520368602933401
19.018272,3.109842114264552,0.1517427169721427
19.020672,3.117338660571021,0.15137733887562965
19.023056,3.1276759253850694,0.15083008012064109
19.02544,3.14145831318451,0.15023058660776697
19.027836,3.1513290472897335,0.14986733040464373
19.030224,3.159057911021681,0.1496007905022565
19.03262,3.170977967701565,0.14907747517758616
19.035016,3.1800119799034974,0.14856747569253004
19.037404,3.180665502067425,0.14831977931379514
19.039784,3.1842522905375477,0.1479699923328054
19.04218,3.1974302738591733,0.14730145235570777
19.044568,3.210748026807659,0.14660407993840002
19.046952,3.2196894912109744,0.14602868144083264
19.049348,3.22905026449487,0.14541210557963755
19.051736,3.2350584625919896,0.14495648758906352
19.054116,3.2435806181147235,0.14445514394049305
19.056512,3.259272558861964,0.1437694409095576
19.0589,3.274824729982344,0.14309275518380626
19.061284,3.2905166707295845,0.14238956427392488
19.06368,3.3036474322229674,0.14183175811358062
19.066064,3.315287949649131,0.1413494262029247
19.068448,3.3277198630082125,0.14084883237428403
19.070844,3.3348443222623447,0.1404948949898045
19.073232,3.329444320358779,0.14055470296845712
19.075628,3.3261861888284896,0.1405256001593141
19.078024,3.3203668780443425,0.1406393638732085
19.080412000000003,3.3119863880063374,0.14088944798236375
19.082792,3.305468229087889,0.14108390614305524
19.085188,3.3018833364756364,0.14118016878331754
19.087576,3.2966684301693037,0.14138843809155774
19.08996,3.2890321142359737,0.14170912532703833
19.092356,3.2828388205416195,0.14202880486011799
19.094744,3.2743638868471288,0.14245892787514125
19.097124,3.262955686846442,0.14298621680075047
19.09952,3.249265846845619,0.14362226171999537
19.101908,3.234225532404436,0.14433237588380216
19.104288,3.2135982246045836,0.14520956922156592
19.106688,3.193110686431591,0.14607991245821406
19.109076,3.1775585153112105,0.14676526106258408
19.111456,3.1641482145641073,0.14735812514880262
19.113852,3.158606547175811,0.14768385912089932
19.11624,3.1587916427730454,0.14782688049167533
19.118624,3.159488595049477,0.14799267020730747
19.12102,3.166052079938299,0.1479608028724453
19.123408,3.1748499829990156,0.14791612740738386
19.125792,3.1895144186721223,0.14767269875932654
19.128188,3.2059014158379258,0.14739440996613662
19.130576,3.222428182630589,0.14710493173088635
19.132972,3.2417484461025876,0.14674267272290858
19.135376,3.262791271067282,0.14634338269083708
19.13776,3.2804815208452007,0.14608601060425175
19.14014,3.303526446556312,0.14563205396036688
19.142544,3.329132551521281,0.14503847230197267
19.144932,3.355669822046029,0.14441489063773671
19.147312,3.385559667757552,0.14364844016961395
19.149716,3.4178237012678294,0.14285546390489864
19.152104,3.456745663323415,0.1418682892942394
19.154484,3.497669726125418,0.1408141967834738
19.156888,3.5335186522479494,0.13995365288464495
19.159276,3.5652236072507857,0.13923868959324784
19.161656,3.5950662311340653,0.13859899049729016
19.164052,3.6201132575915937,0.13811581464215553
19.166436,3.6466505281163415,0.1375537291579476
19.168816,3.67388664677539,0.1369271545151724
19.17122,3.695675541702629,0.13642687868142378
19.173608,3.715741875137171,0.1359675472085922
19.175988,3.731292150399682,0.13560569556371535
19.178392,3.741255432303524,0.13537830546256685
19.18078,3.7484252175280304,0.1352236961341458
19.18316,3.757876642752674,0.1349846127076191
19.185556,3.773753679097149,0.13453011458152542
19.187944,3.781762082082816,0.13429929802473076
19.190324,3.789770485068484,0.13407004321003207
19.192728,3.8002928454797655,0.13380713035891395
19.195116,3.8105356666373265,0.13357695209329104
19.197496,3.818963378503575,0.133315201763121
19.199892,3.822735262570931,0.13315892849261568
19.20228,3.827578081824926,0.13297156237013144
19.204664,3.829487634772726,0.1328548528226956
19.20706,3.836612094026858,0.13258070525402624
19.209444,3.8410828262285155,0.1323555167990411
19.211824,3.8436912273106163,0.13216995514662627
19.214224,3.8417363483924425,0.13214934662444036
19.216612,3.8400137868997457,0.13217640397742408
19.218992,3.841504030966965,0.13210098823205477
19.221388,3.8431340446610442,0.13201253752524814
19.223776,3.8476973246613193,0.13184792990124244
19.226156,3.861572260259377,0.1314788837537807
19.228552,3.8714429943646005,0.13121375982424566
19.23094,3.877868605484432,0.13100867974419136
19.23332,3.8785674536187336,0.13094099336110548
19.235716,3.8842016688056464,0.1307463091138031
19.238104,3.8886251791790607,0.13059854309740246
19.240488,3.8906745017537205,0.13047107291844218
19.242884,3.891001262835684,0.13037004316650236
19.245272,3.8930505854103443,0.13024464578657247
19.247656,3.8957515342910622,0.13012619144869933
19.250052,3.8941687424252263,0.1301381320326755
19.25244,3.9007341231719175,0.12992887878729437
19.254824,3.9043662376124133,0.12979263657892304
19.257216,3.9118627839188833,0.12956982968669128
19.259604,3.92150120059863,0.1292818747274035
19.261984,3.9354233580249303,0.12886112477637318
19.264388,3.942687586905923,0.1285835290589576
19.266772,3.9508829813466937,0.1282905132206935
19.269152,3.9541430087348526,0.12811800279868507
19.271548,3.9563321009363737,0.12797794470740406
19.273936,3.95479653089878,0.12791604145881405
19.276332,3.9571253927271606,0.12776340707064315
19.278728,3.9583833193689033,0.12764331787156993
19.281112,3.958430541197146,0.12756865010978324
19.283496,3.9531230870921963,0.12765976576797802
19.285892,3.948327489666445,0.1277728656906204
19.288276,3.940319086680778,0.12798965953428545
19.290660000000003,3.9315192877621925,0.1282136134271923
19.29306,3.91922714402997,0.12856644398741335
19.295448,3.9061436043648303,0.1289280313579687
19.297828000000003,3.8964126398864667,0.12917431735649457
19.300232,3.8838881787287676,0.12947298044989888
19.30262,3.872155113503987,0.12976454845779253
19.305,3.8581404082790685,0.1301294759094245
19.307396,3.8446375597333486,0.13051294798235075
19.30978,3.8311347111876284,0.1308921111293256
19.31216,3.8255004960007155,0.13108119615519895
19.314568,3.8157223096941086,0.13138751872173102
19.316956,3.814604152679227,0.13149372501552756
19.319336,3.817350427530319,0.13151040791937701
19.32174,3.8199569327545504,0.1315404641841678
19.324124,3.8256364739118385,0.1314893602396336
19.326504,3.8327590373081013,0.13144011143971654
19.328908,3.8428148670105595,0.13132126352678822
19.331296,3.856874898205851,0.13109718548099086
19.333676,3.870423072721945,0.1308496891727805
19.336080000000003,3.890768945410208,0.13044136374399606
19.338468,3.914559941083864,0.12998688184655866
19.340848,3.9418432815711553,0.12941040098034948
19.343244,3.970988953178004,0.12879556907282777
19.345632,4.00064648146405,0.1282107119549012
19.348012,4.026020269003542,0.1277489572885075
19.350408,4.051533826169893,0.12727768402470316
19.352792,4.075185052216689,0.1268422030968701
19.355172,4.0989760478903445,0.12639702114811305
19.357568,4.119694007630945,0.12603218826840504
19.359956,4.138549636251988,0.1257127788128582
19.362336,4.161549235992726,0.12528040756305664
19.364732,4.179893007934571,0.12494935186079278
19.36712,4.197305614316639,0.12464465627257953
19.369512,4.210853788832733,0.12441934766445029
19.371908,4.22267940185613,0.12422164876882538
19.374296,4.233061992640552,0.12402071082007358
19.376676,4.24544668417139,0.12377768241989859
19.379076,4.261323720515866,0.12343149745224453
19.381464,4.280134023166536,0.12302621954673053
19.383844,4.296709907645312,0.12263157930304133
19.386248,4.3119825395119715,0.12222802885807345
19.388636,4.327394941005492,0.12182111227098444
19.391016,4.344297586566231,0.12135984838199368
19.393412,4.359896979514854,0.12088656921177326
19.3958,4.381782213956449,0.12026913885854797
19.39818,4.405017922838402,0.11961163627518138
19.400576,4.427602005414298,0.11893963547238942
19.402964,4.448743065751216,0.11826499796888175
19.405344,4.474959262767608,0.11748693632380793
19.40774,4.499173359037583,0.11675000632658415
19.410128,4.520593958628222,0.11605996829266517
19.412512,4.542154327845722,0.1153609426847636
19.414908,4.559710495570389,0.11474110447558852
19.417292,4.5852750662807225,0.11396920427871836
19.419692,4.610560097737336,0.11322600394065585
19.422088,4.6358451291939495,0.11247989161203653
19.424476,4.656474332851671,0.1118069363768969
19.426856,4.673099335016559,0.11122156091253506
19.429252,4.690935041994946,0.11061212155935869
19.43164,4.704347238599919,0.11010713954055976
19.43402,4.717479895951171,0.10962822312766896
19.436416,4.727259978115648,0.10923225935675691
19.438804,4.7383433128922405,0.10886136472524521
19.441184,4.7490073387882505,0.10852299814643258
19.443584,4.756179019870626,0.1082758359919532
19.445968,4.761069060952864,0.10808535975053639
19.448352,4.770754699460854,0.10782694116476807
19.450748,4.780952194648042,0.10758783694383081
19.453136,4.789147589088812,0.10738551449510332
19.455532,4.801207415395556,0.1071290550426792
19.457928000000003,4.815269342448718,0.10684086135227436
19.460316,4.831193600621436,0.1065336597472664
19.462696,4.848468333234512,0.10618237961535941
19.465104,4.856803497302144,0.10597365193835892
19.467488,4.86141399913066,0.10580851697404504
19.469868,4.869888932825151,0.10559042350756817
19.472268,4.8790154928257,0.10537957282895798
19.474652,4.885720643199251,0.10523070465979233
19.477036,4.886139952079834,0.10520020747094876
19.479432,4.887490426520193,0.10515783822248627
19.481816,4.882694829094441,0.10522683420218366
19.4842,4.878830397228468,0.10528452326675555
19.486596,4.866305936070769,0.10547087063549847
19.488984,4.851779374166653,0.10569359764787012
19.491364,4.837672121143118,0.10588507307392837
19.493764,4.821702537000027,0.10610241965413666
19.496148,4.802799686550739,0.10636242798369264
19.498532,4.784967771288091,0.10659854577193162
19.500928,4.765273524905886,0.10685746708530701
19.503316,4.743716947404124,0.10713468528163665
19.5057,4.723882931395059,0.10739350617749688
19.508096,4.701627505758997,0.10771385377960048
19.510484,4.682956972735187,0.1079957684994375
19.512864,4.669082037137129,0.10821446769860285
19.515268,4.660933864524602,0.10835518017647056
19.517652,4.647710555232603,0.10858157775527018
19.520032,4.638770986687157,0.10872120670593428
19.522432,4.6350463244480435,0.10876511733672586
19.524816,4.636676338142123,0.10870363960709065
19.5272,4.6444524237023135,0.1085371668185136
19.529596,4.663449717808086,0.10818197071434434
19.531984,4.683517947100498,0.10780650560584881
19.53438,4.7088010826992415,0.10732910152552426
19.536776,4.735155153484624,0.10682497221429811
19.539164,4.763511325016424,0.10629367341051817
19.541544,4.794800762854418,0.10571769260869825
19.54394,4.823948330319137,0.1051810490943709
19.546324,4.852816358530133,0.10466821664011913
19.548704,4.884477883420466,0.1041252689934055
19.551108,4.911343810885046,0.1036439599245733
19.553496000000003,4.934485076110513,0.10321122667558578
19.55588,4.958185419843421,0.10273792483577288
19.558276,4.978161101337215,0.10231224629034752
19.560664,4.999487257271369,0.10185127378454059
19.563048,5.020022017272605,0.101399153926464
19.565444,5.045911453207032,0.10084912503336771
19.567828,5.069938558021904,0.10032940900769247
19.570212,5.093034497276998,0.09982905139684628
19.572608,5.114128335785672,0.09936299465115131
19.574996,5.132428677615015,0.0989340711151098
19.577376,5.144722717205105,0.09859542077814001
19.579776000000003,5.157715604929496,0.0982140912362501
19.582164,5.174712694146723,0.09778585250482252
19.584544,5.193851653737225,0.09732319147564693
19.586948,5.21205944776795,0.09687408034253507
19.589336,5.2316177162390325,0.09639532818277471
19.591716,5.260534862136142,0.095790485615719
19.594112000000003,5.28493594986122,0.09521239222471753
19.5965,5.305891914600905,0.09465102259812973
19.59888,5.333645577512759,0.09401520449314664
19.60128,5.36326157154417,0.0933645273710121
19.603668,5.394879666321997,0.09269559490202296
19.606048,5.427568696286463,0.09201037869557069
19.608448,5.457044920691014,0.09137879923781843
19.610832,5.480514842856313,0.09081818780673578
19.613216,5.502494520954395,0.09030850964794328
19.615612,5.522192559052338,0.08984136265707288
19.618,5.537094999724529,0.08942055143724532
19.62038,5.550926505210081,0.08901597090684303
19.62278,5.563407536255276,0.08864652668767622
19.625168,5.574166005807774,0.08828242137792444
19.627564,5.5803611953599965,0.08799917856814604
19.62996,5.581481248232748,0.08778008063881121
19.632352,5.584603401851916,0.08754043094237973
19.634732,5.587865325097944,0.08729376315931868
19.637128,5.586563968343697,0.08712524820227635
19.639516,5.575112338230506,0.08707435235684473
19.6419,5.573531442222539,0.08692426792966043
19.644296,5.575255899573106,0.08677318655495757
19.646684,5.572976155430837,0.08666490184690209
19.649068,5.56990501535565,0.0865548623588942
19.651464,5.559477098600855,0.08653882174147048
19.653852,5.549700808152118,0.08653253968401951
19.656232,5.54006428733024,0.08651803917898547
19.658628,5.5367136080013335,0.08642358532286454
19.661016,5.530848971246812,0.08633161757683135
19.6634,5.529919701544903,0.08619222136084205
19.6658,5.531504389268608,0.08604980867221525
19.668188,5.5328095377385935,0.08592346827058599
19.670568,5.534254455835439,0.08578889090998446
19.672972,5.5370026265444,0.08567438271643713
19.675356,5.545617329865752,0.08550503898105091
19.677736,5.553952493933382,0.08535163275146179
19.680132,5.5590748524411,0.08524354617399012
19.68252,5.558702765388762,0.08521655221650554
19.6849,5.562474649456119,0.08513904225899316
19.687296,5.569831426135727,0.08504374854653525
19.689684,5.571042130949226,0.08502097372101709
19.69206,5.569179799829668,0.08503347454631582
19.694464,5.570530274270027,0.08500259346650542
19.696852,5.5725323750164435,0.08498211845651105
19.699236,5.58175148281561,0.08487664870277895
19.701632,5.590970590614777,0.08477173393549535
19.70402,5.602843425466418,0.08465704302306695
19.7064,5.618161383303452,0.08453859924035179
19.708796,5.6359932985661,0.0844195423203306
19.711184,5.646887746029719,0.08436593389634225
19.71358,5.660203603120336,0.08426959091436756
19.715976,5.677383892076926,0.0841427362943906
19.71836,5.697217908085991,0.08400820407808553
19.72074,5.720404499281832,0.08382649151098188
19.723144,5.740797593798337,0.08366363744742102
19.725532,5.76333255868812,0.08347402936301165
19.727912,5.787869624324321,0.08326699320777585
19.730316,5.820554862573048,0.08297625200797044
19.732704,5.850446604142441,0.08270376752905244
19.735084,5.880617884965553,0.08241714634325414
19.73748,5.909997769855749,0.08212793164439162
19.739868,5.941799064372941,0.0817966329740663
19.742252,5.972110114822915,0.0815051192222352
19.744652,6.000698603780192,0.08121707038742239
19.74704,6.029287092737468,0.08093358875395476
19.74942,6.056013250575188,0.08066058885407346
19.75182,6.085160818039905,0.0803526327609792
19.754204,6.105648356212899,0.08010786227325695
19.756588,6.1194779658405825,0.07990405427504771
19.758984,6.139174108080656,0.07965482396086365
19.761372,6.156588610320593,0.07944012984877567
19.763752,6.17563312625461,0.07918812250034206
19.766152,6.19309485032279,0.07893356100695975
19.76854,6.205900746592078,0.07870391989864059
19.77092,6.220848513234645,0.07845220918066104
19.773324,6.237938150250486,0.07817990798987133
19.775712,6.2502321898405775,0.07793703675221698
19.778092,6.258941336818414,0.07770724969506404
19.780496,6.267650483796253,0.07747695963275918
19.78288,6.272495198908115,0.07727076073727106
19.78526,6.281344115512813,0.07703405267321098
19.787664,6.292195132863927,0.07678421397651665
19.790052,6.302534293535846,0.07651788354154378
19.792432,6.312593914954043,0.0762648707684009
19.794836,6.32265353637224,0.07601428041501436
