Time,Force,Position
17.89644,0.2855543442720489,0.0
17.898827999999995,0.2956120698323763,0.0
17.901211999999994,0.3056697953927037,0.0
17.903608,0.3169382257665299,0.0
17.905995999999995,0.33621505912602345,0.0
17.908379999999994,0.3488339639402086,0.0
17.910776,0.3642463654337287,0.0
17.913163999999995,0.37830829248688974,0.0
17.915547999999994,0.3912992843534123,0.0
17.917944,0.3950711684207688,0.0
17.920331999999995,0.39684095174170836,0.0
17.922715999999994,0.3966086343162311,0.0
17.925112,0.3938151376368961,0.0
17.927499999999995,0.39088187133070096,0.0
17.929883999999994,0.3836648642779517,0.0
17.93228,0.376168317971482,0.0
17.934672,0.3628052390526219,0.0
17.937056,0.35130449125331853,0.0
17.939448,0.339012347521097,0.0
17.941835999999995,0.3275115997217936,0.0
17.944215999999997,0.3060003481904059,0.0
17.946611999999995,0.2902158596445483,0.0
17.948999999999998,0.27149810479249553,0.0
17.951383999999997,0.2517094147538043,0.0
17.953779999999995,0.22626837876520123,0.0
17.956167999999998,0.2096924942864256,0.0
17.958551999999997,0.1909747394343729,0.0
17.960947999999995,0.1722569845823202,0.0
17.963335999999998,0.14939525861057362,0.0
17.965731999999996,0.13267960450493774,0.0
17.968128,0.11624348965302224,0.0
17.970519999999993,0.10002156146358535,0.0
17.972899999999996,0.08501033808764719,0.0
17.975296,0.06999911471170903,0.0
17.977683999999996,0.05806092726882625,0.0
17.980067999999996,0.047193675012582,0.0
17.982464,0.04025620721355313,0.0
17.984855999999994,0.03532084016094111,0.0
17.987235999999996,0.0313166386681074,0.0
17.989632,0.0306650123620495,0.0
17.992019999999997,0.03522829236232405,0.0
17.994403999999996,0.0359271404966251,0.0
17.9968,0.03434434863078887,0.0
17.999187999999997,0.03369272232473097,0.0
18.001568,0.033692722324730966,0.0
18.003967999999993,0.029762937867515594,0.0
18.006355999999997,0.02704385822379896,0.0
18.008736,0.02653200154460127,0.0
18.011131999999996,0.025954792274161694,0.0
18.013523999999997,0.024306647817083585,0.0
18.015904,0.023515251884165478,0.0
18.018303999999997,0.025722474848684423,0.0
18.020692,0.02993179855962022,0.0
18.023072,0.0332099567107777,0.0
18.025468,0.03849021560835202,0.0
18.027856,0.045632805625483,0.0
18.03024,0.05163910786473355,0.0
18.032636,0.052570273424511864,0.0
18.035024,0.049637007118316694,0.0
18.037408,0.044496517847602585,0.0
18.039804,0.03814532376338972,0.0
18.042196,0.03379623042559371,0.0
18.044576,0.0336564607987335,0.0
18.046975999999997,0.03252017302085308,0.0
18.049364,0.03379623042559371,0.0
18.051748,0.03614322301697287,0.0
18.054148,0.040492316354768874,0.0
18.056535999999998,0.041842790795127816,0.0
18.058919999999997,0.04184279079512783,0.0
18.061319999999995,0.04184279079512783,0.0
18.063708,0.041777438203885936,0.0
18.066092,0.039570215239367,0.0
18.068487999999995,0.0353608915284312,0.0
18.070871999999994,0.03208273337727372,0.0
18.073252,0.026802474479699398,0.0
18.075647999999997,0.019659884462568424,0.0
18.078032,0.013588229632075986,0.0
18.080411999999995,0.010589610734638929,0.0
18.082804,0.010524258143397042,0.0
18.085192,0.01128845886893998,0.0
18.087584,0.013914990714039559,0.0
18.089988,0.015610356999360813,0.0
18.092375999999994,0.01724037069344019,0.0
18.094756,0.018795967351901234,0.0
18.097159999999995,0.019075506605621653,0.0
18.099543999999995,0.016728514014242496,0.0
18.101924,0.012379420676446488,0.0
18.104316,0.00989265845820712,0.0
18.106703999999997,0.013170816609364597,0.0
18.10908,0.015517809200743754,0.0
18.111476,0.01679386660548438,0.0
18.113859999999995,0.019140859196863536,0.0
18.116256,0.021348082161382485,0.0
18.118648,0.02327576587218101,0.0
18.121032,0.024132514396341006,0.0
18.123428,0.02484949329364079,0.0
18.125832,0.024849493293640793,0.0
18.128215999999995,0.024849493293640793,0.0
18.130596,0.024849493293640793,0.0
18.132991999999994,0.024085292568097855,0.0
18.13538,0.021458760722998276,0.0
18.13776,0.01976339443767702,0.0
18.140151999999997,0.01806802815235576,0.0
18.14254,0.016512431493894714,0.0
18.14492,0.014956834835433669,0.0
18.147324,0.014956834835433669,0.0
18.149708,0.014956834835433669,0.0
18.152088,0.01495683483543367,0.0
18.15448,0.011678676684276194,0.0
18.156868,0.009331684092897035,0.0
18.15926,0.00805562668815641,0.0
18.161655999999997,0.005708634096777254,0.0
18.164044,0.003501411132258308,0.0
18.166424,0.0015737274214597814,0.0
18.168828,0.0007169788972997856,0.0
18.171212,0.0,0.0
18.173592,0.0,0.0
18.175988,0.0,0.0
18.178372,0.0,0.0
18.180767999999997,0.0,0.0
18.183172,0.0,0.0
18.185556,0.0,0.0
18.187935999999997,0.0,0.0
18.190332,0.0,0.0
18.192719999999994,0.0,0.0
18.195096,0.0,0.0
18.197492,0.0,0.0
18.199876,0.0,0.0
18.202271999999997,0.0,0.0
18.204663999999998,0.0,0.0
18.207052,0.0,0.0
18.209432,0.0,0.0
18.211828,0.0,0.0
18.214212,0.0,0.0
18.216607999999997,0.0,0.0
18.219004,0.0,0.0
18.221391999999994,0.0,0.0
18.223772,0.002207222964518946,0.0
18.226167999999998,0.005485381115676423,0.0
18.228556,0.007692604080195369,0.0
18.230932,0.013112632604629908,0.0
18.23334,0.020255222621760875,0.0
18.235724,0.024045237452116043,0.0
18.238108,0.027695482655611,0.0
18.240511999999995,0.032276893418884275,0.0
18.242895999999995,0.035927138622379236,0.0
18.245279999999998,0.037715052706317545,0.0
18.247684,0.0407136716037546,0.0
18.250068,0.04492299531469041,0.0
18.252447999999998,0.049923714958544314,0.0
18.254844,0.05478466497553801,0.0
18.257231999999995,0.056572579059476324,0.0
18.259612,0.05714978832991591,0.0
18.262016,0.05772699760035548,0.0
18.264404,0.05923537243057338,0.0
18.266783999999998,0.059235372430573384,0.0
18.26918,0.05939327282043232,0.0
18.271564,0.057186049855913385,0.0
18.273944,0.053907891704755906,0.0
18.276348,0.05170066874023695,0.0
18.278735999999995,0.04628064021580242,0.0
18.281116,0.03913805019867145,0.0
18.283508,0.03534803536831628,0.0
18.285895999999997,0.03169779016482132,0.0
18.288292,0.02711637940154804,0.0
18.290688,0.023466134198053084,0.0
18.293071999999995,0.021678220114114768,0.0
18.295452,0.01867960121667771,0.0
18.297856,0.014470277505741915,0.0
18.300244,0.009469557861888007,0.0
18.30262,0.004608607844894307,0.0
18.30502,0.0028206937609559905,0.0
18.307404,0.002243484490516415,0.0
18.309783999999997,0.00166627522007684,0.0
18.31218,0.00015790038985894422,0.0
18.314567999999998,0.00015790038985894422,0.0
18.316948,0.0,0.0
18.319343999999997,0.0,0.0
18.321735999999994,0.0,0.0
18.324127999999995,0.0034103443465407215,0.0
18.326524,0.01547882212693751,0.0
18.328911999999995,0.03662474222177097,0.0
18.331292,0.061261111272371216,0.0
18.333687999999995,0.09497492263740814,0.0
18.336071999999994,0.13492545780930362,0.0
18.338455999999997,0.18362667421367226,0.010097543954606748
18.340847999999998,0.23912369293234031,0.01991517373134016
18.343236,0.3051883980326642,0.028886283202888333
18.345631999999995,0.37809612727553066,0.03754882557123493
18.348028,0.4514212695411085,0.04664956792085525
18.350412,0.5304712789343473,0.05575615079060544
18.352796,0.6199019832541386,0.06451827124009808
18.355188,0.7206917698885038,0.07280649999835806
18.357575999999995,0.8255310839860768,0.08108166340211936
18.359972,0.9370736525993318,0.08922352138263821
18.362368,1.0531303835267491,0.09751179908579147
18.364752,1.1804064271418802,0.10548961876532088
18.367135999999995,1.3164350478473537,0.11316851719694852
18.369532,1.4533022863139884,0.12072545881628152
18.37192,1.5814517263291328,0.12845945165995054
18.3743,1.696659292163867,0.13643727133947994
18.376695999999995,1.800879862736365,0.144614203430409
18.379079999999995,1.9077088343909636,0.15256968631128906
18.381476,2.007602234104403,0.16040548208608138
18.383872,2.098931944040472,0.16818197458446404
18.38626,2.169825129347531,0.16633519279747705
18.388639999999995,2.2342945993926273,0.16481832082346096
18.391043999999997,2.289220096414464,0.16419938321861824
18.393428,2.3388853611595937,0.16384547640544717
18.395807999999995,2.39069439213587,0.1628507273793591
18.398204,2.437197864865065,0.16178223823695
18.400592,2.4678261971076556,0.16141846921198497
18.402972,2.4878396211403473,0.1616269813947529
18.405376,2.510693763680617,0.16158350258254126
18.407764,2.524982320585648,0.16175966839776518
18.410143999999995,2.5353630155122007,0.1615832100397009
18.412544,2.5290771740192297,0.16195756222687696
18.414928,2.5111980369283384,0.16289508686182352
18.417311999999995,2.496716800994596,0.16378941367284622
18.419715999999998,2.491175133606301,0.16423490880671276
18.422104,2.4903837376733824,0.16425366149544424
18.424484,2.4929921387554823,0.16394422423472563
18.42688,2.488011445732497,0.16398531372210656
18.429267999999997,2.4791190990152936,0.164323867442985
18.431648,2.4778611723735517,0.16451737733144023
18.434044,2.4944351609944584,0.16392508314156887
18.436432,2.507331709204495,0.16336751139226127
18.438812,2.5226496670415286,0.16265341894797183
18.441212,2.541272978237095,0.16187383286745116
18.4436,2.561571629097115,0.16118958217756665
18.44598,2.5789370136509397,0.16063299638982348
18.448376,2.599562425592923,0.1597387783735603
18.450764,2.6149276052582,0.15890050541028078
18.453143999999995,2.6219122948854716,0.15844620063437864
18.455544,2.635554913058052,0.1577059421656841
18.457927999999995,2.6465891301485316,0.1572621918019848
18.460308,2.6625587142916234,0.15655301480484665
18.462708,2.682300182502071,0.1555441679530199
18.465092,2.7028330466454378,0.15457440746226214
18.467492,2.7227596104531195,0.15384105649001756
18.469888,2.7456647665373715,0.15320156872433086
18.472275999999997,2.7642861818750677,0.1527856564207573
18.47466,2.7863999420264016,0.15215882477998738
18.477064,2.8118662773645107,0.1513290371475883
18.479448,2.8308144537841717,0.1507712377051503
18.481828,2.844827263151221,0.15045733159067354
18.484232,2.865218461809857,0.1499328474644174
18.486619999999995,2.8796505800574868,0.14956674805910355
18.489,2.8862612867745514,0.14942023096501117
18.491404,2.888355935319585,0.14941817391460677
18.493792,2.8957580379695687,0.1492630317613569
18.496171999999994,2.9053945587914463,0.14908526413944054
18.498568,2.919127828904775,0.14880785197590413
18.500955999999995,2.9377964660707154,0.1483262356196709
18.503336,2.951110427303463,0.1481156644051188
18.505731999999995,2.9652157844691285,0.1478814482396962
18.508115999999998,2.978622293500494,0.14774003832178792
18.510499999999997,2.9893750754793835,0.14767943930503227
18.512896,2.9924462155545695,0.14782450283053664
18.51528,2.9906292104053867,0.14807249709932319
18.51766,2.983504751151255,0.1484788723694548
18.520059999999997,2.977311457456901,0.14886191748844865
18.522448,2.968324667083212,0.1493429821837329
18.524828,2.9598969552169643,0.1497379984631097
18.527224,2.9524004089104943,0.15010482210012854
18.529612,2.9472780504027787,0.1504203947655882
18.531991999999995,2.9397342822680663,0.15086634898400703
18.534388,2.9344249323052467,0.1512972562014631
18.536776,2.9289758127155685,0.15176083960933257
18.539171999999997,2.9225955275661106,0.15226296214159576
18.541568,2.9132819761104582,0.15287837457911368
18.543955999999994,2.9081123957745003,0.15329327437070595
18.546336,2.9076458650656765,0.15344560483886063
18.548739999999995,2.89842675726651,0.1538439726535239
18.551128,2.889906497601645,0.15415161155206195
18.553507999999997,2.890605345735946,0.15406138936266334
18.555907999999995,2.8966588698034395,0.15373321375227814
18.558291999999994,2.9055058905502675,0.15331419573455518
18.560675999999997,2.9150045376031546,0.15288963151832552
18.563072,2.9272966813353767,0.15236890958552185
18.565456,2.9419630128663523,0.15180235552038437
18.56784,2.9600744673827206,0.1511425042806565
18.570235999999998,2.9808396489515645,0.15041100685258507
18.572619999999997,2.994667362721379,0.14994940068354715
18.575004,3.007983219811996,0.14946009149134504
18.5774,3.0146411483573035,0.14921569884668454
18.579787999999997,3.018645349850138,0.14904753688922626
18.582168,3.023208629850412,0.1488043892576859
18.584571999999994,3.034197520970518,0.1482540369286682
18.586955999999997,3.046816425784703,0.1475747601585506
18.589336,3.0603664961586663,0.14686393167991643
18.591732,3.0693532865323547,0.14640654314417542
18.59412,3.075127271346129,0.14611015338465136
18.596515999999998,3.090352681384545,0.1454887036850026
18.59892,3.10636948735588,0.14485939514535465
18.601304,3.1116769414608294,0.14471876677762754
18.603683999999998,3.1172167129912562,0.14464376509953394
18.606088,3.1218253189619047,0.1445975519063491
18.608476,3.1316488312388864,0.14434917276660025
18.610856,3.13961001239631,0.1441551974209373
18.61326,3.1499926031807317,0.14384519136544335
18.615644,3.1617256684055124,0.14346796909082943
18.618024,3.1698738410180396,0.1431790562749218
18.620428,3.1841680854966783,0.14266014834564736
18.622816,3.2023267618412907,0.1420283705950105
18.625195999999995,3.2240703307981557,0.14129334696552293
18.627599999999997,3.2503299579270517,0.140439618409365
18.629988,3.277241211362006,0.139600301809817
18.632368,3.2978666233039893,0.13900790118363116
18.634764,3.3164427126713125,0.1385687494968702
18.637151999999997,3.335390889090973,0.13817053794980516
18.639532,3.3574121014436895,0.137664195848414
18.641935999999998,3.381295644915962,0.13712159252520795
18.644319999999997,3.3968912461488467,0.1368801189043552
18.6467,3.412067538501151,0.1366878158707379
18.649096,3.4307361756670924,0.13632962705848714
18.651484,3.4442371283549433,0.13608444083307583
18.653864,3.455875749923238,0.13588832386033453
18.65626,3.4622994651851995,0.13588454235952196
18.658652,3.4738908649252513,0.13578021522318914
18.661027999999995,3.483992020598083,0.1357665687530805
18.663432,3.4922308451513584,0.1358039650745982
18.66582,3.4992589648911347,0.1358942977637906
18.6682,3.503446366123333,0.13614165140181592
18.670596,3.50665537996751,0.13649334525174248
18.672984,3.5164297745583784,0.13659952547390963
18.675363999999995,3.523457894298155,0.13669338688924537
18.67776,3.5247592510524015,0.13693781245076247
18.680148,3.5315078315384585,0.1370597809671935
18.682528,3.539886425718594,0.13708173265822501
18.684932,3.5498024857941917,0.13694227417045557
18.68732,3.557623897324756,0.1368005298452929
18.689699999999995,3.5595787762429296,0.13682187478122124
18.692103999999997,3.5664690222137154,0.13669885365940135
18.694488,3.572987181132163,0.136539277208744
18.696872,3.5817869800507487,0.13629468472902634
18.699268,3.5913781749022524,0.13604168425813037
18.701656,3.6082789246051217,0.13563312441950476
18.704035999999995,3.630115041360604,0.135087977380502
18.706432,3.6458523080782186,0.13465649200978483
18.70882,3.659494926250799,0.13421926274077886
18.7112,3.6699247388634637,0.13388775549799486
18.713604,3.6870124800214374,0.1333910940907461
18.715988,3.706661400433269,0.1327759339047126
18.718371999999995,3.7215619452475917,0.13220232442916605
18.720768,3.7264519863298293,0.13192527507941448
18.723156,3.732365740770463,0.13169209124214515
18.725536,3.746939524502822,0.13123778809588005
18.727932,3.7614207604365637,0.13073134627427993
18.73032,3.777112701183804,0.13017992396949307
18.732699999999998,3.789824153796606,0.12978691913570645
18.735104,3.8036990893946636,0.12942776019818827
18.737488,3.8185051905524996,0.1290387380341635
18.739872,3.8346617661506945,0.12859412204022794
18.742272,3.852820442495306,0.12810225431575098
18.74466,3.865903982160446,0.12775256177328487
18.74704,3.877916586638947,0.12743417694693315
18.749444,3.8826196362660816,0.1272627287908043
18.751832,3.8826668580943253,0.12718785833140903
18.754211999999995,3.8839247847360676,0.12706615939767013
18.756608,3.8869052728705054,0.12691986797690524
18.758996,3.892167401005081,0.12669283033516002
18.761376,3.8950553413409024,0.1264870232204843
18.763776,3.8994335257439423,0.12621304246244025
18.76616,3.9066052068263177,0.12588136213860085
18.768539999999994,3.91563921902825,0.12550635536746735
18.77094,3.9245334616033216,0.125146109823751
18.773328,3.9298428115661403,0.124852841143313
18.775707999999995,3.9276556152224895,0.12478078951386416
18.778104,3.9242577140653396,0.12475371836760206
18.780491999999995,3.919137251415494,0.12475132270872813
18.782872,3.9102921265265347,0.12482469288095174
18.785276,3.902797476077934,0.1248399485412935
18.787664,3.892229789696278,0.12493794324597655
18.790043999999995,3.879520232941345,0.12509773152584558
18.79244,3.8748190791720796,0.12505399909749823
18.794827999999995,3.8745414357762287,0.12487252581205001
18.797208,3.8739842531266575,0.1247158150336936
18.799608,3.8767324238356187,0.12452547977736098
18.801992,3.8827859479031117,0.12430343271271443
18.804376,3.8897706375303835,0.12406653971377578
18.806771999999995,3.8976864927174337,0.123813492813789
18.80916,3.9008992982773494,0.12372088396272152
18.811556,3.9022025508894655,0.12373757674449112
18.813951999999997,3.907510004994415,0.12366101469148438
18.81634,3.9149593294726412,0.12352496642524441
18.81872,3.9240386676449477,0.12331121557020076
18.821116,3.93470079768309,0.12309188114220003
18.823504,3.9555132010801763,0.12263124079388303
18.825883999999995,3.9783277052236796,0.12212970103227141
18.828284,4.008359216419932,0.12146116530703181
18.830672,4.040532597989463,0.12072922441273823
18.833056,4.077222037731024,0.11994093918020615
18.835455999999997,4.118707074898337,0.11907085898068119
18.837844,4.158190011319233,0.11823708049319014
18.840224,4.186731278448267,0.11764607302214253
18.84262,4.209638330390388,0.11722282660992298
18.845008,4.23762051901198,0.11668744860862529
18.847392,4.264299455021456,0.11613913014567279
18.849788,4.2876730376724,0.1156214053926545
18.852176,4.307042418830511,0.11518891550640192
18.854555999999995,4.326411799988622,0.11476109544496105
18.856952,4.352486331520284,0.11414693557563997
18.85934,4.377909236745888,0.11352445668126214
18.86172,4.397046300478521,0.11305647097036006
18.864116,4.4180456953307115,0.1125673054919212
18.866504,4.435972054249847,0.11214934930633409
18.8689,4.448963046116369,0.1118244800390583
18.871295999999997,4.457670297236337,0.11160924879963516
18.873684,4.465586152423388,0.11139947833369859
18.876068,4.46521406537105,0.11136787852784914
18.878463999999997,4.46083777682588,0.11141402051050389
18.880852,4.452736826041595,0.11151301173129452
18.883232,4.437977946712002,0.11171665846787086
18.885631999999998,4.425221168128825,0.11188400349241333
18.88802,4.417399756598262,0.11196334704695649
18.8904,4.411999754694695,0.11196967446717546
18.892804,4.404457882417852,0.11202537191063106
18.895188,4.396636470887288,0.1121034262033928
18.897572,4.389606455289641,0.1121788918650684
18.899975999999995,4.386440871557968,0.11218821363523698
18.902359999999994,4.383275287826296,0.11219712988338273
18.904743999999997,4.375686193721211,0.11231531073487933
18.907143999999995,4.369168034802762,0.11240827496419932
18.909532,4.364000350324671,0.11245520350814542
18.911911999999997,4.350964032487776,0.11264602677125861
18.914308,4.335785844277602,0.11289094499490336
18.916692,4.326753727933539,0.11300654514159653
18.919072,4.314136718977223,0.11316804230308891
18.921476,4.302171336326966,0.11333565622286036
18.923863999999995,4.291556428117066,0.11345842721955769
18.926244,4.288670383639114,0.11344516527994816
18.928644,4.284573634347664,0.11346939763398793
18.931028,4.284341316922187,0.11342520655353545
18.933412,4.286902496176044,0.11333908513356021
18.935807999999994,4.289463675429902,0.11325296371358498
18.938191999999997,4.290022753937343,0.11320636291990493
18.940572,4.290861371698504,0.11313690858855668
18.942975999999994,4.292631155019444,0.11305371504421766
18.945364,4.299056766139276,0.11290398809249796
18.947744,4.300826549460214,0.11282187479824327
18.95014,4.303527498340932,0.11272719733861256
18.952527999999997,4.310232648714484,0.11255741580600072
18.954908,4.316658259834315,0.11241116327602078
18.957311999999995,4.323735497260204,0.11227364636126039
18.9597,4.341894173604817,0.11192516071966867
18.962084,4.3676419440545144,0.11146229090986985
18.964488,4.389385513011379,0.11107865655758725
18.966871999999995,4.418066549767274,0.11057504486627429
