Time,Force,Position
17.821911999999998,0.05857925898311298,0.0
17.824295999999997,0.05857925898311298,0.0
17.826692,0.05857925898311298,0.0
17.829076,0.05857925898311298,0.0
17.83146,0.05681630040718316,0.0
17.833855999999997,0.05305124108483649,0.0
17.836244,0.05035711694912835,0.0
17.838623999999996,0.046452287999921474,0.0
17.84102,0.04026581905057732,0.0
17.843407999999997,0.03328795416831506,0.0
17.845791999999996,0.026310089286052794,0.0
17.848188,0.017330123657373676,0.0
17.850575999999997,0.010352258775111414,0.0
17.852972,0.005236725012405791,0.0
17.855368,0.00305445755589534,0.0
17.857756000000002,0.003014060472661951,0.0
17.860135999999997,0.003014060472661951,0.0
17.862532,0.003014060472661951,0.0
17.864919999999998,0.003014060472661951,0.0
17.867303999999997,0.0016635860323029996,0.0
17.8697,0.001384046778582579,0.0
17.872087999999998,0.007290976474206311,0.0
17.874468,0.013197906169830043,0.0
17.876863999999998,0.020175771052092305,0.0
17.879252,0.025942931120855828,0.0
17.881631999999996,0.03250148712253746,0.0
17.884031999999998,0.04064283499005532,0.0
17.88642,0.04757347804407442,0.0
17.888799999999996,0.053293416284594795,0.0
17.891196,0.05580054896519957,0.0
17.893583999999997,0.060309782392221206,0.0
17.89598,0.06281691507282598,0.0
17.898376,0.06504450849971034,0.0
17.900764000000002,0.06820326748637302,0.0
17.903148,0.06842876016684053,0.0
17.905544,0.06972518803394658,0.0
17.907932000000002,0.0700904503412743,0.0
17.910311999999998,0.0700904503412743,0.0
17.912712,0.07059548227546224,0.0
17.915100000000002,0.06990345888617094,0.0
17.917484,0.06921143549687965,0.0
17.91988,0.0633045058012559,0.0
17.922267999999995,0.05739757610563218,0.0
17.924647999999998,0.05041971122336992,0.0
17.927048,0.044652551154606396,0.0
17.929435999999995,0.03809399515292476,0.0
17.931815999999998,0.02995264728540691,0.0
17.934216,0.023022004231387803,0.0
17.936603999999996,0.017302065990867425,0.0
17.938983999999998,0.014794933310262645,0.0
17.941380000000002,0.010285699883241014,0.0
17.943771999999996,0.010565239136961434,0.0
17.946151999999998,0.013405957644539545,0.0
17.948552,0.013313409845922483,0.0
17.950939999999996,0.015222962793722275,0.0
17.953319999999998,0.013926534926616238,0.0
17.955728,0.01356127261928852,0.0
17.958112,0.01356127261928852,0.0
17.960492000000002,0.013056240685100591,0.0
17.962896,0.013056240685100591,0.0
17.965283999999997,0.013056240685100591,0.0
17.967664,0.013056240685100591,0.0
17.970059999999997,0.013056240685100591,0.0
17.972448,0.013056240685100591,0.0
17.974828000000002,0.013056240685100591,0.0
17.977232,0.013056240685100591,0.0
17.979619999999997,0.013056240685100593,0.0
17.982,0.013056240685100593,0.0
17.984403999999998,0.013056240685100593,0.0
17.986792,0.013056240685100595,0.0
17.989171999999996,0.013056240685100595,0.0
17.991568,0.010269568750775393,0.0
17.993955999999997,0.005201256816312921,0.0
17.996336,0.0021350456282673005,0.0
17.998731999999997,0.0,0.0
18.00112,0.0,0.0
18.003499999999995,0.0009243408147685592,0.0
18.005896,0.0011970553234792183,0.0
18.008283999999996,0.004403036138385048,0.0
18.010664,0.007748786580151089,0.0
18.013059999999996,0.010163371462138809,0.0
18.015448,0.011646790784348209,0.0
18.017828,0.011646790784348209,0.0
18.020224,0.011646790784348209,0.0
18.022612,0.011646790784348209,0.0
18.024996,0.011646790784348209,0.0
18.027392,0.014340914920056349,0.0
18.02978,0.016243643122846377,0.0
18.03216,0.0180066016987762,0.0
18.034564,0.02084049546134455,0.0
18.036952,0.021672288477496048,0.0
18.039336,0.02278362074736797,0.0
18.041732,0.02278362074736797,0.0
18.04412,0.02278362074736797,0.0
18.046504,0.02278362074736797,0.0
18.0489,0.02278362074736797,0.0
18.051288,0.021859279932599413,0.0
18.053668,0.02190650176084256,0.0
18.05606,0.018700520945936733,0.0
18.058448,0.015354770504170692,0.0
18.06084,0.01563430975789111,0.0
18.063244,0.01698478419825006,0.0
18.065632,0.01981867796081841,0.0
18.068012,0.022512802096526553,0.0
18.070408,0.025346695859094902,0.0
18.072792,0.02738919368874514,0.0
18.075172,0.025806401822908925,0.0
18.077568,0.025946171449769136,0.0
18.079956,0.024363379583932917,0.0
18.082336,0.022501048464376276,0.0
18.084732,0.023711753277875013,0.0
18.08712,0.024503149210793128,0.0
18.089516,0.027337042973361477,0.0
18.091912,0.028168835989512975,0.0
18.0943,0.028168835989512978,0.0
18.09668,0.028168835989512978,0.0
18.099076,0.029140398632524687,0.0
18.101464,0.02882046229557088,0.0
18.103844,0.02882046229557088,0.0
18.106248,0.02882046229557088,0.0
18.108636,0.026126338159862737,0.0
18.111016,0.023292444397294387,0.0
18.113416,0.020458550634726035,0.0
18.1158,0.017764426499017893,0.0
18.11818,0.014930532736449544,0.0
18.120584,0.012888034906799304,0.0
18.122972,0.011776702636927382,0.0
18.125352,0.009734204807277142,0.0
18.127752,0.009554038097183543,0.0
18.13014,0.008582475454171833,0.0
18.13252,0.006539977624521591,0.0
18.134924,0.005329272811022851,0.0
18.137312,0.00626043837080117,0.0
18.139692,0.00891416542327592,0.0
18.142096,0.01440178623831902,0.0
18.144484,0.018678702239863385,0.0
18.146864,0.020913120411757503,0.0
18.149264,0.026260971599940397,0.0
18.151648,0.03347115390767993,0.0
18.154032,0.03961040102878093,0.0
18.156436,0.046541044082800034,0.0
18.158824,0.049467485643985454,0.0
18.161204,0.049467485643985454,0.0
18.1636,0.049467485643985454,0.0
18.165988,0.049467485643985454,0.0
18.168368,0.049467485643985454,0.0
18.170764,0.049467485643985454,0.0
18.173152,0.05062414388423128,0.0
18.175536,0.05062414388423128,0.0
18.177932,0.05062414388423128,0.0
18.18032,0.05062414388423128,0.0
18.1827,0.049932120494939995,0.0
18.185096,0.046167061172593324,0.0
18.187484,0.042681541103967074,0.0
18.189864,0.03719392028892397,0.0
18.19226,0.032917004287379606,0.0
18.194648,0.02971102347247378,0.0
18.197028,0.024363172284290885,0.0
18.199428,0.017152989976551354,0.0
18.201812,0.011013742855450353,0.0
18.204196,0.004083099801431239,0.0
18.206592,0.001156658240245829,0.0
18.20898,0.0022207686818745986,0.0
18.21136,0.002220768681874598,0.0
18.213764,0.0024934831905852575,0.0
18.216152,0.0024934831905852575,0.0
18.218532,0.0024934831905852575,0.0
18.220928,0.0013368249503394286,0.0
18.223312,0.0013368249503394286,0.0
18.225696,0.0013368249503394286,0.0
18.228092,0.0013368249503394286,0.0
18.230476,0.0013368249503394286,0.0
18.232872,0.0013368249503394286,0.0
18.235268,0.0013368249503394286,0.0
18.237656,0.0013368249503394286,0.0
18.240036,0.0013368249503394286,0.0
18.242432,0.0013368249503394286,0.0
18.24482,0.0013368249503394286,0.0
18.2472,0.0013368249503394286,0.0
18.249596,0.0013368249503394286,0.0
18.251984,0.0013368249503394286,0.0
18.25438,0.0013368249503394286,0.0
18.25678,0.0002727145087106592,0.0
18.259164,0.0002727145087106592,0.0
18.261548,0.0,0.0
18.263944,0.0,0.0
18.266332,0.0,0.0
18.268712,0.0002727145087106591,0.0
18.271112,0.00027271450871065907,0.0
18.2735,0.0009647378980019485,0.0
18.275884,0.0047297972203486196,0.0
18.27828,0.008634626169555501,0.0
18.280664,0.013610390305400911,0.0
18.283044,0.016584053694829473,0.0
18.285452,0.021000739323234045,0.0
18.287836,0.021226232003701554,0.0
18.29022,0.022800303266658772,0.0
18.292616,0.02502410497780465,0.0
18.295004,0.03641789680200428,0.0
18.297384,0.0533967861270046,0.0
18.29978,0.076240312206526,0.0
18.302168,0.10615917985406724,0.0
18.304548,0.1405922098157706,0.0
18.306948,0.18126196358433258,0.0
18.309336,0.23138124671966875,0.009859948770374721
18.311716,0.28536306586310917,0.019905364865484984
18.314112,0.34576860026851153,0.029611239472401067
18.3165,0.4092520994941098,0.03944597838176402
18.318884,0.4787331803560796,0.049226884800913
18.321288,0.5533868745832792,0.058921416906453
18.323676,0.6311117088856649,0.06846711100400538
18.326052,0.7151204888231524,0.07781601971822741
18.328452,0.8031315743956043,0.08715936395195656
18.330836,0.8990093974689943,0.09646283229197342
18.33322,1.0002400006177077,0.10567033961314112
18.335616,1.1152983175362357,0.11450366777098599
18.338004,1.2324531788576667,0.12318469467674356
18.340384,1.3543129856641019,0.13151222844373298
18.34278,1.4624867441854517,0.14004662447181793
18.345168,1.5672172755792781,0.14843944544956283
18.347552,1.6667347965246413,0.15683374899993943
18.349948,1.7570351055287072,0.16536888663277421
18.352336,1.8425889347931341,0.1738307358515575
18.35472,1.9199511613325286,0.18228911748838295
18.357116,1.9802747644000622,0.18132249287177735
18.359504,2.0383186233253276,0.18011511978778816
18.3619,2.0881689836676913,0.17946188597920784
18.364296,2.139976118786098,0.17840953630527562
18.366684,2.188200257150122,0.17726011513628365
18.369064,2.2281383491326263,0.17639891118858853
18.371464,2.261093647345728,0.17584085507264718
18.373848,2.289440339588181,0.1754997660893673
18.376228,2.3153675180615054,0.17503392353093203
18.378624,2.3366407645938088,0.17450862292687788
18.381012,2.352748222505891,0.1739099340648797
18.383392,2.3607094036633156,0.17354398997640103
18.385788,2.3660168577682654,0.1733081007124252
18.388176,2.367552427805858,0.1733820526418134
18.390572,2.3776082575083164,0.17303215424996937
18.392968,2.387384547957054,0.17274187309412228
18.395356,2.3974403776595126,0.1724099949588583
18.397736,2.4117327262802815,0.17192504976184342
18.400132,2.4319369334838146,0.1713718839849468
18.402516,2.459915330389669,0.17067254786690775
18.4049,2.503211685132557,0.16924216939977002
18.407296,2.546787579129166,0.1678064524251745
18.409684,2.5947869834991883,0.16608513781087833
18.412064,2.6351972937641244,0.1647455525550502
18.41446,2.6741173599618415,0.16356198198679736
18.416848,2.722955382093025,0.1618587332630698
18.419232,2.7731911004928116,0.1599354652465649
18.421628,2.8198891481085875,0.15802879876508932
18.424012,2.8644453253510864,0.1562752332347153
18.426408,2.9101649855788407,0.15459031925692676
18.428808,2.9529041576721573,0.15315057737157767
18.431196,2.9938735464445343,0.15188528433451529
18.433576,3.0347031655900514,0.15064804438051202
18.435972,3.071388813615874,0.14959332027143724
18.43836,3.1064444479476174,0.14872147221812385
18.440744,3.140708686346443,0.14788749691340003
18.44314,3.173529902506292,0.14707161546341566
18.445528,3.2016027430686322,0.146334533662525
18.447908,3.2224132506078496,0.14576189080770816
18.450308,3.2348904899373054,0.14539142082274745
18.452696,3.2368453688554792,0.14540659172980366
18.455076,3.23535512478826,0.14550803211119567
18.457472,3.226555325869674,0.1458395252832399
18.45986,3.219897397324366,0.1460781571486969
18.462244,3.2103062024728626,0.1464353667967511
18.46464,3.1927991524343087,0.1471676970058376
18.467024,3.176455585381011,0.14791606061760065
18.469408,3.1627657453801876,0.1485938631113108
18.471804,3.1502866101928624,0.14920103179219885
18.474192,3.134222582393284,0.1499092827064738
18.476588,3.117506928287648,0.15062874755888186
18.478984,3.1033524534358703,0.15119085451603212
18.481372,3.089105430785475,0.15167295688470372
18.483752,3.0769077307097397,0.15199339217649083
18.486148,3.063686317275609,0.152260472831751
18.48854,3.048462803095062,0.15260369273758106
18.49092,3.0314695055935745,0.15309053951811938
18.493316,3.020063201450758,0.15339377979617852
18.495708,3.007166653240721,0.15380996522639828
18.498088,2.9995775591356337,0.15407449695983588
18.500484,2.992500321709745,0.1543714239032203
18.502872,2.984584466522694,0.15478768104618967
18.505252,2.985049101373648,0.15490769563066095
18.507652,2.9877953762247405,0.1549063641274466
18.510036,2.998038197382302,0.15455422283259104
18.51242,3.0087003274204447,0.15414479622449004
18.514816,3.0168485000329714,0.15379754890790392
18.517204,3.0231343415259433,0.15351441365940977
18.519588,3.028256700033658,0.15320850392966934
18.521984,3.0359402377952316,0.1527501395451064
18.524372,3.047627977049638,0.1521298356157885
18.526756,3.0559631411172687,0.15167970694753857
18.529156,3.0623887522370996,0.15138509450222978
18.531544,3.0721197167154637,0.15102594656590534
18.533924,3.0792895019399693,0.1508175098287141
18.536324,3.088042079030312,0.15058233701674856
18.538708,3.1030804976136253,0.15007843361344314
18.541092,3.1153254195176037,0.14967493120818925
18.543492,3.132505708474194,0.14908130357296043
18.54588,3.1440990040721144,0.14866863619988946
18.548264,3.1594641837373914,0.14804016947327753
18.55066,3.1775303122833867,0.14723375604528569
18.553048,3.192011548217128,0.1465480909399178
18.555428,3.203140208964094,0.14602506698108184
18.557828,3.204258365978976,0.14588615326718316
18.560216,3.2053765229938573,0.14574723955328447
18.5626,3.2068667670610767,0.1456476848111441
18.565008,3.21101073818077,0.14547700892122664
18.567396,3.2132451563526643,0.14545770190063786
18.569776,3.2138495608304787,0.1455551666217316
18.572172,3.2123120949350166,0.14574493868822727
18.574556,3.21342835609203,0.1458642969572653
18.57694,3.217897192435818,0.14582726446104965
18.579336,3.2186413665404934,0.14590633386734697
18.581724,3.217151122473275,0.14600552662106772
18.584104,3.215149021726858,0.14608189804513205
18.5865,3.207792245047248,0.1463884982934449
18.588888,3.2001559291139183,0.14672946688714408
18.591272,3.1910765909416114,0.1470715922580648
18.593668,3.1865133109413373,0.14728916192727876
18.596056,3.183765140232376,0.14753489314046653
18.59844,3.1821804525086708,0.1478069816976625
18.600836,3.1821785566508014,0.14805568385990522
18.603224,3.184458300793069,0.14820009992184158
18.605608,3.191254103107368,0.14822057042947154
18.608004,3.197770366167947,0.14827419634389072
18.610392,3.2034952332956084,0.14833768574441383
18.612772,3.20963940930385,0.14835233301780185
18.615168,3.21848453419281,0.1482096466661766
18.617556,3.2278887375892102,0.14799971409934845
18.619936,3.239295041732027,0.14771922818102834
18.62234,3.248047618822369,0.14750589062121233
18.624728,3.2537271599796562,0.14741073723014012
18.627108,3.2603378666967213,0.14728682060493073
18.629504,3.2718367186381556,0.147074265059848
18.631892,3.2854302191246236,0.14686350792907588
18.634272,3.3023762947978677,0.14650172099657116
18.636668,3.319462140097972,0.14612220455330677
18.639056,3.3341265757710787,0.1458637067046561
18.64144,3.3467889106977684,0.1456798233274073
18.643836,3.3550749570792875,0.1456045027690061
18.64622,3.3643393908488277,0.14541897100011494
18.648616,3.36736520495364,0.14539058946011318
18.651012,3.370810327939033,0.14531478105932433
18.6534,3.37853919167098,0.14507049883867623
18.655784,3.3876185298432855,0.14475243299804086
18.65818,3.398467651336531,0.14431090482120984
18.660568,3.4063835065235817,0.1439681477091545
18.662948,3.412389808762832,0.14376402900658267
18.665344,3.4196993636141984,0.14357361794329768
18.667732,3.4244949610399495,0.14343025236419937
18.670116,3.431851737719559,0.14315842817203622
18.672512,3.4393482840260288,0.14286774677133962
18.6749,3.4505694925716117,0.14248156647675972
18.67728,3.4616981533185776,0.14203289985077602
18.679676,3.466635416229058,0.14164109485332047
18.682064,3.473202692833619,0.14115875080848206
18.68446,3.482843005371236,0.140581711561397
18.686856,3.500351951267659,0.1397842751063358
18.689244,3.5208413852985205,0.13883355843462764
18.691628,3.5408189626501847,0.13785119576283345
18.694032,3.557024655934492,0.13704649904094743
18.696416,3.5825420048165824,0.13601453053559218
18.698796,3.6064293400045937,0.13508778248746983
18.701192,3.6224480418337976,0.13438706900921638
18.70358,3.6346023117970283,0.13378688451611367
18.70596,3.650993100678569,0.13313597894947063
18.708364,3.6678957462393087,0.13250314640105973
18.710752,3.689129354374846,0.13165774051828952
18.713132,3.7073371484055695,0.13082791463303733
18.715528,3.7263363383692116,0.12999085006074748
18.717916,3.7435657450119155,0.12926638105545543
18.720296,3.7640079572145337,0.12844150072295774
18.722692,3.7783513193792846,0.1277264927369143
18.72508,3.7913442071036765,0.12707924209649354
18.727464,3.8120187367317717,0.12631948215324915
18.72986,3.828781612665651,0.12574428191518564
18.732244,3.841540287106696,0.1252815097861402
18.734628,3.8447077666962377,0.12504386534358503
18.737024,3.84596569333798,0.12492255440033698
18.739412,3.850668742965115,0.12475354837668358
18.741792,3.859143676659606,0.12443571926024567
18.744188,3.8649648833016226,0.12416762236944522
18.746576,3.8709258595705,0.12388610643468335
18.748956,3.8838243036384053,0.12343862736274798
18.751356,3.9015183451320623,0.1228864113695997
18.75374,3.912414688453551,0.12249148925240513
18.75614,3.925872211028897,0.12199969743384084
18.758536,3.932484813603832,0.12173186976708925
18.760924,3.942402769537299,0.12143472128659401
18.763308,3.950830481403547,0.12120488891120901
18.765704,3.9595377325235157,0.12094835319655106
18.768092,3.967685905136043,0.12074778390808952
18.770472,3.9799308270400218,0.12051299005645588
18.772867999999995,3.9918962096902795,0.1203029823934583
18.775256,4.000136930101424,0.12016432721006005
18.777636,4.007586254579651,0.12002830177553606
18.78004,4.015035579057877,0.11989099990393605
18.782428,4.028211666521634,0.1196358606774543
18.784808,4.035660990999861,0.11949402205444189
18.787212,4.040316818798752,0.11940581190847968
18.789596,4.043482402530425,0.11938843077379266
18.791976,4.042504015142403,0.11947867152656383
18.794376,4.043248189247078,0.11954712789265944
18.796764,4.043712824098033,0.11964001956022147
18.799144,4.044037689322127,0.11974457243111279
18.80154,4.048366756039054,0.11975937914696402
18.803928,4.050414182755845,0.11984384052168984
18.806312,4.058328142085027,0.1198072863342298
18.808708,4.064240000667791,0.11981543256728305
18.811096,4.074435599997109,0.11971114552513604
18.813476,4.0835602641397895,0.11963417258084058
18.815872,4.0931042371630495,0.11952303674743532
18.81826,4.100925648693613,0.11943175202463115
18.820644,4.109026599477898,0.11931568111319091
18.82304,4.1171275502621825,0.11919961020175068
18.825424,4.124948961792747,0.1191057633980214
18.827808,4.133561769256229,0.11900743887509961
18.830204,4.139753167092714,0.11899032749146278
18.832592,4.154604594220924,0.11880358655293884
18.834988,4.173180683588247,0.11855504532530113
18.837384,4.19147723370185,0.11833214559177406
18.839772,4.214569381241204,0.11801834313905421
18.842152,4.235007801728084,0.11774070158907321
18.844548,4.250650624789212,0.11755468872804387
18.846936,4.2664332174772,0.11736114582580268
18.84932,4.28100510535169,0.11720954592641002
18.851716,4.294506058039541,0.11708386160007518
18.854104,4.30307164367478,0.11705835044610931
18.856484,4.309774898190462,0.1170625654175434
18.858888,4.313544886399949,0.11712523955898413
18.861276,4.320667449796212,0.11709549376629239
18.863656,4.32457720763256,0.11714664069787152
18.866052,4.329418131028685,0.11718286162276863
18.86844,4.336121385544368,0.117189610403068
18.870824,4.344547201552746,0.11717877853300697
18.873228,4.358467463121177,0.1170267852397514
18.875616,4.375460760622665,0.11681099397934713
18.877996,4.39501523737801,0.1165109050232143
18.880392,4.4139180878272954,0.11621209761540319
18.88278,4.432029542343665,0.11592226322752237
18.885164,4.448837744247919,0.11561524687996715
18.88756,4.461921283913058,0.11536419491807731
18.889948,4.476867154697754,0.11508629990779676
18.892328,4.492883960669088,0.11478016644270089
18.894724,4.50503633477445,0.11453997111897335
18.897112,4.514395212200476,0.11433920801389008
18.899496,4.526827125559559,0.11407606412003615
18.901892,4.544473945224973,0.11370151861521467
18.90428,4.565333570450303,0.1132518811452058
18.90666,4.585401799742715,0.11280390759932939
18.909056,4.603048619408129,0.11243154871624471
18.911444,4.6199040431406235,0.11205728706378666
18.913828,4.635968070940201,0.11168734412538307
18.916224,4.650868615754524,0.11129402659569729
18.918612,4.660461706463897,0.11095682139887722
18.920996,4.6621861638144635,0.11076050084150918
18.923392,4.663398764485831,0.110547253149053
18.92578,4.661957638104724,0.11036236430480839
18.928164,4.655860683924726,0.11024083474973721
18.93056,4.646178837132475,0.11015829500588516
18.932948,4.637428155900002,0.1100625876819541
