Time,Force,Position
20.515908,0.03746680773071913,0.0
20.518296,0.03650989705240207,0.0
20.52068,0.036484151933863326,0.0
20.52308,0.03617886756160417,0.0
20.525468,0.033731712816067946,0.0
20.527852,0.03142432769739194,0.0
20.530248,0.02790623776521718,0.0
20.53264,0.0233172126464039,0.0
20.53502,0.019545328579047467,0.0
20.53742,0.014164907527316074,0.0
20.539812,0.008644716848724468,0.0
20.542188,0.004986857289689504,0.0
20.544584,0.0005376017977364306,0.0
20.546968,0.0005376017977364306,0.0
20.549348,0.001354742849193282,0.0
20.551752,0.005244919833705514,0.0
20.554136,0.009274866445077957,0.0
20.556512,0.015446683429727461,0.0
20.558908,0.021898039668097384,0.0
20.561296,0.025555899227132348,0.0
20.563676,0.02814282359952878,0.0
20.566072,0.02965881278528668,0.0
20.568456,0.031314571597904794,0.0
20.570836,0.034692891903219336,0.0
20.573232,0.04007331295495073,0.0
20.575616,0.04345163326026527,0.0
20.577996,0.04869228468513646,0.0
20.580404,0.05193083536359079,0.0
20.582788,0.05276945312475206,0.0
20.585168,0.05400590305678953,0.0
20.587572,0.05910678485480051,0.0
20.589956,0.06606999777236812,0.0
20.592336,0.07410414587657427,0.0
20.594732,0.0812071284210021,0.0
20.597116,0.08642203472733453,0.0
20.5995,0.08735320028711287,0.0
20.601896,0.0858629562198937,0.0
20.604284,0.0831620073391758,0.0
20.606664,0.07803964883146039,0.0
20.609068,0.07664195256285829,0.0
20.611452,0.07752589629439345,0.0
20.613832,0.07948077521256715,0.0
20.616236,0.07782501639994904,0.0
20.618624,0.0744466960946345,0.0
20.621004,0.06906627504290312,0.0
20.623408,0.06729649172196354,0.0
20.625792,0.06352460765460712,0.0
20.628172,0.06268598989344586,0.0
20.630568,0.06585157362511829,0.0
20.632952,0.06915692698365095,0.0
20.635332,0.06966878366284864,0.0
20.63774,0.06617643884921263,0.0
20.640128,0.06068199328915976,0.0
20.642508,0.057981044408441866,0.0
20.644912,0.05621126108750227,0.0
20.647296,0.053789851460504794,0.0
20.64968,0.05565218258006143,0.0
20.652076,0.0545812473934229,0.0
20.654464,0.057654283326478276,0.0
20.656844,0.05979615369975534,0.0
20.65924,0.060587549632673446,0.0
20.661628,0.06044778000581324,0.0
20.664008,0.06671214478907979,0.0
20.666412,0.07083463919906931,0.0
20.6688,0.07295503286264196,0.0
20.67118,0.07253572398206133,0.0
20.673584,0.07346688954183965,0.0
20.675972,0.0754689902882565,0.0
20.678356,0.07239595435520112,0.0
20.680752,0.07039385360878427,0.0
20.683136,0.06478111513157561,0.0
20.685516,0.06131024702764401,0.0
20.687912,0.06065862072158611,0.0
20.6903,0.05828443292283178,0.0
20.692684,0.05402216888598206,0.0
20.69508,0.05162223596868899,0.0
20.697464,0.04722020230497906,0.0
20.699848,0.04482026938768599,0.0
20.702252,0.04041823572397607,0.0
20.704636,0.03711288236544342,0.0
20.70702,0.037160104193686566,0.0
20.709416,0.03892988751462615,0.0
20.711804,0.03669546934273204,0.0
20.714184,0.03660292154411498,0.0
20.71658,0.03930387042483288,0.0
20.718968,0.04186504967869057,0.0
20.721364,0.04028225781285435,0.0
20.72376,0.036976904454321696,0.0
20.726148,0.03832737889468065,0.0
20.728528,0.03578767635052737,0.0
20.730924,0.037396213334902326,0.0
20.733312,0.04021545513277603,0.0
20.735692,0.03832737889468065,0.0
20.738088,0.03629953302972506,0.0
20.740476,0.041120875574015614,0.0
20.74286,0.047944318864723015,0.0
20.745256,0.055838697342068956,0.0
20.747644,0.06173097507299803,0.0
20.750024,0.06776302243078733,0.0
20.75242,0.0706962887369825,0.0
20.754808,0.06638680287188962,0.0
20.757204,0.06345353656569447,0.0
20.759596,0.06266214063277636,0.0
20.761984,0.06573517656583173,0.0
20.764368,0.06829635581968943,0.0
20.766772,0.07178870063332543,0.0
20.769156,0.07993687324585305,0.0
20.771536,0.08645503216430131,0.0
20.77394,0.090459233657135,0.0
20.776328,0.10035571288089778,0.0
20.778712,0.10664155437386875,0.0
20.781108,0.1126478566131193,0.0
20.783492,0.1254776021430773,0.0
20.785872,0.13844711729989545,0.0
20.78828,0.1455243547257845,0.0
20.790664,0.15045972177839653,0.0
20.793048,0.15432415364437002,0.0
20.79544,0.1614013910702591,0.0
20.797828,0.16805931961556758,0.0
20.800208,0.17471724816087603,0.0
20.802612,0.1874072240639738,0.0
20.805,0.1968586492886172,0.0
20.80738,0.20416820413998357,0.0
20.809784,0.20374889525940293,0.0
20.812172,0.2031898167519621,0.0
20.814552,0.20584354380443687,0.0
20.816948,0.2069144789910754,0.0
20.819336,0.20947565824493308,0.0
20.82172,0.21068636305843177,0.0
20.824116,0.20975519749865346,0.0
20.826504,0.2156217301110438,0.0
20.828884,0.21692498272315958,0.0
20.831288,0.2116156327603408,0.0
20.833676,0.20565276063359494,0.0
20.836056,0.20541475563450995,0.0
20.83846,0.2119253311214812,0.0
20.840848,0.22741890526640288,0.0
20.843228,0.2518954780692749,0.0
20.845632,0.287823680985338,0.008656621944041144
20.84802,0.33199070845467654,0.01742139048495983
20.8504,0.38090421566365446,0.02631814316340273
20.8528,0.4360072248512478,0.03563533182111364
20.855184,0.5027941815775094,0.044637271637746875
20.857568,0.5855488265889935,0.05320258679148873
20.859964,0.6766820657806133,0.061628031018038265
20.862352,0.7692564313533397,0.07020681486073725
20.864732,0.8715126437183176,0.0786636353823169
20.867128,0.9800981276887711,0.08725509817474135
20.869516,1.1007868680784736,0.09571659480278158
20.871896,1.2259897707823382,0.10425190936781162
20.874292,1.3507714687477528,0.11291800355776464
20.87668,1.4895659760802162,0.12140794708794599
20.87906,1.6416291186750536,0.1297086790282735
20.881464,1.804913469815474,0.13775828841582224
20.883852,1.9659180768136262,0.14576569923242777
20.886232,2.1202213251539654,0.15370505670509835
20.888628,2.2623759911046815,0.16169970085886406
20.891016,2.3944767232108086,0.16967767637986414
20.893396,2.5140548900171065,0.16908028728827987
20.895792,2.6306091385764616,0.1682328693316487
20.89818,2.739111554037644,0.16724769156293107
20.900564,2.8416114589753145,0.1657863314264103
20.90296,2.9325671860011773,0.1646704184288866
20.905348,3.009929412540572,0.16408917500225778
20.907728,3.0800765278850863,0.16365312969839443
20.910132,3.1435676105421613,0.1631605362802521
20.912516,3.193372644914151,0.16293812137206595
20.9149,3.236708638053805,0.162581064193035
20.917296,3.2716660370133233,0.16232250954483937
20.919684,3.301829734404959,0.1619919938070704
20.922064,3.3286899742959326,0.16148074445933266
20.924464,3.341584626648099,0.1612605502721876
20.926852,3.3405136914614606,0.16131332380206545
20.929232,3.3240794724674143,0.1617974366811643
20.931628,3.307552705674751,0.16219481743430103
20.934016,3.290327090747787,0.1626776952586993
20.9364,3.277337994739134,0.16305097427498288
20.938796,3.2615554020511457,0.1635306601834622
20.94118,3.248054449363295,0.16389261384444734
20.943564,3.230641842981228,0.16449014445195964
20.94596,3.216115281077111,0.16505749537410375
20.948348,3.206197325143644,0.16553841666442617
20.950728,3.1973503043968154,0.16597111493446598
20.953132,3.189713988463486,0.16634184939794872
20.95552,3.1798432543582615,0.1667423108200422
20.9579,3.177049757678927,0.16683969363675616
20.960296,3.179610936932784,0.1666868480490099
20.962684,3.183243051373281,0.16648494333011388
20.965064,3.1865030787614392,0.16624915304234578
20.967464,3.1909738109630967,0.16595006426725042
20.969848,3.195025234284173,0.1657038731824608
20.972228,3.202521780590643,0.16535939811541628
20.974628,3.212764601748205,0.16499792431031302
20.977012,3.2303169777571323,0.1643815526279529
20.979408,3.244888865631622,0.16397657035578542
20.981804,3.262486567610924,0.16352904296248424
20.984192,3.277802629590089,0.16319894533824789
20.986576,3.2976347497412846,0.16271860628354248
20.98898,3.3173271002656204,0.16226114294566896
20.991368,3.3407913348573124,0.16159057108858893
20.993748,3.3657458135162237,0.1608406060612712
20.996144,3.3849735291896046,0.1603040475375573
20.998532,3.402990540049487,0.15982963178312773
21.000916,3.422497794976588,0.15925935162133234
21.003312,3.443867381023247,0.1586260906518596
21.0057,3.459090895203795,0.15825839850476572
21.00808,3.4741274179292394,0.15799892294825688
21.01048,3.4898155669607416,0.15774827147013487
21.012868,3.5049446374848023,0.15756615223522888
21.015252,3.5197941687551433,0.15742130551534694
21.017648,3.5359941744658427,0.15720467330256435
21.020036,3.555127446482737,0.1568929442296544
21.022416,3.5781723721938485,0.15638066834003267
21.024812,3.5997742756659843,0.1558900185118188
21.0272,3.6252878328323357,0.1552033268591996
21.02958,3.6489862807073745,0.15450007448234465
21.03198,3.6777598652618853,0.1536295846030634
21.034364,3.7073248457493144,0.1527673610705486
21.036748,3.737309135117324,0.1518707912663716
21.039144,3.7643601581791377,0.15108045034937656
21.041536,3.7871274404943986,0.15045329195144455
21.043916,3.8162731121012468,0.1496754663127457
21.046312,3.8500746115069866,0.14878472759525352
21.048704,3.8823858668455076,0.14797918282368175
21.051084,3.9144175829303083,0.1472067751273112
21.053488,3.9524556012543592,0.14626402359909352
21.055876,3.989981762899213,0.14530817397814927
21.058256,4.028206772678367,0.14430607887103716
21.060652,4.067130630591823,0.14324627860785094
21.06304,4.103028674400466,0.14221116024847902
21.06542,4.135853682276053,0.14127545206954148
21.067816,4.168678690151642,0.1403631985792515
21.070204,4.20001345396001,0.1395488187844959
21.072588,4.231208448141518,0.1387579947633257
21.074984,4.258119701576472,0.13811025309909483
21.077368,4.285263272436905,0.1375100141927145
21.079752,4.30933380736428,0.13700793781308984
21.082148,4.3307506152391815,0.13655809825773765
21.084536,4.352027653487222,0.13612689412847348
21.086932,4.374096087668182,0.13569145866856708
21.089328,4.399097788155337,0.13518529785941963
21.091716,4.42000273935104,0.13473555736964474
21.094096,4.435879775695515,0.13435413804125484
21.096492,4.4496621634949545,0.1339641187809317
21.09888,4.460139197935863,0.13360975893595115
21.101264,4.465541095697298,0.13339022113058077
21.10366,4.471082763085596,0.13315978957068655
21.106048,4.4729923160333955,0.13305744690587853
21.108428,4.471828833048138,0.13303386139973614
21.110824,4.474622329727474,0.1329794888199304
21.113212,4.4780674527128665,0.13293025136224218
21.115596,4.478439539765204,0.1329599129497298
21.118,4.477228834951706,0.13300161287702242
21.120388,4.47415579901865,0.13307899052958078
21.122768,4.471082763085596,0.13315715668097997
21.125168,4.4670785615927615,0.1332536082913602
21.127552,4.464704373794008,0.13327160759716436
21.129936,4.4608871637562775,0.13328984250574388
21.132332,4.452925982598853,0.13341666189010404
21.13472,4.444825031814568,0.13355444229799124
21.137104,4.435792915470505,0.13370870540234361
21.139504,4.4263414902458615,0.13389808792422395
21.141892,4.420055648752891,0.13406316179647437
21.144276,4.416795621364732,0.13421711439591655
21.146672,4.422707479947496,0.13420599703040198
21.14906,4.426896777037564,0.13421754935295574
21.151444,4.431505383008212,0.13419457825307995
21.153844,4.439466564165636,0.1340728549839904
21.156228,4.451012637935314,0.13389343207327029
21.158604,4.45818242315982,0.13377774805552983
21.161,4.464980121331989,0.13363181018541156
21.163384,4.473268063571376,0.13342229623774354
21.16578,4.480205531370405,0.1332648852769388
21.168184,4.486583920661993,0.13315289012677847
21.170568,4.49389347551336,0.1330221801830787
21.172948,4.504415835924642,0.13280478811831184
21.175352,4.51023514670879,0.13274024399404183
21.17774,4.518149106037971,0.13268131302301372
21.18012,4.534071468352818,0.1324363179853241
21.182516,4.549062665107889,0.13220899886467755
21.1849,4.563262465930041,0.13198808840791187
21.18728,4.577741806005913,0.13174385431550448
21.189684,4.59063835421595,0.13151319550562063
21.192072,4.606096081679844,0.13119526693921965
21.194452,4.610100283172677,0.13110481147959754
21.196844,4.61517541985215,0.13098456842191428
21.199228,4.616758211717986,0.130973285113618
21.201608,4.6169905291434645,0.13101356226495067
21.204012,4.616151911382302,0.13108175899454588
21.2064,4.618106790300475,0.13109962579423376
21.208776,4.62443795776382,0.13105705600180964
21.21118,4.632491686719861,0.13099480986829187
21.213568,4.645480782728515,0.1308309959043418
21.215948,4.664104093924081,0.1305129681358599
21.218352,4.687011145866201,0.13009453955919703
21.220736,4.70512260038257,0.12976712756055064
21.223116,4.7265866300857144,0.12934666675575124
21.22552,4.749401134229218,0.12888197676695276
21.227908,4.764486774640774,0.12856633139681936
21.230284,4.781993824679329,0.1281804514169357
21.232688,4.800432040277662,0.12778072802915183
21.235076,4.818730486249135,0.1273922252976291
21.237456,4.835818227407108,0.12703900821771588
21.23986,4.850484558938084,0.12676368329839435
21.242244,4.876232329387782,0.12626392096320177
21.244624,4.903051035024119,0.12573762456950957
21.247028,4.936946978086344,0.1250711479074103
21.249412,4.969260129282734,0.12441313679426222
21.251796,4.995846517493594,0.12384451554007973
21.254192,5.020710344211757,0.1232959739643695
21.25658,5.043479522384888,0.1227497451618126
21.258956,5.063455203878682,0.12225303158181366
21.26136,5.079054596827305,0.1218129301689865
21.263748,5.088647687536679,0.12149135288010794
21.266128,5.09316564156658,0.12127162679702583
21.268532,5.1018275667161745,0.12096784535678111
21.270916,5.106485290372936,0.12073735531464681
21.273296,5.108349517350361,0.12054832904719932
21.275692,5.112215845074204,0.1203201504665962
21.27808,5.112869367238131,0.12016421852489417
21.28046,5.1159442990290565,0.1199428764516212
21.282856,5.1192987700737005,0.11970167679952794
21.285244,5.124934881118483,0.11940398550961542
21.287624,5.128988200297429,0.11911269064999876
21.290028,5.1220998501845125,0.1190168493390985
21.292416,5.119075931937569,0.11885933604545544
21.294796,5.109394085145318,0.11880084453935616
21.2972,5.0997122383530655,0.11874228018606606
21.299584,5.098178564173343,0.11853211985786066
21.301968,5.098227681859455,0.11831618017315065
21.304364,5.0977177210381255,0.11814057079023876
21.306748,5.0953454290972395,0.11798973007547307
21.309128,5.092274289022054,0.11788793577962138
21.311532,5.091577336745623,0.11777746077313393
21.31392,5.0928824852156085,0.1176315418116075
21.3163,5.092697389618375,0.11753860501307081
21.318704,5.09958953144703,0.11731907668718368
21.321092,5.108483774022102,0.11706541101435773
21.323472,5.120962909209427,0.11677365951883723
21.325864,5.132371109210113,0.11650144259637879
21.328252,5.13656230215805,0.11636582225777833
21.330632,5.139403020665628,0.11627197893497687
21.333028,5.145037235852541,0.11614307003284643
21.335412,5.149460746225956,0.11604493256205312
21.337792,5.161613120331317,0.1158272426003417
21.340208,5.167759192197427,0.11571438655783808
21.342592,5.178421322235569,0.11555056864630517
21.344972,5.190806013766408,0.11537228356340862
21.347364,5.2041218708570245,0.11518804572173014
21.349748,5.217857036828223,0.1149767651066705
21.352148,5.228798706120085,0.11480004228505106
21.35454,5.244396203210839,0.11456602390544726
21.356928,5.264277441048148,0.11424915803459472
21.359308,5.285788692579534,0.113877079258079
21.361704,5.3063687785511435,0.11351847754182937
21.364088,5.327088634149613,0.11315218404852109
21.366484,5.343524749001529,0.11287270953035465
21.368888,5.360612490159502,0.1126038165762582
21.371272,5.375977669824778,0.1123509682457511
21.373652,5.397069612475586,0.1120256154929311
21.376056,5.424679714044841,0.11162236453253029
21.378444,5.455362851547153,0.11116951929034154
21.38082,5.478177355690656,0.11083124700443962
21.383216,5.50699816207341,0.11040390297376701
21.385604,5.535818968456164,0.10998532355762923
21.387984,5.567712810771973,0.10951590079151183
21.390388,5.596813156408447,0.10908195052061839
21.392772,5.624842566858283,0.1086680139341495
21.395152,5.651521502867759,0.10830047691307176
21.39756,5.680993935556571,0.10791065310070105
21.399944,5.713539404178439,0.10747371590844239
21.402324,5.744082772053888,0.10707057061345499
21.40472,5.773555204742702,0.1066929260364567
21.407108,5.801816932618014,0.10634689781989816
21.409488,5.831940991612884,0.10598530361755408
21.411892,5.858480157995501,0.1056509431208891
21.414276,5.8862300291916165,0.10529140817161065
21.416656,5.9093240725888405,0.10497738837781108
21.41906,5.931486950426286,0.10467428806063288
21.421448,5.949273539718559,0.10440327384084531
21.423828,5.966967581212218,0.10409636684159826
21.426232,5.984009996399817,0.10378532140257486
21.42862,6.007198483453528,0.10338778831905117
21.431,6.026802077894985,0.10302244970483074
21.433396,6.041749844537549,0.1027013744397436
21.435784,6.054835280060558,0.10239785875446204
21.438164,6.064475592598175,0.10211017792395166
21.440568,6.073883587710315,0.10179028059122969
21.442956,6.077984128717505,0.10150559973110528
21.445336,6.07263324450005,0.10131357751957559
21.44774,6.066211425095958,0.1011382687301872
21.450124,6.054342381960057,0.10100516292444112
21.452504,6.034884244719066,0.10094903801468783
21.4549,6.011561675612104,0.10093603434373838
21.457288,5.982652113146471,0.10097529970450729
21.459668,5.957746752173672,0.10096237971206758
21.462064,5.933260700081453,0.10092219464047537
21.464452,5.9149207198553455,0.10079666822287388
21.466832,5.893787242949903,0.10069651537415647
21.469236,5.874655866790878,0.10056978016032186
21.47162,5.849378418765741,0.10052547649438465
21.474004,5.823030035553966,0.10049573952142872
21.4764,5.795610717155553,0.1004796073253823
21.478788,5.769122564316918,0.1004527945101094
21.481168,5.742774181105142,0.10041799169050047
21.483572,5.718847207520366,0.10033228400494465
21.485956,5.701717932107757,0.10017283621719487
21.488336,5.6869628444939035,0.1000131878380122
21.49074,5.672067987253188,0.09986090335115574
21.493128,5.667835260050615,0.0995960599742598
21.495508,5.662531597661404,0.09934698227281966
21.497904,5.665096568631,0.09900927500808844
21.500292,5.678323669638739,0.09855967500190119
21.502672,5.697557072885727,0.09803894366532939
21.505076,5.721446303931607,0.09747586858201396
21.50746,5.7439850605371285,0.09694804956172134
21.50984,5.764102407515653,0.09647052972994763
21.512236,5.779936013747622,0.09606011854859636
21.514624,5.796421246285651,0.09565399973148253
21.517,5.810624838823541,0.09528908085204166
21.519404,5.826411223227268,0.0949202346983559
21.521792,5.839776198003998,0.09459905728025783
21.524172,5.851930467967229,0.09430366857659578
21.526564,5.860592393116824,0.09407322850342759
21.528952,5.874701541998227,0.09380574108401857
21.531336,5.889974173864887,0.093567800742778
21.533732,5.90282539610455,0.0933807307141639
21.53612,5.913674517597795,0.09321772191780243
21.538516,5.931972963569267,0.0929971475207763
21.540912,5.9449167336075455,0.09285613152272212
21.5433,5.96214424439238,0.09265663329498469
21.54568,5.978021280736855,0.09249149276254842
21.548076,5.986169453349382,0.09239819159435912
21.550464,5.9892424892824385,0.09236246798164564
21.552844,5.993526230028993,0.09230515159848648
21.55524,5.998089510029268,0.09223254870041038
21.557628,6.002932329283262,0.09214431231201625
21.560012,6.010708414843453,0.09202892535858705
21.562408,6.025701507456391,0.09183101847280599
21.564796,6.043627866375525,0.0916067870088084
21.567172,6.06877123234741,0.09130230543486911
21.569568,6.101271374998904,0.09091107349001215
21.571956,6.131909186530841,0.09053072328847546
21.574336,6.166970508436191,0.09008736576285648
21.576748,6.196444836982872,0.08968490827212477
21.579136,6.223265438477078,0.089296710404817
21.581512,6.246361377732171,0.08893176143170685
21.583916,6.2708077914276235,0.088539940297923
21.586304,6.289946751018125,0.08817432607977926
21.588684,6.309365249862349,0.08779381087147622
21.591084,6.325291403892936,0.08747133564333626
21.593472,6.338284291617328,0.08717485280687966
21.595852,6.357003942327251,0.08683640100298383
21.598248,6.381729895276423,0.08644320828858543
21.600632,6.405245143412096,0.08607423215936935
21.603028,6.431553888227104,0.08569199197733643
21.605432,6.458654028975031,0.08531174841933188
21.607816,6.4841713778571215,0.0849312733743792
21.610196,6.506895230059876,0.08457501697532913
