Time,Force,Position
22.818527999999997,0.024293789782722806,0.0
22.820924,0.029294509426576715,0.0
22.823311999999994,0.0333640635106523,0.0
22.825695999999997,0.0375733872215881,0.0
22.828092,0.04350527242522033,0.0
22.830479999999994,0.05050809281549109,0.0
22.832863999999997,0.05937324432531849,0.0
22.83526,0.07024049658156274,0.0
22.837647999999994,0.08310984958422385,0.0
22.840031999999997,0.09304593628068977,0.0
22.842428,0.1037734189100738,0.0
22.844815999999994,0.1123590311661808,0.0
22.847199999999997,0.11572973711595533,0.0
22.849596,0.11723811194617323,0.0
22.851983999999995,0.11572973711595536,0.0
22.854364,0.11515252784551577,0.0
22.856764,0.11257321782865934,0.0
22.859151999999995,0.11013367743866312,0.0
22.861535999999997,0.10382970518269341,0.0
22.863932,0.09952783367314055,0.0
22.866324,0.09294432216345042,0.0
22.868703999999997,0.08794360251959651,0.0
22.871103999999995,0.08387404843552093,0.0
22.873492,0.07966472472458513,0.0
22.875871999999998,0.07373283952095291,0.0
22.878272,0.06673001913068215,0.0
22.88066,0.05786486762085474,0.0
22.883039999999998,0.04699761536461049,0.0
22.88544,0.03412826236194939,0.0
22.887823999999995,0.024192175665483456,0.0
22.890207999999998,0.013464693036099415,0.0
22.892608,0.004879080779992433,0.0
22.894996,0.0015083748302178958,0.0
22.89738,0.0,0.0
22.89978,0.0,0.0
22.902168,0.0,0.0
22.904548,0.0,0.0
22.906948,0.0,0.0
22.909336,0.0,0.0
22.911716,0.0,0.0
22.914116,0.0,0.0
22.916504,0.0,0.0
22.918887999999995,0.0,0.0
22.921284,0.0,0.0
22.923672,0.0,0.0
22.926056,0.0,0.0
22.928452,0.0,0.0
22.930843999999997,0.0,0.0
22.933228,0.0,0.0
22.935624,0.0,0.0
22.938011999999997,0.0,0.0
22.940396,0.0,0.0
22.942792,0.0,0.0
22.945179999999997,0.0,0.0
22.947564,0.0,0.0
22.94996,0.0,0.0
22.952347999999997,0.0,0.0
22.954732,0.0,0.0
22.957128,0.0,0.0
22.95952,0.0,0.0
22.9619,0.0,0.0
22.964299999999994,0.0,0.0
22.966688,0.0,0.0
22.969072,0.0,0.0
22.971467999999994,0.0,0.0
22.973859999999995,0.0,0.0
22.976256,0.0,0.0
22.978655999999997,0.0,0.0
22.981044,0.0,0.0
22.983428,0.0,0.0
22.985823999999997,0.0,0.0
22.988212,0.0,0.0
22.990592,0.0,0.0
22.992988,0.0,0.0
22.995375999999997,0.0,0.0
22.997755999999995,0.0,0.0
23.000152,0.0,0.0
23.00254,0.0,0.0
23.004923999999995,0.0,0.0
23.00732,0.0,0.0
23.009711999999997,0.0,0.0
23.012092,0.0,0.0
23.014488,0.0,0.0
23.016879999999997,0.0,0.0
23.01926,0.001600922628834955,0.0
23.021656,0.007204150892634372,0.0
23.024047999999997,0.01955595964249006,0.0
23.026428,0.04345194630415383,0.0
23.028823999999997,0.08001026789250737,0.0
23.031212,0.1217815999293241,0.007607268040036961
23.033596,0.16741546797424509,0.015624602656025
23.035991999999997,0.22166024762477898,0.02369189289898572
23.03838,0.2865180396273427,0.03158781435042273
23.040764,0.3628274617430973,0.039140793173288425
23.043159999999997,0.4435584983743971,0.04679119535740277
23.045551999999997,0.5287111495212419,0.05452890334230351
23.047932,0.6162360926089718,0.06265897956726132
23.050332,0.7086472850632014,0.07103890524193236
23.052719999999997,0.8112994028171232,0.07922027343617012
23.0551,0.923168732512342,0.08718092204322768
23.0575,1.0402510726560241,0.0951732081474129
23.059887999999997,1.1597057047405912,0.10344792845838419
23.062268,1.2857691476843542,0.11183610808789488
23.064663999999997,1.4222132855546699,0.12005317012782941
23.067052,1.558312531580023,0.12838042680103942
23.069432,1.6885471408508554,0.13678897265186152
23.071836,1.8060740892246239,0.14541034398301964
23.074223999999997,1.9101945285670276,0.15412224967249247
23.076607999999997,2.0000226192886625,0.162996443933022
23.079004,2.0879430529203664,0.16414559624788497
23.081396,2.178147022410077,0.16453680748271904
23.083775999999997,2.2600668413761382,0.164728546148824
23.086172,2.326578050564418,0.16532116570519048
23.088564,2.380799011878345,0.1663898070422698
23.090943999999997,2.437348835020653,0.16712943654922433
23.093343999999995,2.493201705886529,0.16762348200058647
23.095732,2.550966025558074,0.1674968863739807
23.098116,2.606917131796175,0.16697678317532041
23.100511999999995,2.65421010460042,0.16662484573553912
23.1029,2.6914472477022064,0.16660642064689407
23.105284,2.725054172221366,0.16652525091390144
23.107679999999995,2.7574995096131394,0.1660907947176197
23.110068,2.782544640212799,0.16555785562842198
23.112447999999997,2.792133939206433,0.16542767715532605
23.114847999999995,2.808707927827339,0.16489667723317375
23.117236,2.8327312409264724,0.1640957260028834
23.119615999999997,2.865926439996528,0.16294171296104665
23.122015999999995,2.9023344446264994,0.16161823805215408
23.124404,2.9408843196297485,0.16015416342997574
23.126788,2.976361158699941,0.1588626855286838
23.129183999999995,3.006483321836942,0.1579072356728732
23.131572,3.0339970838918418,0.1572092304927198
23.133956,3.0673773785591316,0.15623574585476796
23.136351999999995,3.1005253558009453,0.15517514942373517
23.138744,3.1254326126316134,0.15444398839707402
23.141124,3.1467077550217852,0.15394367373734807
23.143519999999995,3.162628221478764,0.1537197406341954
23.145912,3.172170298644155,0.15371328318595892
23.148292,3.178267252824154,0.1538023255713901
23.150692,3.1839921199518146,0.15384814355338353
23.15308,3.1906481526392536,0.1538617351022358
23.15546,3.1991665164462493,0.153814826227669
23.15786,3.2099665202533822,0.15365278662370394
23.160248,3.2290544662999032,0.15311894086368963
23.162631999999995,3.238551217494921,0.15295567090921816
23.165028,3.241901896823827,0.1530490867075071
23.167416,3.242691396898876,0.15328659699496866
23.169799999999995,3.240128321787149,0.1536813034130823
23.1722,3.2333287277571108,0.15418115827175766
23.174588,3.231232183354208,0.15443430502163136
23.176967999999995,3.2316495963769194,0.15463046094153363
23.179368,3.2382130812657417,0.1545874828912257
23.181756,3.241051903915451,0.15465935053896762
23.18414,3.2443100354457406,0.15468101836301892
23.186547999999995,3.246264914363915,0.1546930749933171
23.188936,3.2502691158567485,0.1545400621333
23.191315999999997,3.257346353282637,0.15426516470292723
23.193712,3.2683805703731164,0.1539209493907543
23.196099999999998,3.277272917090319,0.15366049505618287
23.19848,3.2883071341807986,0.15330094301283567
23.20088,3.2977585594054415,0.1529755249048582
23.203267999999994,3.3039971790701697,0.15279808557671892
23.205648,3.3066036842944007,0.15281358081163
23.208043999999997,3.3050662183989385,0.1529994688643193
23.210435999999994,3.305298535824416,0.1530543655404683
23.212816,3.3054383054512755,0.15303731598227793
23.215211999999998,3.30427482246602,0.15301245423327492
23.2176,3.305532749107762,0.15285815633204133
23.219984,3.314799078735171,0.15239433109538242
23.222379999999998,3.3184784150039115,0.15211760387402057
23.224771999999994,3.31820077160806,0.15190488910101912
23.227152,3.3162005667195125,0.15173493904721297
23.229547999999998,3.321649686309192,0.1513471120565272
23.231936,3.330823468137984,0.15085653030476256
23.234316,3.346934717765805,0.15013578168702565
23.236715999999998,3.360112701087431,0.14951621956712038
23.239099999999997,3.3700778788491412,0.1490243432187949
23.241484,3.3792516606779337,0.14854306374523923
23.24388,3.3959219888131957,0.1477676087836088
23.246267999999997,3.41222022989612,0.14696303971510005
23.248652,3.42586474392657,0.14621859423227535
23.251043999999997,3.438578092397241,0.14549552680973593
23.253435999999997,3.4554354119876063,0.1446187937943058
23.255816,3.4753657675110277,0.14363780618429825
23.258216,3.493154252661171,0.1427379299657334
23.260603999999997,3.509592263370956,0.14190223021087794
23.262988,3.526402361133078,0.14110018626698353
23.265384,3.5454468770670946,0.14029526735807324
23.267776,3.557553925202082,0.13972708098159103
23.270156,3.5676588725906524,0.13921934619251694
23.272555999999994,3.5756219496059463,0.13878922673296598
23.274944,3.581163616994242,0.13847848374815092
23.277328,3.5820494565836465,0.13830125945230096
23.279723999999995,3.5762773676277426,0.13831633518585612
23.282112,3.5630559541936115,0.13852982026679983
23.284496,3.5494152318789003,0.13879406652339954
23.286896,3.5368454447508273,0.13902080941474892
23.289283999999995,3.5284196287424483,0.13909411855693155
23.291667999999994,3.5166412375472933,0.13929682823371117
23.294068,3.5032328326580595,0.13960003835321727
23.296456,3.4934093203810788,0.13982070554677176
23.29884,3.4882416359029897,0.13991884449138225
23.30124,3.482142785865122,0.14003814447562654
23.303628,3.472970899894199,0.14025578815261064
23.306012,3.4652420361622513,0.14047419858080173
23.308408,3.4621690002291965,0.14057471783491712
23.310799999999997,3.4649624969085315,0.14050607067720638
23.31318,3.4660334320951707,0.14046904876540672
23.315576,3.4717601950807007,0.14031951436405285
23.317964,3.4800009154918454,0.1401286277940196
23.320348,3.492478154821301,0.13986421177404376
23.322744,3.505886559710535,0.13957557651271454
23.325132,3.5190154253460486,0.13931659888502537
23.327512,3.53852268027315,0.13890808157359508
23.329911999999997,3.5606364404244837,0.138513004708487
23.332296,3.58647486281493,0.13802248256918664
23.33468,3.6192507530044047,0.13734648738146327
23.337076,3.6458805713277695,0.13687509826169197
23.339468,3.6720910807705534,0.13644650126431215
23.341848,3.7012348565195325,0.1359359714531405
23.344244,3.730099093014791,0.1354640803652004
23.346632,3.755378436897797,0.13507671336600285
23.349011999999995,3.7805180111539425,0.13470953061159513
23.351408,3.803515715036811,0.13440392941347687
23.353796,3.8267929581734004,0.1340674924594874
23.356179999999995,3.849278805377071,0.13374875481178758
23.358576,3.865246493662293,0.13358935702299804
23.360964,3.8802830163877364,0.13345237648363276
23.363344,3.8950399998594607,0.13334746400145048
23.365744,3.911659314450741,0.13320228836160528
23.368132,3.928697937922602,0.13301943466208183
23.370515999999995,3.9460161006481833,0.13281091911422144
23.372912,3.9673384648665984,0.1325015983512163
23.375304,3.985727562778818,0.1322690418645672
23.377683999999995,4.005886444011977,0.13193598695261857
23.38008,4.024742072633021,0.1315962931635775
23.382468,4.030793700842645,0.13157297357424375
23.384851999999995,4.042060235358602,0.1314023729758826
23.387248,4.051743978008723,0.13124165048521466
23.389636,4.061287951031984,0.13109682846438084
23.392019999999995,4.069249132189408,0.13096498670557444
23.394416,4.077210313346832,0.1308331449467681
23.3968,4.085031724877396,0.1307151762977773
23.399184,4.099790604206989,0.13042755099538186
23.40158,4.117482749842777,0.1300760705756644
23.403968,4.135314665105425,0.12971894544804266
23.406347999999998,4.152075645181435,0.12938752781931195
23.408748,4.168045229324527,0.12906105205238977
23.411136,4.182152482348061,0.12877308713161012
23.413515999999998,4.194816713132621,0.12848687119907878
23.415912,4.205898152051343,0.12821493329166928
23.418299999999995,4.216327964664009,0.12793786530896006
23.42068,4.221962179850921,0.12776424205797143
23.42308,4.226804999104917,0.1275950456374152
23.425467999999995,4.229645717612494,0.12747354212034745
23.427848,4.230996192052853,0.12741913726631846
23.430248,4.242636709479017,0.12710150847267998
23.432635999999995,4.248550463919651,0.1269028566541169
23.435016,4.259120046159175,0.1266175544881037
23.437411999999995,4.268106836532866,0.12634452190500062
23.439803999999995,4.278304331720053,0.1260315644219577
23.442187999999994,4.2886415965341005,0.12570680825863928
23.444584,4.296045595041954,0.12544391294587673
23.446971999999995,4.298793765750914,0.12526927720797518
23.449355999999995,4.298096813474483,0.12513898680598504
23.451752,4.290462393399022,0.1251631310812612
23.454139999999995,4.286552635562673,0.12511956136568958
23.456523999999995,4.285156835151942,0.12504927673960067
23.45892,4.2860426747413465,0.12490946156773039
23.461307999999995,4.285438270263531,0.12483447799908953
23.463691999999995,4.284414556905135,0.1247957117011296
23.466088,4.282831765039299,0.12480522563624098
23.468475999999995,4.281248973173463,0.12481490658144712
23.470859999999995,4.284461778733379,0.12472864313173322
23.473256,4.289676685039711,0.12459707874291001
23.475648,4.293728108360788,0.12443794752759615
23.478027999999995,4.291214150935174,0.12446381824793379
23.480428,4.294938813174286,0.12439758873562877
23.482816,4.296009748360925,0.12436940094418927
23.485195999999995,4.298151618734202,0.12431345430416485
23.487596,4.298943014667121,0.12430918579459763
23.489984,4.301456972092734,0.12428495912997871
23.492368,4.306392339145346,0.12418128570240876
23.494764,4.311187936571098,0.12408880132461575
23.497152,4.317938412915025,0.12401929894797938
23.499531999999995,4.333768227431255,0.12374526481319181
23.501928,4.3482947893353705,0.12345945253984429
23.504316,4.363240660120067,0.12314370202250031
23.506699999999995,4.376975826091265,0.12287096383152875
23.5091,4.3952742720627365,0.12247144632368998
23.511488,4.414783422847708,0.12203528816436836
23.513867999999995,4.433640947326621,0.12158861685431034
23.516268,4.456642442925228,0.12105213666293452
23.518656,4.472054844418748,0.12064857053203272
23.521035999999995,4.489329577031825,0.12022186375975527
23.523432,4.510701058936352,0.11976932553924782
23.52582,4.536635820841154,0.11919040468811275
23.528203999999995,4.559265229387424,0.11864476351884236
23.530604,4.5828258034934715,0.1180880335127053
23.532992,4.605315442412881,0.11756061802041962
23.535371999999995,4.62822439021287,0.11700078504605385
23.537772,4.649550546147023,0.11645209246984733
23.540159999999997,4.675951838760649,0.1158164144078487
23.542539999999995,4.703424066560913,0.1151550390222746
23.54494,4.727730710629505,0.11450331301585567
23.547327999999997,4.749104088391902,0.1139156235402984
23.549712,4.772200027646996,0.11331925673183327
23.552111999999997,4.790220830222617,0.11281865174852004
23.5545,4.806658840932401,0.11232385912620284
23.556884,4.816811010149214,0.11196034804326854
23.559279999999998,4.82603201380625,0.111611192849098
23.561668,4.837394887836561,0.1112163295625577
23.564052,4.844753560374041,0.11089575917106695
23.566447999999998,4.859049700710549,0.11045669764109547
23.568836,4.870831883621442,0.11003902770666156
23.57122,4.881450583547079,0.10959964387157375
23.573615999999998,4.8900671827263,0.10919783215805948
23.576004,4.895470976345605,0.10885953130031283
23.578388,4.901945705151548,0.10850242662035849
23.580783999999998,4.906418333211075,0.10817744486950481
23.583175999999995,4.909680256457105,0.10788413810932945
23.585556,4.912802410076272,0.1076014385724734
23.587956,4.9065656862694125,0.10749408259215149
23.590343999999995,4.902470832835831,0.10734372457781592
23.592727999999997,4.901309245708444,0.10714910473292806
23.595127999999995,4.8961434570882245,0.10701938474450376
23.597511999999995,4.889766963654506,0.10692108078696054
23.599895999999998,4.888605376527119,0.10672665121270411
23.602292,4.889166350892429,0.10652010418584511
23.604679999999995,4.8955938578701295,0.10622689672957328
23.607063999999998,4.903232069661329,0.10590434145395156
23.609464,4.908868180706111,0.10561431116708796
23.611852,4.91636662287045,0.10530290929142731
23.614236,4.9186501587284575,0.10508625554289235
23.616632,4.918512284959466,0.10493022037786066
23.61902,4.915813231936617,0.1048453307780661
23.621404,4.912834639660048,0.10478016598536298
23.623804,4.914931184062951,0.10463153514746452
23.626192,4.915025627719437,0.10451482204106313
23.628584,4.918984503241896,0.10434604508673916
23.630984,4.928809911376748,0.10409735938807646
23.633371999999994,4.936353679511461,0.10389742352715946
23.63576,4.949112353952506,0.10360339319162351
23.63816,4.959309849139693,0.10338145455993614
23.640547999999995,4.968296639513381,0.1031906561598999
23.642936,4.982870423245741,0.10293731969201286
23.645332,4.9963732717914615,0.10270459172487019
23.647724,5.007314941083325,0.1025428453949635
23.650112,5.0161147400019095,0.10242113111731792
23.652511999999994,5.0219812726143,0.10234094547227363
23.6549,5.0232845252264156,0.10235925493786645
23.657287999999998,5.029243605637423,0.10232723567701099
23.659688,5.031198484555596,0.10235474880609653
23.662076,5.037297334593465,0.10231284140982232
23.664463999999995,5.047400386124166,0.10221110682342087
23.666864,5.058574372841505,0.10208887804010129
23.669251999999997,5.071610690678402,0.10194730615100814
23.671651999999995,5.082505138142021,0.10184654519174294
23.674052,5.094330751165419,0.10173672417366661
23.67644,5.104945659375318,0.10165700731064041
23.678839999999997,5.108762869413049,0.1016652545714507
23.681248,5.117934755383971,0.10157858744558915
23.683636,5.130831303594007,0.1014572705640653
23.686043999999995,5.150153462923875,0.10122952152442158
23.68846,5.170546557440381,0.10098469038929159
23.690859999999997,5.190148256023969,0.10074400995083027
23.693268,5.211100429047916,0.10046856923855137
23.69566,5.233682615765943,0.10014058517737834
23.69806,5.260548543230524,0.09974460852254344
23.700456,5.287414470695103,0.09934863186770856
23.702839999999995,5.320426470025794,0.0988627361196527
23.705236,5.347711706370955,0.0984416607020546
23.707632,5.382725806448064,0.09793561121875137
23.71002,5.4185313024580894,0.09743905923553188
23.712416,5.453126093654617,0.0969726529360004
23.714816,5.486789719291365,0.09651336043198097
23.7172,5.5187307834354185,0.09606529699843656
23.719579999999997,5.55081161720633,0.09560912734215118
23.721976,5.581030119857686,0.09517080955058504
23.724363999999994,5.611667931389623,0.09470943410736407
23.726747999999997,5.644168074041117,0.09422899254552969
23.729144,5.674386576692471,0.09379775726484534
23.731531999999994,5.699669712291215,0.09343016099547131
23.733912,5.716013279344514,0.09317094941973814
23.736307999999998,5.729423580091617,0.09294307223580991
23.738696,5.742182254532663,0.09270870941632804
23.741091999999995,5.754940928973709,0.09247644211761764
23.743488,5.768490999347673,0.09224796988679576
23.745876,5.776965933042164,0.0920818326960327
23.748259999999995,5.786931110803875,0.09187669005847272
23.750663999999997,5.79531349669975,0.09167188475715128
23.753048,5.807979623342177,0.09140739321243761
23.755432,5.817340396626072,0.09115050763400812
23.757828,5.824978608417271,0.0909015484709832
23.760216,5.83331566834277,0.09061448704752684
23.762595999999995,5.847938569761242,0.0902528699524586
23.764996,5.861490535993074,0.08990507322290334
23.76738,5.879046703717742,0.0895203372878012
23.769763999999995,5.895252397002048,0.08916276293648143
23.77216,5.906522723233745,0.08885122576328819
23.774548,5.917141423159381,0.08853016987303124
23.776928,5.929390136779099,0.0881667705470613
23.779323999999995,5.939776519279259,0.08781454358547472
23.781712,5.952304772152696,0.08743165917141249
23.784091999999998,5.9708393272653835,0.08698985815070798
23.786492,5.987092242377934,0.08658508098591257
23.78888,6.001482826370928,0.08619388680338322
23.791259999999998,6.012940144057726,0.08583039948794453
23.79366,6.0282618936105,0.08543499142848951
23.796048,6.042093399096053,0.0850785888158314
23.798432,6.054574430141246,0.08475282715609014
23.800828,6.065565217119222,0.0844664461854825
23.803216,6.070921788910284,0.08426197502025695
23.805595999999998,6.07320532476829,0.08409037551052548
23.808004,6.074278155812799,0.08394059998271144
23.810388,6.067063044617918,0.08388268092018854
23.812771999999995,6.062129573423176,0.08379038420237928
23.815168,6.054542375175958,0.08370710052998331
23.817556,6.052449622488795,0.08355156094757968
23.819939999999995,6.059156668720214,0.0833255423294043
23.822336,6.065584175697914,0.08311401884143957
23.824724,6.069450503421757,0.08295180627081264
23.827104,6.080254298944629,0.08273205938281518
23.8295,6.093572051893115,0.08251244420036338
23.831883999999995,6.099812567415712,0.08235904479256968
23.834267999999994,6.106984248498087,0.08220023795324798
23.836672,6.113876390326742,0.08205591447735874
23.83906,6.120628762528537,0.08191859432738512
23.84144,6.125518803610774,0.08179221059664273
23.843844,6.128406743946596,0.08168297631535877
23.846231999999997,6.133576324282554,0.08154196391964266
