Time,Force,Position
6.355663999999999,0.17710776824132063,0.0
6.35806,0.17403473230826524,0.0
6.360451999999999,0.17324333637534717,0.0
6.362836,0.1629532933895425,0.0
6.365215999999998,0.1525234807768776,0.0
6.367623999999999,0.13888086260429708,0.0
6.370007999999999,0.1287305892453526,0.0
6.372387999999999,0.12216520849866123,0.0
6.374784,0.1140170358861336,0.0
6.377167999999999,0.10481486887700964,0.0
6.379563999999999,0.09918065369009657,0.0
6.381959999999999,0.08997848668097254,0.0
6.384347999999999,0.08077631967184855,0.0
6.386728,0.07129461340900409,0.0
6.389132,0.06474617345235481,0.0
6.391515999999999,0.0601998342421224,0.0
6.393896,0.05472232947211167,0.0
6.396291999999999,0.04845342876918283,0.0
6.398676,0.04162544955881314,0.0
6.401055999999999,0.03678263030481818,0.0
6.403464,0.03023419034816893,0.0
6.405847999999999,0.026462306280812493,0.0
6.408227999999999,0.018051535204606586,0.0
6.410623999999999,0.01977409669730302,0.0
6.413008,0.01592660562137166,0.0
6.415403999999999,0.01606637524823187,0.0
6.417803999999999,0.01221888417230051,0.0
6.420192,0.00944232828300768,0.0
6.422571999999999,0.007596937953493171,0.0
6.424963999999999,0.007596937953493171,0.0
6.427351999999999,0.006962252437477404,0.0
6.429744,0.006962252437477404,0.0
6.432139999999999,0.006962252437477404,0.0
6.434524,0.006962252437477404,0.0
6.436904,0.006962252437477404,0.0
6.439307999999999,0.006962252437477404,0.0
6.441695999999999,0.006962252437477404,0.0
6.444071999999999,0.006962252437477404,0.0
6.446467999999999,0.006962252437477404,0.0
6.448851999999999,0.006327566921461637,0.0
6.451248,0.006327566921461637,0.0
6.453652,0.004761715845667549,0.0
6.45604,0.004761715845667549,0.0
6.458419999999999,0.0009142247697361881,0.0
6.460823999999999,0.0009142247697361881,0.0
6.463211999999999,0.0,0.0
6.465591999999999,0.0,0.0
6.467988,0.0,0.0
6.470371999999999,0.0,0.0
6.472752,0.0,0.0
6.475147999999999,0.000914224769736188,0.0
6.477532,0.005972420659166288,0.0
6.479911999999999,0.010751077294875969,0.0
6.482315999999999,0.0175318346770025,0.0
6.484703999999999,0.024172822432268818,0.0
6.487083999999999,0.02788054388133997,0.0
6.489488,0.028235690143635316,0.0
6.491876,0.034597138645181214,0.0
6.494252,0.040167191213809,0.0
6.496659999999999,0.04666840934221511,0.0
6.499044,0.05051590041814647,0.0
6.50142,0.05222152112080077,0.0
6.503815999999999,0.05234434995761885,0.0
6.5062,0.05404997066027315,0.0
6.508579999999999,0.05404997066027315,0.0
6.510971999999999,0.05404997066027315,0.0
6.513356,0.05404997066027315,0.0
6.515751999999999,0.05404997066027315,0.0
6.518148,0.05404997066027315,0.0
6.520531999999999,0.05404997066027315,0.0
6.522927999999999,0.05313574589053697,0.0
6.525328,0.04807755000110687,0.0
6.527716,0.04329889336539719,0.0
6.530095999999999,0.036518135983270666,0.0
6.532487999999999,0.029877148228004333,0.0
6.534875999999999,0.026169426778933184,0.0
6.537255999999999,0.02581428051663784,0.0
6.539648,0.019452832015091938,0.0
6.542031999999999,0.013882779446464148,0.0
6.544428,0.007381561318058035,0.0
6.546823999999999,0.003534070242126675,0.0
6.549211999999999,0.0018284495394723763,0.0
6.551591999999999,0.0017056207026542986,0.0
6.553996,0.0,0.0
6.556384,0.0,0.0
6.558764,0.0,0.0
6.561159999999999,0.0,0.0
6.563547999999999,0.0,0.0
6.565928,0.0,0.0
6.568332,0.0025442384638155596,0.0
6.570715999999999,0.00667126879346734,0.0
6.5731,0.008935968003562477,0.0
6.575503999999999,0.011480206467378035,0.0
6.577888,0.018028646424027298,0.0
6.580267999999999,0.020433115260982647,0.0
6.582663999999999,0.022837584097937996,0.0
6.585051999999999,0.024031348121394604,0.0
6.587432,0.027366982518128274,0.0
6.589836,0.028560746541584883,0.0
6.592219999999999,0.030825445751680024,0.0
6.5946,0.03350945384235579,0.0
6.597,0.04219976417228212,0.0
6.599387999999999,0.05303194487548551,0.0
6.601768,0.064655521511607,0.0
6.604159999999999,0.07534793258795017,0.0
6.606548,0.09018431478398725,0.0
6.608943999999999,0.10329813548732793,0.0
6.611343999999999,0.11627218656380839,0.0
6.613731999999999,0.12510226652059492,0.0
6.616107999999999,0.12710436726701174,0.0
6.618516,0.12673228021467425,0.0
6.620899999999999,0.1330181217076452,0.0
6.623279999999999,0.1407469854395922,0.0
6.625675999999999,0.13832557581259475,0.0
6.62806,0.13911697174551285,0.0
6.63044,0.1409793028650695,0.0
6.632835999999999,0.1451232739847634,0.0
6.635223999999999,0.144843734731043,0.0
6.637604,0.1456351306639611,0.0
6.639999999999999,0.14414488659674193,0.0
6.642387999999999,0.14502883032827713,0.0
6.644784,0.13669366626064616,0.0
6.647179999999999,0.1262166318197381,0.0
6.649567999999999,0.11494820144591196,0.0
6.651947999999999,0.1075442029380593,0.0
6.654351999999999,0.0979983340569296,0.0
6.656735999999999,0.09110619222827464,0.0
6.659115999999999,0.08249148890692325,0.0
6.661512,0.0801626270785428,0.0
6.663895999999999,0.08439914599685376,0.0
6.666276,0.08942706084808283,0.0
6.66868,0.08751750790028304,0.0
6.671068,0.08095212715359164,0.0
6.673447999999999,0.08346608457920618,0.0
6.675851999999999,0.09077563943057256,0.0
6.678236,0.09594332390866184,0.0
6.680615999999999,0.09910890764033428,0.0
6.683019999999999,0.10441636174528378,0.0
6.685407999999999,0.11037544215629118,0.0
6.687787999999999,0.11656683999277584,0.0
6.690183999999999,0.11777564894840534,0.0
6.692568,0.11982117980732686,0.0
6.694948,0.12633365115216738,0.0
6.697351999999999,0.1445753960060501,0.0
6.699739999999999,0.16807358142090068,0.0
6.702115999999998,0.20627963262136256,0.011582161931356567
6.704519999999999,0.2632449729285126,0.021563868126688857
6.706907999999999,0.3407393856632903,0.030640128873920217
6.709287999999999,0.42647072709347417,0.03982914269783318
6.711691999999999,0.521043401696879,0.04921675878131254
6.714075999999999,0.6333969780189505,0.05835455476109199
6.716455999999999,0.7622754252758159,0.0673350728015644
6.718859999999999,0.9096808442138923,0.07610972341016162
6.721247999999999,1.0656027311010954,0.08491302170433938
6.723628,1.2304131729897623,0.09374003094139051
6.726023999999999,1.4135635951045369,0.10244691054067832
6.728408,1.6154733063259994,0.11099808076601135
6.730787999999999,1.83232509661642,0.11945339394924293
6.733184,2.061744778177044,0.12788284335644165
6.735567999999999,2.3052225950750906,0.1362666092352372
6.737964,2.56820577104237,0.14453807085752643
6.740359999999999,2.8562831952954206,0.15251904580807718
6.742747999999999,3.150880674324789,0.16035078778919476
6.745127999999999,3.4377530813379495,0.16809792108031277
6.747532,3.7204399829767794,0.17576263514349008
6.749915999999999,3.985625522150664,0.1718520685835906
6.752295999999999,4.229118505911664,0.1695830496105281
6.754691999999999,4.450592173177818,0.16830516975423734
6.757076,4.664620307681483,0.1668561405308002
6.759471999999999,4.8670136123325936,0.1651973975271934
6.761868,5.049903453772339,0.1638119554620833
6.764251999999999,5.2238575183823786,0.16249615148478816
6.766632,5.3839404391100985,0.16136363022900485
6.769036,5.532433855955637,0.1602113884268569
6.771424,5.668965681866656,0.15902865888580678
6.773804,5.788880089044262,0.15796820035787817
6.776199999999999,5.891617998981017,0.15706558366741627
6.778587999999999,5.981136391341512,0.1562454072980273
6.780968,6.063022259484415,0.15538341381788104
6.783363999999999,6.133550941170614,0.15454572900393268
6.785751999999999,6.185692420802461,0.1538439716223382
6.788131999999999,6.212322239125825,0.15347825953164831
6.790536,6.22968762367965,0.15324000366513818
6.792919999999999,6.24155856267342,0.1531365171212833
6.795304,6.247842508308523,0.15312879843204108
6.797699999999999,6.253055518756986,0.1531453996134633
6.800084,6.261062025884783,0.15311409987983196
6.802463999999999,6.272001799318776,0.1530236666457803
6.80486,6.280659932752634,0.15299362288442603
6.807248,6.2927631891718825,0.1529192401037291
6.809643999999999,6.308591107830244,0.1527820842011109
6.812035999999999,6.318692263503076,0.15274992295950213
6.814423999999999,6.328653649549048,0.15272727692319818
6.816803999999999,6.338615035595021,0.15270434401201316
6.819208,6.346993629775157,0.1526947307051066
6.821596,6.355139906529814,0.15265700529561393
6.823976,6.366498988844389,0.15254879802377946
6.826379999999999,6.375344113733347,0.15246880550157732
6.828764,6.377671079703858,0.15249495716272504
6.831147999999999,6.376925009741314,0.1525835424869723
6.833544,6.376458479032491,0.15265507986307295
6.835927999999999,6.380647776122558,0.15265066757270437
6.838308,6.3839059076528475,0.15266156949124388
6.840703999999999,6.391587549556552,0.15256903603824906
6.843091999999999,6.404856184818925,0.15238801808089159
6.845488,6.421058086387494,0.15215313284767507
6.847883999999999,6.433535325716951,0.15197662812429077
6.850271999999999,6.448433974673403,0.15173629243591522
6.852651999999999,6.463891702137297,0.15146301251102823
6.855048,6.47441406254858,0.1512821277980016
6.857431999999999,6.482142926280526,0.1511465579492584
6.859812,6.485495501467302,0.15106689732896597
6.862207999999999,6.483540622549128,0.15106045625012243
6.864592,6.485729714750647,0.15096811897777224
6.866987999999999,6.489501598818004,0.15086299780068005
6.869384,6.491783238818141,0.15080719434008963
6.871772,6.486475784713191,0.15087989031471938
6.874151999999999,6.482099496168022,0.1509377882607454
6.876548,6.482798344302324,0.15089481167621274
6.878936,6.489131407623537,0.15071815043003353
6.881316,6.496395636504531,0.1505264930338936
6.883711999999999,6.498631950534294,0.15038938348671615
6.886099999999999,6.497283371951805,0.15030294338648767
6.888496,6.49193059187648,0.15029332411913546
6.890891999999999,6.479640344002128,0.15041292671880635
6.893275999999998,6.46576730426194,0.15054421823079903
6.895655999999999,6.454175904521888,0.15062169454756474
6.898052,6.438720072915863,0.15076721817302893
6.90044,6.423636328362177,0.1509304777228582
6.902819999999998,6.414558886047739,0.15097875523695017
6.905215999999999,6.407763083733442,0.15097172118001015
6.907599999999999,6.409906849964586,0.15079940149327772
6.909996,6.415775278434845,0.15056693177015498
6.912391999999999,6.417499735785413,0.1504201514073057
6.914779999999999,6.422856307576475,0.1501815508691831
6.917159999999999,6.425047295635864,0.14996450147608859
6.919556,6.42965969332225,0.1496819275950726
6.921944,6.432269990262222,0.14943639100984787
6.924323999999999,6.430596546455636,0.1492847823005394
6.92672,6.42384796596958,0.1492317838325717
6.929107999999999,6.417798233617826,0.14913586609245472
6.931503999999999,6.4158452505575205,0.149001442114973
6.9339,6.418687864922968,0.1487859217512077
6.936287999999999,6.42432397596775,0.14852716851332018
6.938668,6.436106158878644,0.14814789396108585
6.941063999999999,6.4450948451102015,0.14780971349419186
6.943451999999999,6.453152365781981,0.14748485796894575
6.945831999999999,6.4660054838795125,0.14707931842731245
6.948227999999999,6.477695118991788,0.14666207425340352
6.950616,6.482866595185616,0.14634734004227526
6.952995999999999,6.486035970633028,0.14607056593198953
6.955395999999999,6.48105717346791,0.14595012155690443
6.957783999999998,6.478080477049211,0.14579310947458238
6.960163999999999,6.47631448544401,0.1456053481674803
6.96256,6.466120781972561,0.14558871694777592
6.964948,6.464307568539116,0.14544572045307855
6.967331999999999,6.463657838090927,0.14531649673497124
6.969728,6.469805805814907,0.14507376906673036
6.972111999999999,6.477955874285304,0.14479436332084594
6.974508,6.4893187483156165,0.14444976447836352
6.976903999999999,6.499982774211628,0.1441483699210503
6.979291999999999,6.508644699361223,0.14388260688882917
6.981672,6.516235689324178,0.14364058715214115
6.984079999999999,6.52145249148838,0.14341507847790416
6.986467999999999,6.5257381280928035,0.1432056384467557
6.988847999999999,6.535051679548456,0.14294845931382677
6.99124,6.548461980295558,0.14265808202672528
6.993627999999999,6.5600099499231055,0.14239709512934534
6.996011999999999,6.573280481043349,0.1421203812264493
6.998408,6.5910670703356224,0.14178685283899492
7.000791999999999,6.610296681866872,0.14145250980094945
7.003176,6.636603530824012,0.1409947598360682
7.005571999999999,6.664121084594649,0.14051556498753986
7.007956,6.689916076872591,0.14005508785491852
7.010339999999999,6.723067845830143,0.1394570117335398
7.012735999999999,6.754077744414418,0.13891045977911473
7.01512,6.78643811743905,0.13832954476099873
7.017515999999999,6.814142662664792,0.1378176904859031
7.019912,6.841475120838195,0.13728881479600416
7.0223,6.864523838265045,0.13684119097814562
7.024683999999999,6.888224181997953,0.13639806477791963
7.02708,6.915137331290778,0.13589695713384956
7.029468,6.941119315023822,0.13540899566992626
7.031848,6.9688238602495645,0.1349060248181241
7.034243999999999,6.991313499168974,0.1344934865729929
7.036631999999999,7.0132912814091855,0.13407285353076037
7.039015999999998,7.033034645477502,0.13365961257026931
7.041411999999999,7.051986613612902,0.1332521868998378
7.043795999999999,7.066654841001747,0.13292191618704982
7.04618,7.079600506897897,0.13260919129160295
7.048584,7.092546172794044,0.13229772549397834
7.050967999999999,7.102279033130277,0.13204535847981316
7.053348,7.109730253466373,0.13184017638065265
7.055743999999999,7.116622395295027,0.13166416883599474
7.058128,7.120161961936907,0.1315526914644621
7.060523999999999,7.1196973270859525,0.13150050861403534
7.06292,7.116019886675082,0.13150397608434466
7.065303999999999,7.113413381450851,0.13148878046542944
7.067687999999999,7.110247797719179,0.1315032222871151
7.070084,7.110946645853479,0.13146612994697934
7.072467999999999,7.110202471748805,0.1314288214935546
7.074864,7.1063852617110745,0.13143921172787643
7.077259999999999,7.107782957979677,0.13136593577444997
7.079644,7.107318323128722,0.1313142039487008
7.082027999999999,7.110997659397461,0.13119717565991768
7.084423999999999,7.116259787532036,0.13107436510082873
7.086808,7.121242376412891,0.13096627942215847
7.089188,7.126876591599803,0.1308625036375689
7.091591999999999,7.134792446786854,0.1307150313681395
7.093979999999998,7.145362029026378,0.13054444766337958
7.096359999999999,7.1559316112659035,0.13037461084872676
7.098756,7.164499092759012,0.13023223910309828
7.101144,7.1710644735057025,0.13011812461044153
7.103527999999999,7.183124299812447,0.12990932415014472
7.105924,7.194392730186275,0.12970348836435924
7.108312,7.209153505373737,0.12943010850093825
7.110691999999999,7.230991517987087,0.12905735949135613
7.113087999999999,7.252689760973581,0.12869421497568095
7.115471999999999,7.274667543213793,0.1283167336824064
7.117868,7.294643224707587,0.12796874339492226
7.120272,7.315270532507439,0.12762460751233456
7.122655999999999,7.338970876240347,0.1272368751794212
7.125036,7.352520946614311,0.1269941565436656
7.12744,7.3679333481078295,0.1267315290386072
7.129828,7.385999476653825,0.12644933440960607
7.132207999999999,7.399549547027789,0.12621062035903002
7.134611999999999,7.4175231277751665,0.12590062404041974
7.136996,7.435776247776266,0.1255784102121011
7.139379999999999,7.458033569270197,0.12520748386735325
7.141776,7.475495293338376,0.12489224726082965
7.144159999999999,7.492445160727359,0.1245671471110787
7.14654,7.514889473676394,0.1241551957049322
7.148935999999999,7.536821929946232,0.12372998151485448
7.151323999999999,7.552608314349959,0.12339135864520867
7.153703999999999,7.569325864313464,0.12304312834076933
7.156099999999999,7.585484335769529,0.12272434774935945
7.158487999999998,7.595776274613201,0.12247735561494652
7.160867999999999,7.601272616031125,0.1222821495705159
7.163271999999999,7.607700123008825,0.12207823923213287
7.165659999999999,7.613476003680467,0.12186979709763948
7.16804,7.61953142360583,0.12164796738242666
7.170435999999999,7.622001950918939,0.1214562961811767
7.172823999999999,7.631689485284796,0.12116567095668024
7.175203999999999,7.639514688531099,0.12089364189174683
7.177607999999999,7.639238940993117,0.12069027690507196
7.179995999999999,7.64310716457483,0.1204304210973637
7.182376,7.639618611476933,0.1202749493015346
7.184771999999999,7.63319679207284,0.12015310565189635
7.187159999999999,7.621979375242995,0.12008249210416885
7.189539999999999,7.613974763973067,0.11996483942126446
7.191936,7.602617577516363,0.1199007217158527
7.194324,7.58883898143266,0.11988021033602764
7.196719999999999,7.578924817214931,0.11981748217400386
7.199116,7.571152523370479,0.11972376668780807
7.201499999999999,7.563659768779748,0.11961647333809623
7.20388,7.5553756182560985,0.11951119260685752
7.206275999999999,7.546951698105589,0.11941248161541183
7.208663999999999,7.54453408019433,0.11924104119732355
7.211043999999999,7.5405336704172345,0.11907364398566246
7.2134399999999985,7.536393491013279,0.11891261915301961
7.215828,7.534907038661799,0.11873284851656049
7.218223999999999,7.536865709295711,0.11853216672797123
7.220628,7.536822279183206,0.11835589029969855
7.223015999999999,7.542785151309952,0.11811073451621062
7.225396,7.553124311981869,0.11783523194153346
7.227791999999999,7.561181832653649,0.11759776318074654
7.230179999999999,7.5745940292586225,0.1172856323697345
7.232559999999999,7.5921501969832885,0.1169214358768948
7.234964,7.609566595081094,0.11656321760288955
7.237352,7.624049726872705,0.11623688717942653
7.239732,7.646029404970786,0.11580850056587093
7.242135999999999,7.665495125643252,0.11539190948613529
7.24452,7.684960846315717,0.11497959865940843
7.246903999999999,7.706568437361461,0.11454118236346778
7.2493,7.72496322284729,0.11414483385274798
7.251688,7.743777317213698,0.11373013659068375
7.254067999999998,7.764221425274186,0.1132755155903665
7.256471999999999,7.782803202215116,0.11283960585578945
7.258856,7.806320346208659,0.11235626283960863
7.261239999999999,7.833050295762117,0.11183294226161289
7.263636,7.856614661583904,0.1113180915463519
7.266024,7.878736005166712,0.11080229800231337
7.2684039999999985,7.899926183189745,0.11029423262803408
7.270799999999999,7.915529367854108,0.10983535688453397
7.273187999999999,7.9331346532648865,0.10935769409632799
7.275571999999999,7.94901737718297,0.10888751959167478
7.277967999999999,7.960756129981356,0.10846600760227236
7.280355999999999,7.9682111420331925,0.10809882063749643
7.282736,7.977947794085164,0.10769930486001575
7.285131999999999,7.989686546883553,0.10727892754002902
7.287519999999999,7.9940685230023325,0.10694678168781506
7.289904,7.999893521360087,0.10661862016356567
7.292299999999999,8.000643383038371,0.10634421569629575
7.294683999999998,7.99603856878346,0.10613591709032995
7.297063999999999,7.997719596021521,0.10585463039746015
7.299463999999999,7.998050148819222,0.10559891291729878
7.3018519999999985,7.996610918295985,0.10538730118433991
7.304231999999999,7.993821213332388,0.10520110684120486
7.306628,7.985816602062459,0.10507442323141158
7.309016,7.975390581165532,0.10498587660052541
7.3113959999999985,7.964265712134304,0.10492776108185696
7.313796,7.94950872866258,0.10492701548496408
7.316184,7.936614076310414,0.10491229765413447
7.3185639999999985,7.918224978398192,0.1049696700371171
7.320967999999999,7.896902614179778,0.10505301278873924
7.323355999999999,7.879444681827335,0.10510214628554389
7.325735999999999,7.864920015781089,0.1051245653991615
7.328139999999999,7.854259781600816,0.10511366934174428
7.330523999999999,7.8421093033533245,0.10513379458761757
7.332903999999999,7.829399746598393,0.10517843320464955
7.335303999999999,7.8206943913362945,0.10518400864164072
7.337688,7.814270676074332,0.10515744285900959
7.340067999999999,7.810919996745427,0.10509847714768292
7.342471999999999,7.811853058163073,0.10498787055965701
7.344859999999999,7.811295875513501,0.10490924126974298
7.347239999999999,7.813671959170125,0.10480505691136408
7.3496359999999985,7.818329682826886,0.10466951532414841
7.352024,7.829133478349758,0.10447215201280906
7.354403999999999,7.83993727387263,0.10427438744407998
7.356803999999999,7.848878738275944,0.10408890878178986
7.359188,7.860893238612315,0.10387242204028738
7.361568,7.878122645255018,0.1035988731967912
7.363968,7.8962832174574995,0.10332103650598
