Time,Force,Position
8.259939999999999,0.007877267231806536,0.0
8.262328000000002,0.011199800178586796,0.0
8.264708,0.009617008312750572,0.0
8.267104000000002,0.01172883644603209,0.0
8.269492000000001,0.011728836446032091,0.0
8.271872,0.011728836446032091,0.0
8.274268000000001,0.011728836446032091,0.0
8.276656000000001,0.009989095365088053,0.0
8.27904,0.008389123911004225,0.0
8.281436000000001,0.008638620924729102,0.0
8.28382,0.008498851297868893,0.0
8.286204,0.00967951387137209,0.0
8.2886,0.013002046818152348,0.0
8.290984,0.016324579764932606,0.0
8.29338,0.022859918271628456,0.0
8.295776000000002,0.026322220845268925,0.0
8.298164000000002,0.03658222159107806,0.0
8.300544,0.04404872565755222,0.0
8.302940000000001,0.052009906814976484,0.0
8.305328000000001,0.0573345405081736,0.0
8.307708,0.0619903683070652,0.0
8.310104,0.0619903683070652,0.0
8.312492,0.06515595203873764,0.0
8.314872,0.06836875759865323,0.0
8.317272,0.07555572241140697,0.0
8.319656,0.08223083054496302,0.0
8.322056000000002,0.08862639942479866,0.0
8.324451999999999,0.09730360830477157,0.0
8.326839999999999,0.10383894681146745,0.0
8.329220000000001,0.11212688905085526,0.0
8.33162,0.11533969461077086,0.0
8.334007999999999,0.12684044241007428,0.0
8.336392000000002,0.12847045610415367,0.0
8.338788,0.1296811609176524,0.0
8.341175999999999,0.12688766423831743,0.0
8.343556000000001,0.1290295346115945,0.0
8.345956,0.11985764864067149,0.0
8.348339999999999,0.11239114457419733,0.0
8.350724000000001,0.10441278382852548,0.0
8.353119999999999,0.09908815013532835,0.0
8.355507999999999,0.09390328606899147,0.0
8.357888,0.09058075312221121,0.0
8.360284000000002,0.08660659386937306,0.0
8.362672000000002,0.08128196017617594,0.0
8.365052,0.07439171420539022,0.0
8.367455999999999,0.06771660607183415,0.0
8.369843999999999,0.0613210371919985,0.0
8.372224000000001,0.052643828312025596,0.0
8.374620000000002,0.04610848980532974,0.0
8.377008000000002,0.03757105055221703,0.0
8.379392000000001,0.03289804316507782,0.0
8.381787999999998,0.020216632792271216,0.0
8.384176000000002,0.015264086151411588,0.0
8.386556,0.010730848391132586,0.0
8.388955999999999,0.006989006563771697,0.0
8.391344000000002,0.0013848336168541656,0.0
8.393724,0.0002967188419680275,0.0
8.396120000000002,0.0002967188419680275,0.0
8.398508000000001,0.0002967188419680275,0.0
8.400892,0.00029671884196802754,0.0
8.403288000000002,0.00029671884196802754,0.0
8.405676000000001,0.00029671884196802754,0.0
8.408071999999999,0.00029671884196802754,0.0
8.410468,0.00029671884196802754,0.0
8.412856,0.0,0.0
8.415236000000002,0.0,0.0
8.417636,0.0,0.0
8.420024,0.0,0.0
8.422403999999998,0.0,0.0
8.4248,0.0,0.0
8.427188,0.0,0.0
8.429571999999999,0.000529036267445297,0.0
8.431968,0.004131108467945975,0.0
8.434356,0.006662245481808123,0.0
8.436736000000002,0.00733105137611363,0.0
8.439136,0.012795454696170949,0.0
8.441524,0.01746846208331016,0.0
8.443904000000002,0.017717959097035035,0.0
8.446308,0.017717959097035035,0.0
8.448696,0.017717959097035038,0.0
8.451075999999999,0.017717959097035038,0.0
8.45348,0.018898621670538233,0.0
8.455868,0.02156952831126059,0.0
8.458248,0.02717370125817812,0.0
8.460644,0.033988579018594395,0.0
8.463028,0.03894112565945402,0.0
8.465411999999999,0.0418915715538968,0.0
8.467808,0.04349154300798063,0.0
8.470196,0.04495174483520424,0.0
8.472579999999999,0.04962475222234345,0.0
8.474976,0.05429775960948266,0.0
8.477364,0.055648234049841615,0.0
8.479744000000002,0.05206334143758854,0.0
8.482144,0.05276218957188959,0.0
8.484532,0.056254534385525606,0.0
8.486911999999998,0.05429965546735191,0.0
8.489308,0.052996402855236116,0.0
8.491696,0.056256430243394856,0.0
8.494076000000002,0.060836889831917006,0.0
8.496471999999999,0.06420664460694041,0.0
8.498859999999999,0.06864733456860236,0.0
8.501256,0.06762362121020699,0.0
8.503652,0.06495271456948463,0.0
8.50604,0.059348541622567086,0.0
8.508424,0.05253366386215082,0.0
8.51082,0.047581117221291186,0.0
8.513204,0.044630671326848406,0.0
8.515588,0.04663277207326526,0.0
8.517984,0.047983246513624206,0.0
8.520372,0.04331023912648499,0.0
8.522756,0.03863723173934578,0.0
8.525152,0.03675772103154153,0.0
8.52754,0.03674054144329393,0.0
8.529919999999999,0.033510556295130736,0.0
8.532316,0.029349405587189216,0.0
8.534704,0.025839881185305596,0.0
8.537084000000002,0.022470126410282187,0.0
8.539484,0.018960602008398567,0.0
8.541872,0.014380142419876413,0.0
8.544251999999998,0.011010387644853006,0.0
8.546648,0.006569697683191064,0.0
8.549031999999999,0.008152489549027284,0.0
8.551428,0.012034101003248384,0.0
8.553828000000001,0.016055482084329692,0.0
8.556216000000001,0.020216632792271212,0.0
8.558596,0.023958474619632103,0.0
8.560992,0.02993473461888711,0.0
8.56338,0.02633266241838643,0.0
8.565764,0.023521986150803864,0.0
8.56816,0.023521986150803864,0.0
8.570544,0.03707406925006093,0.0
8.572928,0.0766949963073725,0.0
8.575324,0.13153754168736226,0.010326538878816046
8.577712,0.19401261128494351,0.02073134530296524
8.580091999999999,0.2680299629364636,0.031102571362963675
8.582488,0.3586175114931516,0.0410983499443842
8.584876,0.4695471410223639,0.05045629588939264
8.587272,0.5982123462998691,0.05937908356383301
8.589668000000001,0.737583111728021,0.0682406347407647
8.592060000000002,0.8865412802919381,0.0772075795408874
8.59444,1.047833126842712,0.08624245063862852
8.596836000000001,1.2269359173521481,0.09501190183555291
8.599224000000001,1.4205614780499616,0.10359561194219016
8.601608,1.6232625852043427,0.1122397368608059
8.604004000000002,1.8419294847860768,0.12078096129347908
8.606392000000001,2.0772138031012215,0.12928211855134158
8.608776,2.327020891604744,0.13770306837633153
8.611168000000001,2.605010548057471,0.1457972977990349
8.613556,2.899481645332488,0.15358659582000833
8.61594,3.2035439374590085,0.1611923910808101
8.618336000000001,3.4957767079789686,0.16877553387349795
8.620724000000001,3.7580762026749,0.17643181288364193
8.623104,4.007528266846908,0.17374067724672276
8.6255,4.254143404227077,0.17088340289639345
8.627888,4.488983942127829,0.1680304945533674
8.630268,4.7040886993917415,0.16557931212909877
8.632664,4.897128814190432,0.16378840326687474
8.635052,5.071222648427332,0.1624668246595335
8.637436,5.235774405498839,0.16122018871382493
8.639832,5.390831307233199,0.15990690876815225
8.64222,5.538861985085652,0.1584487402180528
8.644616000000001,5.667574295323976,0.157285118258367
8.647012000000002,5.7809252176127615,0.15631170395215385
8.649400000000002,5.888226407549792,0.15525136638292775
8.65178,5.974067359499417,0.15441699751097593
8.654176000000001,6.0399855393570965,0.15368753881963312
8.656564000000001,6.089426070108226,0.15301997344586135
8.658948,6.118662393655822,0.15263757665344688
8.661344000000001,6.1314172763811285,0.1525601112627623
8.663732000000001,6.13579166906843,0.15263203731432326
8.666116,6.137000478024059,0.1527314597245679
8.668512000000002,6.141282322912744,0.1527647290924282
8.670900000000001,6.142630901495233,0.1528553019411833
8.67328,6.140207596010368,0.15305594923354826
8.675676000000001,6.141321961309511,0.1532485416482497
8.678064000000001,6.151328673325857,0.15331200648888593
8.680448,6.164640738700736,0.1533399234330718
8.682844000000001,6.180606531128088,0.15332937751712586
8.685232000000001,6.197271171689742,0.15327496089468673
8.687616,6.2171958396395555,0.15310312873275667
8.690012000000001,6.23251190161872,0.152965835728798
8.692400000000001,6.244290292813874,0.15283219146649502
8.69478,6.249038668411383,0.15279262820296868
8.697176,6.251040769157799,0.15275330783972446
8.699564,6.260539416210687,0.1525434263232603
8.701944,6.276835761435742,0.15220719982654676
8.704344,6.291921401847298,0.151903931636623
8.706732,6.306867272631994,0.15161301153616177
8.709128000000002,6.320043360095752,0.15138811053888013
8.711523999999999,6.333451764984986,0.15119355591174194
8.713916,6.352167623979169,0.150927549065669
8.716296000000002,6.373956518906408,0.1506009537317011
8.718691999999999,6.39579263566189,0.1502269671812157
8.721079999999999,6.415673873499199,0.14984490371921375
8.723464000000002,6.431178822791336,0.14952273582713532
8.725859999999999,6.439513986858965,0.14930671931462605
8.728247999999999,6.445102876075504,0.14909015424017438
8.730632000000002,6.446595016000592,0.14891277069814654
8.733028,6.447016220739042,0.14875955449497336
8.735415999999999,6.443945080663855,0.14869355605253728
8.737800000000002,6.43882461801401,0.14871037918340724
8.740196,6.439011609469115,0.1486565727445122
8.742583999999999,6.449720961335499,0.14842417556874823
8.744968000000002,6.4634561273066975,0.14817882725890774
8.747364,6.480776185890149,0.14789121856234813
8.749756,6.495442517421125,0.14764085195206453
8.752136000000002,6.509085135593707,0.1473671418048025
8.754532,6.518631004474837,0.14713017591629865
8.756924,6.5332992318636816,0.14675490580142453
8.759307999999999,6.549737242573466,0.14632050787771042
8.761704,6.560076403245383,0.1459593129557387
8.764092,6.561755534625574,0.1457356322668919
8.766475999999999,6.562735817871465,0.1455528365111856
8.768872,6.56636982816983,0.14533721347512796
8.77126,6.574008039961029,0.14505098055328383
8.773643999999999,6.587373014737759,0.1446774848816358
8.77604,6.600178911007047,0.14433526650611933
8.778428,6.614707368769031,0.1439710593921736
8.780812,6.630306761717655,0.1435871170271157
8.783208,6.647256629106636,0.14316594581644082
8.785596,6.662670926458025,0.14270737007139048
8.78798,6.6711949778386295,0.14232380756296423
8.790376,6.670407373621448,0.14207833550240115
8.792768,6.660959740112545,0.14197403820815346
8.795148,6.644993947685191,0.14196497826559412
8.797548,6.629307694511558,0.14193778418873304
8.799940000000001,6.614784924323182,0.14192468362367958
8.802316,6.603008428985896,0.1419155837496883
8.804712,6.588251445514172,0.14199874361361237
8.807096,6.568559094989837,0.14216431611623506
8.809476000000002,6.5476560396520025,0.14236297387457816
8.81188,6.535413013605894,0.14242350173250962
8.814268,6.525311857933063,0.1424400635373464
8.816647999999999,6.5165611767005895,0.1424168361828141
8.819052000000001,6.5054363076693615,0.14240799039229454
8.821436,6.486722344533048,0.14251256685285352
8.823815999999999,6.469219086210233,0.1425878515650296
8.826216,6.453438389380113,0.1426449475990858
8.8286,6.434305117363218,0.14277562801118318
8.830983999999999,6.4162427805329605,0.14288187291051357
8.83338,6.403208358553934,0.1429411327432427
8.835768,6.397296499971169,0.14295634019221473
8.838147999999999,6.401208153665386,0.14285096277667964
8.840548,6.415270080718546,0.1425636622966358
8.842932,6.4325448133316225,0.14221418246836587
8.845315999999999,6.448049762623761,0.14192738856630813
8.847712,6.464066568595095,0.14165111410188055
8.8501,6.481294079379929,0.14134642655180707
8.852483999999999,6.500710682366283,0.14095796879100703
8.854884,6.522269155725914,0.14052653060812262
8.857272,6.548343687257576,0.14003566051757152
8.859651999999999,6.573579601028077,0.13959852317680707
8.862048,6.600817615544995,0.13913247153534203
8.864436,6.624191198195939,0.13872890138313473
8.866816000000002,6.646074536779665,0.13837064649984473
8.869212,6.670843919841341,0.13800607800314985
8.871599999999999,6.697288642567472,0.13766811203325463
8.873980000000001,6.725083839733962,0.13729661812098934
8.876375999999999,6.752926258728695,0.1368776377651066
8.878763999999999,6.7784870377232895,0.1365117699231347
8.881144,6.802837111904386,0.1361782297824839
8.883548,6.826303242353948,0.13581713835762016
8.885936,6.843018896459583,0.13551875843114952
8.888316000000001,6.854287326833409,0.1352889582545462
8.890724,6.861132246833821,0.13514673503308786
8.893108,6.869048102020872,0.13498421990789403
8.895487999999999,6.879525136461781,0.13475963420600318
8.897888,6.888559148663712,0.1345366696966161
8.900276,6.8928901112385095,0.1344158337575759
8.902655999999999,6.897313621611923,0.13432988429257317
8.905052,6.904251089410952,0.1342252926220004
8.90744,6.911887405344284,0.1340834694057789
8.909820000000002,6.915799059038499,0.13398831895863442
8.91222,6.9214332742254125,0.1338779466940481
8.914608,6.928929820531881,0.13374469026632607
8.916988000000002,6.9351231142262355,0.13360315193255234
8.919388,6.939641068256137,0.13343530402317308
8.921776,6.942948317472538,0.13329507878085256
8.924156000000002,6.95063185523411,0.1331138279494346
8.926552,6.956173522622406,0.13296959720343043
8.928939999999999,6.959713089264286,0.1328557099903843
8.931336,6.962041951092666,0.132768744326574
8.933736000000001,6.9675363966527195,0.13266682407879207
8.936124000000001,6.977267361131084,0.13253238296019756
8.938504,6.989931591915642,0.13235622711525805
8.940907999999999,7.004737693073479,0.13214396250991634
8.943292000000001,7.016982614977459,0.1319924664283492
8.945676,7.030950098374134,0.13182768363094838
8.948072000000002,7.050132488077141,0.13157876067693722
8.950460000000001,7.070293265168169,0.13127949583787596
8.95284,7.088219624087302,0.1309871213482651
8.955240000000002,7.100279450394046,0.1307732547734856
8.957624000000001,7.1149930037532645,0.13053517600616235
8.960008,7.131057031552844,0.13026676788305203
8.962411999999999,7.148471533792781,0.12996848513401263
8.964796000000002,7.16961069827183,0.12962873403024205
8.967176,7.194194985736274,0.12926444364190226
8.969572000000001,7.220129747641076,0.12887171605522374
8.971960000000001,7.242200077679907,0.12852909172404856
8.974344,7.269764853278787,0.12809406152408245
8.976740000000001,7.299611268877806,0.1276175997237678
8.979124,7.327315814103546,0.1271738751271985
8.981504,7.353856876344032,0.12671775509641658
8.983904,7.374950714852708,0.12631719279407252
8.986288,7.395532696682187,0.1259070282965583
8.988672,7.412250246645691,0.1255446243294616
8.991068,7.431528975863054,0.12512878061359575
8.993456,7.447083042841303,0.12475298412631147
8.995835999999999,7.4626371098195525,0.12438211725157784
8.998240000000001,7.4776320982903615,0.12404117246877779
9.000628,7.488622885268337,0.12375205983746822
9.003008,7.505480204858701,0.1233905999341891
9.005404,7.516098904784339,0.12308131744331448
9.007792,7.522713403217143,0.12282510225487002
9.010176,7.525323700157114,0.12262154686154023
9.012572,7.5284930756045245,0.12239190948462414
9.01496,7.526494766573846,0.12219813238575798
9.01734,7.518350385677057,0.12208787981609222
9.019736,7.512627414407265,0.12193114688182159
9.022124,7.50276047201778,0.1218321053916655
9.024508,7.492241903322237,0.12172812488864818
9.026904,7.489219880933164,0.1215129378356215
9.029292,7.484707614476871,0.12133376064799134
9.031688,7.482197448766994,0.12112934423298234
9.034084000000002,7.477685182310701,0.12094943351864713
9.036472000000002,7.473033146227547,0.12077568605452584
9.038856,7.464376908651561,0.12065186283780678
9.041252000000002,7.457862541448851,0.12049586422988749
9.043640000000002,7.441756979394638,0.12044458857469266
9.046024,7.42341699916853,0.12039272589709826
9.048420000000002,7.406939350061978,0.12032278270718885
9.050808000000002,7.386737038716315,0.12028892398915159
9.053192,7.375846382968434,0.12016315199271928
9.055587999999998,7.369891094273164,0.11997807910068756
9.05798,7.365937906324314,0.11976760006892075
9.06036,7.358492373561826,0.11961867645349789
9.062755999999998,7.355143590090789,0.11945211111673122
9.065144000000002,7.356869943299222,0.11921918036584872
9.067524,7.3572458220672985,0.11901645050910357
9.069920000000002,7.354828204156038,0.11883964770697447
9.072308,7.349849406990922,0.11871529254830519
9.074688,7.33551173239978,0.11872021662734497
9.077088000000002,7.321593366689217,0.11870431401308013
9.079476,7.309956640978792,0.11864878470802628
9.081856,7.3019048078806215,0.11856442502361078
9.084252,7.2981367155290044,0.1184171140540396
9.08664,7.297581428737301,0.11822268539001382
9.08902,7.296094976385821,0.11803695084844204
9.091416,7.304479258139565,0.11773492055046854
9.093804,7.314586101386002,0.11742222488075589
9.096188,7.329907850938775,0.11704133355441777
9.098584,7.348162866797742,0.11662810857517873
9.100972,7.3601792629919816,0.11626446627416788
9.103368,7.364606565081134,0.11597518266795954
9.105764,7.369033867170287,0.11568628071949359
9.108152,7.3749514133266585,0.11536174747168018
9.110532,7.3775636061244985,0.11505073817402106
9.112928000000002,7.379663942243139,0.11472874019246716
9.115316000000002,7.380972882428863,0.11440807326012216
9.1177,7.3892192904136165,0.11400928091427996
9.120095999999998,7.402028978398643,0.11353767225323258
9.122484000000002,7.418331011197306,0.11300406534673654
9.124864,7.4352846703020266,0.11247590670741182
9.12726,7.448885754219973,0.11200186160435265
9.129648,7.4609040462720815,0.11153292933319339
9.132028,7.469989072017996,0.11109689199540601
9.134428000000002,7.474790357017355,0.11071918305187735
9.136812,7.481034664255691,0.11034597292734313
9.139196,7.484205935560971,0.11001205451297257
9.141592,7.486026732425893,0.10970581654636505
9.143976,7.481561687797844,0.10948050663781586
9.146376000000002,7.474163376863598,0.10928480342992516
9.148772,7.468487627422049,0.10907979032223852
9.15116,7.467188166525671,0.10884821187259405
9.15354,7.46803057600257,0.10858871748088156
9.155936,7.469524611785528,0.10833552072699901
9.158324,7.473672374620961,0.10806616750907296
9.160704,7.475258958202535,0.10784475479024251
9.163104,7.476985311410971,0.1076164036121363
9.165488000000002,7.47563862868635,0.10742481051300881
9.167872,7.47280170189451,0.10726753604120598
9.170276,7.47541199883448,0.10707428543983559
9.17266,7.479093230961089,0.10686784828415526
9.175044000000002,7.483845398274337,0.10664771512920604
9.17744,7.486595464841167,0.10644809721222036
9.179828,7.489857388087194,0.10626072062678922
9.182212000000002,7.4979149087589745,0.10603100925710704
9.184608,7.5065315079381945,0.10577660620457176
9.186992000000002,7.515939503050333,0.10552238817548432
9.189376,7.52748936853575,0.10524153852305775
9.191771999999998,7.543322974767719,0.10490767388725517
9.194160000000002,7.5628812432388015,0.10454683443393499
9.19654,7.581740663575584,0.10421835990759433
9.19894,7.602462415031922,0.10387723411282102
9.201327999999998,7.619831591301486,0.10358374498774277
9.203708,7.634127731637993,0.10332343010430022
9.206108,7.6494948071611395,0.1030521862064541
9.208495999999998,7.669797249736899,0.10273552863523236
9.210876,7.69368458492491,0.10240086211554475
9.213276,7.718503085672699,0.1020612351925673
9.215660000000002,7.74225065123385,0.10173534886944902
9.218044,7.758129583436194,0.10148219435725522
9.220440000000002,7.776150386011816,0.10120662578988342
9.222828000000002,7.797895850826549,0.10090854396574982
9.225212,7.824017604186455,0.1005924113027489
9.227608000000002,7.853212393479415,0.10024763607927574
9.229996000000002,7.883617887585875,0.09988888593012749
9.232392,7.9136040728117525,0.09955108344028027
9.234788,7.9427988621047145,0.09921472728354852
9.23718,7.971853881770816,0.09888644736134385
9.23956,7.996625160690361,0.09860695324242945
9.24196,8.01939433886349,0.09834686682391178
9.244348,8.043653761103839,0.09805750796692002
9.246732,8.069403427411407,0.09774214359962438
9.249128,8.097015424838531,0.09741527837168787
9.251516,8.130773494131766,0.09703274439001038
9.2539,8.163320858611504,0.09667086641167504
9.256296,8.194937057531462,0.09631887407731297
9.258684,8.222688824585447,0.09599671122985763
9.261068,8.249229886825932,0.09569264340485717
9.263471999999998,8.271906517200446,0.09541409165416741
9.265856,8.299378745000713,0.09510188674709959
9.268236,8.319633965748226,0.09485754814229738
9.270632,8.331880783510075,0.09468042727796472
9.27302,8.342544809406084,0.09450391949380016
9.2754,8.350275568995901,0.09435036898604696
9.277796,8.353070961533106,0.09423542226953942
9.280184,8.353864253323891,0.09413686808002725
9.282564,8.356519876234236,0.09402813224902559
9.28496,8.359455038398298,0.09390841819594266
9.287344,8.36532346686856,0.0937672737908145
9.289724,8.373193996085234,0.09361070282082651
9.292128,8.384277330861828,0.09342371763203133
9.294516,8.392287629705363,0.09326433122968103
