Time,Force,Position
7.650532,0.16468869258171384,0.0
7.65288,0.16026518220829952,0.0
7.655215999999999,0.1569126070215237,0.0
7.65756,0.14676233366257924,0.0
7.659903999999999,0.13427447330372363,0.0
7.662252,0.12164684331800782,0.0
7.664591999999999,0.10901921333229198,0.0
7.666936,0.09359808666724118,0.0
7.66928,0.08017906074860724,0.0
7.671612,0.06890190520325037,0.0
7.673952,0.059962336657804635,0.0
7.676304,0.052093703298997436,0.0
7.678644,0.04608740105974689,0.0
7.680987999999999,0.044085300313330036,0.0
7.683327999999999,0.03887039400699759,0.0
7.685672,0.037939228447219274,0.0
7.688008,0.04073272512655423,0.0
7.690351999999999,0.043805761059609614,0.0
7.692703999999999,0.042874595499831296,0.0
7.695043999999999,0.04715833624638542,0.0
7.697388,0.04836904105988417,0.0
7.699731999999999,0.05116253773921913,0.0
7.70208,0.05502696960519262,0.0
7.704423999999999,0.06382676852377814,0.0
7.706771999999999,0.07403298888249647,0.0
7.709123999999999,0.08316827405457627,0.0
7.711468,0.09537659515971147,0.0
7.713811999999999,0.11359121850409722,0.0
7.71616,0.13045536740812402,0.0
7.718508,0.14624858112551228,0.0
7.720848,0.15798164635029296,0.0
7.723196,0.1685040067615749,0.0
7.725548,0.17995753273263515,0.0
7.727892000000001,0.19155082833055562,0.0
7.730236,0.20435482874197483,0.0
7.732588,0.20915042616772664,0.0
7.734923999999999,0.21059344840670266,0.0
7.737259999999999,0.21203647064567865,0.0
7.739599999999999,0.21734392475062816,0.0
7.741947999999999,0.21743647254924525,0.0
7.744287999999999,0.2175290203478623,0.0
7.746632,0.2160387762806432,0.0
7.748988000000001,0.21347759702678548,0.0
7.751324,0.2102647914668699,0.0
7.753676,0.20477034590681706,0.0
7.756019999999999,0.2002070659065425,0.0
7.758364,0.19042887959993554,0.0
7.760707999999999,0.17221425625554976,0.0
7.763047999999999,0.15535010735152294,0.0
7.765392,0.14091609324602433,0.0
7.76774,0.13206907249919572,0.0
7.77008,0.12415321731214532,0.0
7.772423999999999,0.11316432619203964,0.0
7.774763999999999,0.10096473025843518,0.0
7.777099999999999,0.08717361728746376,0.0
7.779444,0.07831787136910434,0.0
7.781784,0.07147295136869254,0.0
7.784127999999999,0.06289674470405357,0.0
7.786472,0.054460307666274806,0.0
7.788816000000001,0.04709480581513457,0.0
7.79116,0.04080023915063287,0.0
7.793495999999999,0.03529706841904928,0.0
7.795844000000001,0.02979389768746569,0.0
7.798192,0.02401118770216168,0.0
7.800535999999999,0.019299412903496203,0.0
7.80288,0.014727407731690937,0.0
7.805223999999999,0.012297272933162729,0.0
7.807568,0.012297272933162729,0.0
7.809908,0.012297272933162729,0.0
7.812256,0.010938073321273053,0.0
7.814603999999999,0.007856312216686945,0.0
7.816948,0.003983155179182727,0.0
7.819291999999999,0.002251868514955571,0.0
7.821636,0.0006603514775886255,0.0
7.823988,0.0006603514775886255,0.0
7.826331999999999,0.0006603514775886255,0.0
7.82868,0.0,0.0
7.831028,0.0,0.0
7.833368,0.0,0.0
7.835711999999999,0.0009871125595521972,0.0
7.83806,0.000987112559552197,0.0
7.840396,0.000987112559552197,0.0
7.842739999999999,0.001694685865383974,0.0
7.845084,0.004404359917632601,0.0
7.847431999999999,0.004404359917632601,0.0
7.849776,0.007253803596741439,0.0
7.852119999999999,0.010103247275850276,0.0
7.854468000000001,0.010103247275850276,0.0
7.856807999999999,0.010950590208542266,0.0
7.859152,0.010950590208542265,0.0
7.861496000000001,0.010950590208542265,0.0
7.863835999999999,0.011658163514374043,0.0
7.866175999999999,0.01165816351437404,0.0
7.868516,0.01165816351437404,0.0
7.870863999999999,0.01343667200684435,0.0
7.873203999999999,0.017217281245731506,0.0
7.875544,0.020997890484618663,0.0
7.877888,0.022916168603949183,0.0
7.880228000000001,0.026696777842836337,0.0
7.882564,0.02855910896239298,0.0
7.884904000000001,0.03420204932083678,0.0
7.887248,0.03705149299994562,0.0
7.889588,0.037982658559723936,0.0
7.891932000000001,0.03527298450747531,0.0
7.894276,0.03527298450747531,0.0
7.896616,0.03242354082836647,0.0
7.898956,0.029574097149257635,0.0
7.901296,0.029574097149257635,0.0
7.903639999999999,0.028726754216565648,0.0
7.90598,0.028726754216565648,0.0
7.908324,0.028726754216565648,0.0
7.910667999999999,0.02801918091073387,0.0
7.913012,0.02801918091073387,0.0
7.915348,0.028019180910733875,0.0
7.917692000000001,0.026948245724095345,0.0
7.920036,0.023167636485208188,0.0
7.922376,0.019387027246321027,0.0
7.924720000000001,0.017468749126990507,0.0
7.927064,0.01368813988810335,0.0
7.929404,0.010838696208994511,0.0
7.931748000000001,0.0068344947161608095,0.0
7.934092,0.008277516955136819,0.0
7.936436,0.0113505528881922,0.0
7.938779999999999,0.014060226940440826,0.0
7.941124,0.019703167298884626,0.0
7.943464,0.025625646911048846,0.0
7.945807999999999,0.03648349357582509,0.0
7.94814,0.046130635427102586,0.0
7.950488,0.056569173211298195,0.0
7.952831999999999,0.06621631506257569,0.0
7.955176,0.07558391766013275,0.0
7.957516,0.08402035469791154,0.0
7.959859999999999,0.0885923598697168,0.0
7.962199999999999,0.09330413466838228,0.0
7.964535999999999,0.09637717060143768,0.0
7.966884,0.10015777984032484,0.0
7.969232,0.10207605795965535,0.0
7.971576000000001,0.10520504089248459,0.0
7.973924,0.10520504089248463,0.0
7.976267999999999,0.10520504089248463,0.0
7.978607999999999,0.10356630202687452,0.0
7.980952,0.09927383610878966,0.0
7.9833,0.09456206131012419,0.0
7.985647999999999,0.09185238725787556,0.0
7.987983999999999,0.0868244724066465,0.0
7.990328,0.08538145016767049,0.0
7.992675999999999,0.07606979456988727,0.0
7.995016,0.06689790859896427,0.0
7.997356,0.05907649706840023,0.0
7.999751999999999,0.05190671184389409,0.0
8.002136,0.050231372179440806,0.0
8.004524,0.046553931768570665,0.0
8.006928,0.04846348471637046,0.0
8.009316,0.045949527290755916,0.0
8.0117,0.04329580023828117,0.0
8.014096,0.04157323874558474,0.0
8.016484,0.04250440430536306,0.0
8.018868,0.043947426544339065,0.0
8.021264,0.05038176283570098,0.0
8.023652,0.05560539431356415,0.0
8.026036,0.06297089616470439,0.0
8.028432,0.06726336208278923,0.0
8.03082,0.06941395762759701,0.0
8.033208,0.06941395762759703,0.0
8.0356,0.0687989321203823,0.0
8.037988,0.06431947474719409,0.0
8.040372,0.06277328368020105,0.0
8.042768,0.06229802779984654,0.0
8.045156,0.059680901546214984,0.0
8.04754,0.057203544919443614,0.0
8.049936,0.04951128198633981,0.0
8.052324,0.04475228535943118,0.0
8.054712,0.03827072723982613,0.0
8.057108,0.036081635038305915,0.0
8.059496,0.034954752851893506,0.0
8.06188,0.03289670510570278,0.0
8.064276,0.03266249182235626,0.0
8.066664,0.028090486650551,0.0
8.069052,0.02165918795711208,0.0
8.071448,0.022021795720103356,0.0
8.073836,0.03401923333565051,0.0
8.076232,0.07050272304341593,0.0
8.07864,0.12807436368624994,0.01011968213976805
8.081024,0.19514958483776274,0.02042892561213027
8.08342,0.27739920248371064,0.030222906458766324
8.085816,0.3711911021835973,0.04006555666271458
8.0882,0.48416159987075275,0.04929568126952949
8.090608,0.6115623199476684,0.058233248959662295
8.093004,0.7505997657350092,0.0670644986759295
8.095388,0.8987127579789174,0.07598453864645387
8.097783999999999,1.058927110784205,0.0849222439502484
8.100184,1.2324535289643712,0.09380584287363607
8.102568,1.421573652519553,0.10253293837781761
8.104968,1.6240443381063259,0.11115537502993152
8.107368,1.8396034968140305,0.11971302494270712
8.109755999999999,2.0691263472026717,0.12825213394809712
8.112152,2.3111158158913683,0.136679984383497
8.114556,2.5694537850891557,0.14490596483743323
8.116944,2.841104573779637,0.15283122562258286
8.119344,3.1128063760141,0.1605925822835912
8.121736,3.3679852031716377,0.16835547588952823
8.124132,3.6004477615578976,0.17611403711656895
8.126528,3.8082372763968353,0.17387531178817237
8.128916,4.010955446272039,0.17137792907246352
8.131312,4.191469204055163,0.16951731577390014
8.133712,4.3549934560525365,0.16771726929741648
8.136099999999999,4.495754217450389,0.1666014433255796
8.138496,4.620082655712064,0.16583175719880516
8.140892,4.732355059382734,0.16520241469607877
8.143279999999999,4.834201442156478,0.16454016942174116
8.145676,4.925529256234679,0.16383963803035834
8.148076,5.004196631244059,0.1631943345095593
8.150459999999999,5.06312632975873,0.16282782212999833
8.152844,5.105623705137223,0.16265745007919838
8.15524,5.133690858125955,0.16261059172252296
8.157627999999999,5.1466308364484945,0.1625694585841594
8.160008,5.1416954693958825,0.16271068248511975
8.162412,5.128241738536275,0.162888976733166
8.1648,5.10147215058605,0.16336799064999882
8.16718,5.068649038568331,0.16404629250977507
8.169576,5.0400152236406806,0.1647125391147195
8.171964,5.007329985391952,0.16555985205691814
8.174348,4.98274569792751,0.16624933949318682
8.176744,4.959045354194601,0.1669617465004168
8.179128,4.948613645724067,0.16741738274632567
8.181512,4.947353823224456,0.16767663683428913
8.183908,4.951401454829796,0.16783267368109245
8.186296,4.960756540540083,0.16788426915274576
8.188676,4.974395366996925,0.16780921579782782
8.191072,4.994180265319877,0.167568849405181
8.19346,5.013732846217354,0.16729849246468784
8.195844,5.03398427524913,0.16697690444956745
8.19824,5.063454812080073,0.16641001222427385
8.200624,5.097441407083047,0.1657457080292114
8.203008,5.134640807645936,0.16498693433522668
8.205404,5.172444612686641,0.16428082698048602
8.207792,5.215975180712876,0.16344053714436255
8.210176,5.253452224671617,0.16282431047661847
8.212572,5.293023917175391,0.16220431959654633
8.21496,5.332595609679165,0.1615784838177859
8.217344,5.3728661503172415,0.1609083486627217
8.21974,5.423566503567983,0.1599470115539489
8.222128,5.4738947697663844,0.1589783161986677
8.224524,5.520917682606255,0.1580652516020142
8.22692,5.562493371714316,0.15728036783029342
8.229312,5.6015551033967625,0.15654742116643955
8.231692,5.640896374332929,0.15580427477769893
8.234092,5.676932291910562,0.15511198683572797
8.23648,5.7097554039282805,0.1545148255902144
8.238859999999999,5.7385743144531665,0.1540203332686969
8.241252,5.76590298091083,0.15358570149676892
8.243636,5.791881172928138,0.1532011793092913
8.246016,5.812644458639111,0.1529489314959126
8.248408,5.832756118044029,0.15269583801480963
8.250792,5.854730108568502,0.15241530285764035
8.253188,5.88275762316047,0.1519647200328169
8.25558,5.908131410699961,0.15155949583306916
8.257964,5.937044764881333,0.15101287217380874
8.26036,5.966284880144667,0.1504065649633465
8.262756,6.000228045035136,0.14968061409407163
8.26514,6.03151748287313,0.14899772815613713
8.26752,6.057499466606176,0.1484005221403426
8.269928,6.078546083286609,0.14789599720442573
8.272312,6.10066363515368,0.14736813714410546
8.274692,6.1221295607146935,0.14683880293607865
8.277088,6.14252455108907,0.1463361278876799
8.279472,6.1571927784779135,0.14593094162010534
8.281868,6.171069609933841,0.14553120439958703
8.284272,6.18401527582999,0.14514637437413938
8.28666,6.194167445046806,0.14480570591190542
8.28904,6.20501846239792,0.14442070523971698
8.29144,6.215637162323558,0.1440062066709832
8.293828,6.223881674450442,0.14360782213001974
8.296208,6.233197121763963,0.14318755924388446
8.298604,6.237856741278591,0.14284476443968652
8.300988,6.238232620046668,0.14260036840622797
8.303367999999999,6.235535462881688,0.14241661113054505
8.305772,6.226924551276076,0.14238558287804923
8.308159999999999,6.212120345976109,0.14252659943276447
8.31054,6.193823795862506,0.14275154575748736
8.312936,6.175247706495182,0.14299441980576788
8.315324,6.156112538620418,0.14327228968251735
8.317703999999999,6.143775068917821,0.14343044223923906
8.320108,6.134370865521422,0.14353441582722526
8.322492,6.126037597311661,0.1436147484685177
8.324872,6.119054803542258,0.1436541552446886
8.327268,6.11621598089255,0.14361155938243894
8.329652,6.117101820481954,0.14351293282900712
8.332032,6.119477904138579,0.14336593273170983
8.334427999999999,6.127860290034453,0.14311055168170422
8.336816,6.136754532609525,0.14286858596532157
8.339212,6.145741322983214,0.14266452569922697
8.341616,6.158685093021493,0.14243389016576552
8.344,6.171628863059771,0.1422057455496197
8.34638,6.187505899404247,0.14192920483244234
8.348784,6.198447568696109,0.1417363691219174
8.351168,6.21032040354775,0.14152702975933587
8.353552,6.228479079892362,0.14119094152695472
8.355952,6.253762215491105,0.14067474391331494
8.35834,6.280815134410789,0.14009891666861868
8.360724,6.309078758143971,0.13949261103760036
8.363128,6.337202612250292,0.13889241323262247
8.365511999999999,6.3586685378113055,0.13839941206228437
8.367892,6.376409801133206,0.13796626885207677
8.370296,6.394151064455106,0.13753649913070967
8.372684,6.410541853336648,0.13714805314444387
8.375064,6.4294465996438035,0.13674096616621817
8.37746,6.443276209271488,0.13642511844950053
8.379844,6.460178854832228,0.13605944611070464
8.382228,6.473636377407575,0.13573285577295027
8.384624,6.485371338490225,0.13542384260973592
8.387008,6.498317004386373,0.13508666257290783
8.389388,6.511030352857045,0.134723151363548
8.391784,6.5224404487156,0.13435425947554908
8.394172,6.535340788641375,0.13394630079448092
8.396552,6.552105560433123,0.13347867795273777
8.398956,6.573945468904343,0.1329283828005112
8.40134,6.589779075136312,0.1324750105344731
8.40372,6.601468710248589,0.13209654428155523
8.406124,6.608455295733731,0.13182197271451523
8.408508,6.61567419864435,0.1315760090505519
8.410888,6.62168239674147,0.13135626405989564
8.413292,6.634628062637619,0.13103031981880572
8.41568,6.647713498160627,0.13069708195818044
8.41806,6.659867768123858,0.1303771990821198
8.420463999999999,6.6716027292065085,0.13008093781310215
8.422852,6.679613028050046,0.1298329471277171
8.425232,6.689113570960801,0.12953993106425785
8.427636,6.690186402005309,0.12939656520741535
8.430019999999999,6.690700154542375,0.12928509337011285
8.4324,6.694798799691696,0.12913566676415222
8.434796,6.697035113721459,0.1290094815608753
8.43718,6.697129557377946,0.12892218661578017
8.43956,6.695593987340352,0.12888574610379872
8.441956,6.688563971742706,0.12895352351697378
8.444344,6.6813941865182,0.129029058330916
8.446724,6.673944862039973,0.12911837036024665
8.449128,6.673572774987635,0.1290985101910385
8.451512,6.675342558308575,0.129041084404245
8.453892,6.678462816069874,0.12894882540389468
8.456292,6.684843101219331,0.12875867975143046
8.458676,6.6947157311824235,0.12849676592958384
8.461056,6.700723929279544,0.128288600564272
8.46346,6.7076632929364415,0.1280705373769265
8.465848,6.717396153272674,0.1278224246196211
8.468228,6.728759027302987,0.12752663556170982
8.470623999999999,6.740913297266217,0.12722745282825584
8.473012,6.754790128722144,0.12691534901356186
8.475392,6.776023736857681,0.12648314657606255
8.477788,6.795255244246801,0.12607768891533463
8.480176,6.809830923837029,0.1257266246908878
8.482572,6.8242668338003964,0.12538198251099292
8.484968,6.837911347830846,0.1250385383183101
8.487352,6.856119141861571,0.12460935508496485
8.489732,6.875537640705794,0.12415156433397234
8.492128,6.897098009923292,0.12365979460546678
8.494515999999999,6.914002551341903,0.12322253018157489
8.496908,6.922898689774843,0.12290027801639786
8.499304,6.930164814513706,0.12262703302816598
8.501688,6.943297471864957,0.12227941948475557
8.504068,6.949957296268135,0.12208152389516913
8.50646,6.959270847723788,0.12186329149282672
8.508844,6.96816509029886,0.12166739921805478
8.511239999999999,6.974917462500654,0.12150655966539231
8.513644,6.976454928396116,0.12142539366462766
8.516028,6.977992394291579,0.12134468289535653
8.518407999999999,6.976736363507706,0.12129334714879823
8.520804,6.976691037537332,0.1212177055400152
8.523188,6.972641510074124,0.12119568939502168
8.525568,6.97259618410375,0.12112030608241406
8.527972,6.977346455559128,0.12098960826441403
8.530356,6.985169762947562,0.12081601411946113
8.53274,6.999790768508164,0.12056311445280826
8.53514,7.009568954814771,0.120406749989183
8.537528,7.018136436307879,0.12027327909794758
8.539908,7.027495313733906,0.12013941930933866
8.542311999999999,7.0405788533990465,0.11996860978905585
8.5447,7.058597760116798,0.11973535353883095
8.547076,7.078106910901769,0.11946459063262549
8.549472,7.087605557954657,0.11932333198295716
8.551855999999999,7.100084693141981,0.11910484188935781
8.554252,7.107768230903553,0.11894186081742192
8.556648,7.115731307918847,0.11876458099827725
8.559032,7.124485780867058,0.1185846789438847
8.561411999999999,7.137523994561825,0.11833876783593641
8.563816,7.14921173381623,0.11812460803113617
8.566203999999999,7.168628336802584,0.11782365038955091
8.568579999999999,7.184552594975302,0.11758668293142013
8.570976,7.204341285013992,0.11730785352918627
8.57336,7.221476248000209,0.11705047551151933
8.575756,7.236469340613148,0.11682758810732786
8.578148,7.252253829159005,0.1166057661437983
8.580536,7.263242720279111,0.11643720156610941
8.582915999999999,7.275861625093296,0.11622505653451218
8.585316,7.295837306587091,0.11591385158615988
8.587704,7.314230196215049,0.11560935771174005
8.590084,7.3309005243503105,0.11531665273216465
8.592488,7.350783658045488,0.11498299068747037
8.594872,7.371737726927303,0.11463765242246017
8.597252,7.4031216084217855,0.11415925648640154
8.599648,7.4351571162223244,0.11368853063897874
8.602032,7.46919472476928,0.11319625647141288
8.604428,7.503511872569957,0.1126922732754924
8.606831999999999,7.539039725184133,0.1121680597362056
8.609216,7.568980584439639,0.11169114243845119
8.611596,7.600132148508641,0.11119468933275563
8.613999999999999,7.629700920711808,0.11071013029995493
8.616388,7.661970641795693,0.11017175212335967
8.618764,7.689304995826967,0.1096863121303305
8.621164,7.71663934985824,0.10920042884242691
8.623548,7.74038881127726,0.10873721126475598
8.625928,7.758691048964469,0.10831401837839913
8.628332,7.775922351465042,0.10790494350154785
8.63072,7.792082718778975,0.10750996888732081
8.6331,7.803959345346355,0.10717551969733981
8.635496,7.81169200079404,0.10688953471191004
8.637884,7.818353721055088,0.10661733774044112
8.640264,7.820871470196441,0.10639558625729542
8.642668,7.821387118591378,0.10619549395323769
8.645056,7.814406220679844,0.10609040855627001
8.647435999999999,7.807425322768312,0.10598537204153521
8.649832,7.795509057804166,0.10592814630526369
8.652216,7.783453023213159,0.10587681630072879
8.654596,7.774889333435789,0.10577261649355707
8.656996,7.772843802576868,0.10562007738727677
8.659384,7.768796170971529,0.10548752270883688
8.661764,7.75860246750008,0.10542080720836107
8.664164,7.7471980592151315,0.10537287510242627
8.666552,7.734862485370405,0.10533197683587638
8.668932,7.725320408205015,0.10527033594228945
8.671336,7.71764066215918,0.10519496294076285
8.673724,7.710333003165683,0.10513790606927567
8.676104,7.703816740105104,0.10508022560491904
8.678504,7.698371412231163,0.1050091633919277
8.680892,7.684266055065499,0.10501382387093554
8.683272,7.672162798646249,0.10499830946221772
8.685675999999999,7.663132578160056,0.1049483886847795
8.68806,7.649166990621251,0.10494707645024501
8.69044,7.633059532709167,0.10497301195124056
8.692836,7.619373484424082,0.10495875136714318
8.695219999999999,7.601962773899883,0.10497314057590078
8.6976,7.5912099919209926,0.1049308447102987
8.700004,7.580317440315242,0.10489480119457596
8.702388,7.560066011283465,0.10496797513602872
8.704768,7.537952251132133,0.10505331406794803
8.707172,7.519051296540715,0.10509714622997493
8.70956,7.500290111576158,0.10513569389549299
8.71194,7.480457991424962,0.10518748607843888
8.714336,7.468634274259434,0.10515653968078817
8.716724,7.456810557093906,0.1051249361304315
8.719104,7.449270580674932,0.10504005497442966
8.721508,7.449366920189288,0.10485758980633052
8.723892,7.450813734144003,0.10464981908899237
8.726272,7.455193814404912,0.10441716600027202
8.72868,7.473588599890739,0.10404856838938258
8.731064,7.493194090190066,0.10366108982739564
8.733444,7.510797479742974,0.10329522648191407
8.735847999999999,7.536549041908411,0.10284558723732828
8.738232,7.564442474447127,0.10236939331363848
8.740612,7.591125202172342,0.10191274763559946
8.743008,7.621160505084334,0.10141085497842242
8.745396,7.647750685010932,0.10092509650335646
8.747776,7.676342965683948,0.10042289176082685
