Time,Force,Position
8.731399999999999,0.2173829639151096,0.0
8.733787999999999,0.2090950216757218,0.0
8.736168,0.1977340435032786,0.0
8.738563999999998,0.1843577367774647,0.0
8.740948,0.16883955967837366,0.0
8.743331999999999,0.1543923177659212,0.0
8.745735999999999,0.1414013258993986,0.0
8.74812,0.12934149959265434,0.0
8.750499999999999,0.11942354365918713,0.0
8.752896,0.11043675328549825,0.0
8.755284,0.10624556033756119,0.0
8.757664,0.09553620847117589,0.0
8.76006,0.08188036249164152,0.0
8.762448,0.07222871800494086,0.0
8.764828,0.06350823907801853,0.0
8.767232,0.049852393098484195,0.0
8.76962,0.040340518238643756,0.0
8.771999999999998,0.032830744125220156,0.0
8.774396,0.025460739638656776,0.0
8.776784,0.022094936644927097,0.0
8.779167999999999,0.01993983846469616,0.0
8.781564,0.019786841030882074,0.0
8.783947999999999,0.019633843597067987,0.0
8.786344,0.019633843597067987,0.0
8.788739999999999,0.01963384359706799,0.0
8.791127999999999,0.01963384359706799,0.0
8.793508,0.017898054297417684,0.0
8.795912,0.015231099437989054,0.0
8.7983,0.011493209391921895,0.0
8.80068,0.007755319345854737,0.0
8.803075999999999,0.002015328553370728,0.0
8.80546,0.0,0.0
8.807844,0.0,0.0
8.810239999999999,0.0,0.0
8.812628,0.0,0.0
8.815007999999999,0.0,0.0
8.817412,0.0,0.0
8.819799999999999,0.0,0.0
8.82218,0.0026669548594286277,0.0
8.824575999999999,0.005473679345717465,0.0
8.826963999999998,0.007489007899088192,0.0
8.829348,0.00950433645245892,0.0
8.831743999999999,0.01473247056574524,0.0
8.834128,0.01809827355947492,0.0
8.836511999999999,0.02039314136656607,0.0
8.838916,0.020393141366566066,0.0
8.841299999999999,0.02082567805410057,0.0
8.843684,0.022468919555133825,0.0
8.846079999999999,0.022468919555133818,0.0
8.848467999999999,0.02411216105616707,0.0
8.850848,0.024112161056167064,0.0
8.853244,0.024112161056167064,0.0
8.855632,0.024112161056167064,0.0
8.858011999999999,0.024112161056167064,0.0
8.860415999999999,0.024112161056167064,0.0
8.862803999999999,0.024112161056167064,0.0
8.865184,0.024112161056167064,0.0
8.867579999999998,0.024112161056167064,0.0
8.869968,0.02144520619673844,0.0
8.872347999999999,0.018638481710449607,0.0
8.874744,0.01662315315707888,0.0
8.877132,0.014607824603708151,0.0
8.879527999999999,0.009379690490421831,0.0
8.881924,0.006013887496692152,0.0
8.884307999999999,0.0037190196896010035,0.0
8.886692,0.0037190196896010035,0.0
8.889083999999999,0.0032864830020664965,0.0
8.891471999999998,0.0016432415010332482,0.0
8.893851999999999,0.0016432415010332482,0.0
8.896248,0.0,0.0
8.898636,0.0,0.0
8.901031999999999,0.0,0.0
8.903428,0.0,0.0
8.905816,0.0,0.0
8.908195999999998,0.003273255195112619,0.0
8.910592,0.0062669711365048175,0.0
8.912975999999999,0.007118816704619954,0.0
8.91536,0.007118816704619954,0.0
8.917755999999999,0.007411583765294251,0.0
8.920143999999999,0.00784412045282876,0.0
8.922524,0.007844120452828758,0.0
8.924919999999998,0.007844120452828758,0.0
8.927308,0.007844120452828758,0.0
8.929704,0.007844120452828758,0.0
8.932099999999998,0.007844120452828758,0.0
8.934488,0.007844120452828758,0.0
8.936867999999999,0.007844120452828758,0.0
8.939264,0.007844120452828758,0.0
8.941647999999999,0.007844120452828758,0.0
8.944028,0.007844120452828758,0.0
8.946432,0.00784412045282876,0.0
8.94882,0.00784412045282876,0.0
8.9512,0.00784412045282876,0.0
8.953596,0.00784412045282876,0.0
8.955983999999999,0.00457086525771614,0.0
8.958364,0.0015771493163239413,0.0
8.960768,0.0007253037482088037,0.0
8.963156,0.002555536704345413,0.0
8.965535999999998,0.002262769643671116,0.0
8.967932,0.001830232956136609,0.0
8.97032,0.0018302329561366091,0.0
8.9727,0.0018302329561366091,0.0
8.975095999999999,0.0018302329561366091,0.0
8.977483999999999,0.0018302329561366091,0.0
8.97988,0.0018302329561366091,0.0
8.982275999999999,0.0018302329561366091,0.0
8.98466,0.0031013874048323774,0.0
8.987044,0.006095103346224576,0.0
8.98944,0.009088819287616776,0.0
8.991828,0.014084635975425825,0.0
8.994212,0.020151387849873404,0.0
8.996607999999998,0.028360010097598042,0.0
8.998996,0.03470630122576604,0.0
9.001375999999999,0.03891072198065698,0.0
9.003775999999998,0.042975373108687716,0.0
9.00616,0.046108858676940125,0.0
9.008544,0.051244444991609385,0.0
9.01094,0.05068536648416855,0.0
9.013328,0.05395862167928117,0.0
9.015708,0.05723187687439379,0.0
9.018104,0.057571865763311234,0.0
9.020488,0.06149674726448175,0.0
9.022888,0.06905184734827925,0.0
9.025284,0.08233181455973765,0.0
9.027672,0.09560799005545756,0.0
9.030052,0.11856411648555966,0.0
9.032452,0.15500417608082045,0.0
9.03484,0.20308096138650636,0.00982176925603278
9.03722,0.2620030764696993,0.019300489426742264
9.039616,0.32622885394210327,0.02924249527054317
9.042004,0.40264853977450393,0.039086366159686095
9.044384,0.4921932995266797,0.04868733781729318
9.046784,0.6001252613332062,0.057872731213977416
9.049168,0.7224874455294925,0.06691589822160932
9.051552,0.8559272769287634,0.07595071871458282
9.053956,1.0051931311285272,0.08487334346635252
9.056344,1.1682829073823668,0.09366814637063897
9.058724,1.3537640871833911,0.1022004596692101
9.06112,1.5479487263886453,0.110710721022859
9.063508,1.7534905520506043,0.11920176264261076
9.065892,1.9791421412596102,0.1275643361961953
9.068288,2.2133101984177426,0.1359671307748264
9.070676,2.4566029197185553,0.14424385506494586
9.073056,2.7010137980342495,0.15245171686902537
9.075452,2.9554389717977663,0.16040415021913867
9.077839999999998,3.2024658346270383,0.16828693198605268
9.080224,3.4352494665216535,0.1761820032397074
9.08262,3.6609124308778753,0.1741461530420311
9.085007999999998,3.875170986949149,0.17249386170005865
9.087392,4.086035433579011,0.1702440938612657
9.089788,4.286615524796677,0.1679789530216614
9.092175999999998,4.469694253549395,0.16596881931116048
9.094556,4.630381578754931,0.16449992111541767
9.096952,4.777709616757344,0.163201506852665
9.09934,4.912237446064076,0.1619480425905378
9.101736,5.028145755890981,0.16088150543664737
9.104132,5.127948503663673,0.15996373381169632
9.10652,5.209596366807491,0.15933131638526032
9.108899999999998,5.283704253532335,0.15868692218873712
9.111296,5.346827040852811,0.1580843301464531
9.113688,5.388769129439601,0.15770751542644568
9.116068,5.421543123771206,0.15722242368928324
9.118464,5.4404913001908675,0.15689288774195348
9.120852,5.451525517281348,0.15666193479587248
9.123232,5.45348039619952,0.15666714562269862
9.125628,5.453433174371277,0.15672110719224522
9.128016,5.4503601384382225,0.15679956116518112
9.1304,5.437044281347606,0.1570874381011217
9.132796,5.428943330563322,0.15723623042710322
9.135184,5.417163043510298,0.1575524731131826
9.137568,5.402122729069115,0.1580033265234539
9.139964,5.390899624665662,0.15842417283534713
9.142347999999998,5.389779571792912,0.15865490720381184
9.144732,5.397179778585026,0.15871042918989134
9.147128,5.411889540228507,0.15863384985592854
9.149515999999998,5.436190496723491,0.15836217411685807
9.1519,5.45825703504658,0.15810040853434834
9.154296,5.477437528891718,0.15784717162990075
9.156683999999998,5.493731978258904,0.15760866604800294
9.159068,5.512075750200749,0.15727579319365528
9.161464,5.537776298822206,0.15675888237787577
9.163852,5.558029623711851,0.15633977474798047
9.166248,5.582007610840611,0.1558520645553633
9.168648,5.6092909513279015,0.15532404689194138
9.171036,5.635084047747975,0.15485252308918887
9.173416,5.660178296033747,0.1544299146070145
9.175816,5.6887176673049105,0.15395442779261367
9.178204,5.724194506375104,0.15332178222174422
9.180584,5.75194248171335,0.15285391828837708
9.18298,5.7805290748127565,0.15232748053632134
9.185372,5.807812415300048,0.15179334677125347
9.187752,5.829928071309251,0.15133274600419544
9.190152,5.847435121347804,0.15091512030821144
9.19254,5.85255747985552,0.15074714531068395
9.194924,5.8523723842582855,0.15066498257280814
9.197316,5.843527259369327,0.15075461785715075
9.1997,5.838267027092621,0.15078638665912503
9.20208,5.836591687428167,0.15075995191209704
9.204472,5.8331465644427745,0.15080892210225424
9.20686,5.827652118882723,0.1509514883039745
9.209252,5.819596494068812,0.15117325256182737
9.211656,5.815405301120874,0.15131898951311257
9.214044,5.807908754814404,0.15150150612839738
9.21642,5.79938849514954,0.15165830688465845
9.218816,5.7947798891788915,0.15168973904767474
9.2212,5.793151771342681,0.15161363658135144
9.22358,5.79315366720055,0.1514754866968354
9.225988,5.786637404139971,0.15144807211018588
9.228371999999998,5.788269313691919,0.15124825950728493
9.230752,5.787759352870591,0.15109839703108496
9.233156,5.788692414288239,0.15094435510553136
9.23554,5.794421073131639,0.15070081623204035
9.23792,5.79879925753468,0.1505004423322916
9.240324,5.807973039363471,0.15020661882522854
9.242712,5.816587742684822,0.14995027219007478
9.245092,5.831068978618563,0.14957759529190048
9.247484,5.845969523432886,0.14918027652617993
9.249872,5.861149607500929,0.1487676414908653
9.252252,5.87795970526305,0.14828988204486057
9.254656,5.894397715972836,0.1477903114394007
9.257044,5.913396905936478,0.14721858861463646
9.259424,5.930533764780565,0.14668092734768567
9.261819999999998,5.949672724371067,0.14610470681491414
9.264204,5.970534245454266,0.14551375755746618
9.2666,5.991488314336083,0.14497304677694517
9.269004,6.0088102687774025,0.1445342151276232
9.271392,6.023710813591724,0.14416488373819517
9.273768,6.0449897476976355,0.1437008031991541
9.276176,6.062636567363049,0.1433415288322285
9.27856,6.08815202038727,0.14284883011958022
9.28094,6.116088883038489,0.14229673008031204
9.283344,6.147238551249624,0.14168828046063153
9.285728,6.183835443192568,0.14100994022860902
9.288108,6.225647241441844,0.14024021043229395
9.290512,6.272022319691395,0.13937413390847264
9.2929,6.31653506682139,0.13854653877939505
9.29528,6.359697339511025,0.13776297622151681
9.297676,6.402020994439499,0.13703333184339578
9.300059999999998,6.448069311607087,0.13626141808522307
9.30244,6.499192765454148,0.13541407512418635
9.304836,6.546823874487572,0.1346537868336767
9.307224,6.596689401692889,0.13389221614167002
9.3096,6.645716311137045,0.13318314147253532
9.312004,6.691530415021287,0.13253976488404143
9.314392,6.7352498703604935,0.13190194875227274
9.316771999999998,6.7795284042071415,0.13123018378767323
9.31918,6.82380693805379,0.13055976087240045
9.321568,6.863150104847826,0.12996561754695216
9.323944,6.899187918283329,0.12939384846724614
9.326348,6.926845241680827,0.12893718820905822
9.328736,6.954362795451465,0.12849481135383264
9.331112,6.974244033288773,0.12819664860017607
9.33352,6.98946944332719,0.12795741564183816
9.335904,6.997477846312857,0.1278370485605082
9.338288,7.0004111126190525,0.12779618537329898
9.340692,7.003064839671527,0.12777078960612256
9.343076,7.007441128216698,0.12773129499212907
9.345456,7.013447430455948,0.12764361505198318
9.347855999999998,7.013587200082809,0.1276361111453146
9.35024,7.005998105977722,0.12772905977740673
9.35262,6.996826220006799,0.12782899606261697
9.355016,6.984069441423624,0.12796459782219416
9.357404,6.970149179855191,0.1280844084465399
9.359784,6.959721263100395,0.12813359404023533
9.36218,6.947151475972323,0.1282184428434738
9.364567999999998,6.936955876643005,0.12829313767350495
9.366948,6.924478637313549,0.12841209138702162
9.369352,6.917356073917287,0.12844040299811724
9.371736,6.911164676080802,0.1284584848013054
9.374116,6.908278631602851,0.12845628370803722
9.37652,6.9032507167516215,0.12848997323206976
9.378908,6.9034377082067255,0.12844093120540429
9.381288,6.904555865221607,0.12838116464053922
9.383688,6.907955662236625,0.12827723163188126
9.386072,6.913357559998061,0.12814442921470365
9.388452,6.914895025893523,0.12806167944616323
9.390848,6.915920635109789,0.12796766228578305
9.393236,6.914012978019858,0.1279131177145288
9.395616,6.9171804576093985,0.12778350751495737
9.398012,6.9257951609307495,0.1275981109109475
9.4004,6.937203360931437,0.12738092346089674
9.402784,6.952336223171237,0.1271214835170134
9.40518,6.968120711717095,0.1268662353487115
9.407564,6.979761229143259,0.12667696334019118
9.409948,6.9909824376888405,0.12650901432620226
9.412344,7.0042057469808405,0.12631546010984968
9.414727999999998,7.019850465899838,0.12607056728075372
9.417124,7.034424249632197,0.12584704073484132
9.41952,7.0523506085513326,0.1255651197722669
9.421907999999998,7.065900678925296,0.12531885286392846
9.424288,7.082663554859175,0.12502268485622808
9.426692,7.098495265233275,0.12473880881292916
9.42908,7.117539781167291,0.12440619261785163
9.43146,7.137795001914805,0.12405115571419026
9.433856,7.156187891542764,0.12371620744988526
9.436244,7.177653817103778,0.12333524391264188
9.438628,7.196698333037794,0.12300328873956891
9.441024,7.217744949718226,0.1226453286401707
9.443412,7.234927134532685,0.12233569002537228
9.445792,7.2485244267348925,0.12205896937727545
9.448188,7.260259387817543,0.12180184433264679
9.450576,7.271482492220995,0.12153494668675799
9.452956,7.282985135878168,0.12125423243281075
9.455352,7.296629649908616,0.12094080076675373
9.45774,7.310693472819647,0.12060473753913904
9.460136,7.319310071998869,0.1203200777480944
9.462532,7.327786901551228,0.12004288325463199
9.46492,7.333330464797393,0.11980161145782284
9.4673,7.3344505176701436,0.11963295656140258
9.469696,7.338364067222231,0.11943563609037819
9.472084,7.338273415281482,0.11929029976536391
9.474464,7.3365999714748975,0.11914949765925645
9.47686,7.331062095802341,0.11905249872515207
9.479247999999998,7.328317716809118,0.11892875861582031
9.481628,7.326784042629395,0.11878216689534074
9.484032,7.326461073263171,0.11861318204336704
9.48642,7.327488578337305,0.11841448667919069
9.488804,7.3286558530383,0.11820969936698436
9.4912,7.331033832552792,0.11798237748937189
9.493588,7.335413912813701,0.11773095625684304
9.495972,7.340725158634388,0.1174706151384552
9.498368,7.346967570014855,0.11720342784459702
9.500756,7.354001377328239,0.11693520745614622
9.503132,7.358241687962289,0.11669261971532129
9.505528,7.362761537850059,0.11643606828718572
9.507912,7.367933014043886,0.11618363982860755
9.510307999999998,7.375386130237851,0.11589510182942535
9.512712,7.382979016058676,0.11559923191845976
9.515096,7.393924477066279,0.11525041004183707
9.517475999999998,7.4091536788204335,0.11484434401177021
9.519868,7.422520549455031,0.11445283918796623
9.522252,7.437609981582328,0.11405233189628082
9.524648,7.452699413709623,0.11365133030023827
9.527044,7.460851378037887,0.11333023306454863
9.529428,7.468863572739294,0.11301656479681876
9.531808,7.481019738560394,0.11265467539268913
9.534199999999998,7.492244738821716,0.1123009531886485
9.536584,7.499465537590202,0.11199230066723471
9.53898,7.50682610598555,0.11167783901275237
9.541376,7.513535048074841,0.1113592012440113
9.543764,7.520523529417852,0.11102777936241967
9.546144,7.52271641333511,0.11074221417033646
9.548536,7.522535109453614,0.1104601254656183
9.550923999999998,7.525147302251453,0.11015459051953468
9.55332,7.530552991728627,0.10982686054950659
9.555724,7.541313357138995,0.10943027651594163
9.558108,7.5480695210565285,0.10907794033346602
9.560488,7.556688016093617,0.1087110994715914
9.562892,7.566377446317346,0.10833297894746158
9.565276,7.5716433661676605,0.1080190766734238
9.567656,7.580773717883948,0.1076690900101422
9.57006,7.5889729040404585,0.10732739618248664
9.572444,7.597963486129885,0.10698483367082161
9.574824,7.60802500340595,0.1066261135949778
9.57722,7.6190176862417935,0.10626130163136487
9.579608,7.618369851651474,0.10604037605508028
9.581988,7.62065528336735,0.1057919799505292
9.584392,7.626665377322339,0.1055143596215664
9.58678,7.62997452239661,0.10528935647849791
9.58916,7.632724588963442,0.10509047390644469
9.591564,7.63612628183633,0.10489788451050326
9.593948,7.6459063640008065,0.10466277780225702
9.596328,7.658991799523815,0.10441947849930958
9.598719999999998,7.669004199113767,0.10420995900176654
9.601108,7.679016598703721,0.1040025517807228
9.603488,7.680741056054286,0.10388859292760202
9.60588,7.686050406017106,0.10375380166510602
9.608268,7.691499525606783,0.103613448358042
9.61066,7.694667005196326,0.10350609469945685
9.613055999999998,7.698114024039588,0.10338625433898481
9.615444,7.701421273255989,0.1032731737250696
9.617824,7.706590853591949,0.1031475541944558
9.620216,7.712831369114546,0.1030096107122836
9.622604,7.725869582809312,0.10281536851666359
9.625,7.737836861317441,0.10263442261582661
9.6274,7.760233952438233,0.10233920553430202
9.629788,7.779418237999109,0.10208287836484356
9.632164,7.797811127627067,0.10182776562413594
9.634572,7.822629628374857,0.10149932258687899
9.636956,7.84665673318973,0.10117069188431982
9.639335999999998,7.8708236076314595,0.1008378268668717
9.64174,7.889543258341383,0.10053788440666729
9.644127999999998,7.906400577931748,0.10025160347863313
9.646508,7.926191163828308,0.09994051689771831
9.648908,7.942908713791813,0.09966120544547223
9.651296,7.964701400434791,0.09933174963083435
9.653676,7.9857026911448505,0.09900463449893712
9.656072,8.003351406668132,0.09871987147349097
9.65846,8.021931287751196,0.09842991685114544
9.66084,8.039580003274478,0.09814626316277174
9.663244,8.055506157305066,0.09786908419456536
9.665628,8.068499045029458,0.09761671850860502
9.668008,8.079350062380572,0.09738853806263811
9.670412,8.085545251932796,0.09719182180980424
9.672796,8.092811376671657,0.0969838968763546
9.67518,8.095933530290825,0.09681801598332072
9.677584,8.101197554283269,0.09662910587900887
9.679968,8.106321808648854,0.09644631515620875
9.682348,8.106510695961827,0.09630413732945442
9.68474,8.108841453648076,0.0961393120109472
9.687128,8.113314081707601,0.0959530928741637
9.689508,8.118578105700047,0.09576673932026343
9.691912,8.124121668946213,0.09556900713232486
9.694296,8.127942670699682,0.09537643580388676
9.696676,8.134557169132487,0.0951681662640081
9.69908,8.140240502005511,0.09496581996445733
9.701467999999998,8.14271102931862,0.09479663159444177
9.703848,8.148534131818506,0.09458817001603628
9.706244,8.151703507265918,0.09438976678786995
9.708628,8.156083587526828,0.09417458313431845
9.711008,8.16432809965371,0.09393366620032445
9.713412,8.175785417340508,0.09366079390518776
9.715796,8.189524375027444,0.09336074282619453
9.718176,8.202052627900882,0.09307749528181399
9.72058,8.213789484841401,0.09279466603085137
9.722964,8.225945650662501,0.09249530096721487
9.725344,8.236379254990903,0.09220090400250076
9.727748,8.248023564132806,0.09189102005136934
9.730136,8.261250665140544,0.09158289934265948
9.732516,8.274477766148282,0.09127648691074514
9.73492,8.282489960849688,0.09101791618154056
9.737304,8.29357519148415,0.09073437886983755
9.739684,8.303589486931973,0.09046149513072758
9.742088,8.31774775349949,0.09015444706166706
9.744472,8.327389961894974,0.08986529692962109
9.746856,8.338103105477101,0.08956683929174199
9.74926,8.355381629805915,0.08920312614671255
9.751644,8.373591319694508,0.08883741815318091
9.754024,8.395944980702795,0.08843840808131642
9.756428,8.416808397643864,0.0880663058469585
9.758812,8.43273644753232,0.08772871770793426
9.761192,8.44438075667422,0.08743140200447694
9.763596,8.455093900256347,0.08713956857263215
9.765984,8.46608658309219,0.08683645839826465
9.768364,8.477870661860951,0.08653553403371013
9.770768,8.489235431749133,0.08625165772366236
9.773152,8.501531367197094,0.08596390559604446
9.775531999999998,8.510754266711999,0.08569984894870392
9.777928,8.518534143987926,0.0854280924094896
9.780316,8.524032381263716,0.08518132077241404
9.782696,8.530741323353007,0.08491867927545078
9.7851,8.537450265442297,0.0846578403416254
9.787484,8.5478838697707,0.08438173549197096
9.789864,8.553102567792772,0.08414829942472186
9.792268,8.564187798427232,0.0838806800953972
9.794656,8.571129057942,0.0836447837908108
9.797036,8.572715641523576,0.08345661886176177
9.799432,8.573231289918512,0.08327845986110839
9.80182,8.567181557566757,0.08316038992296781
9.8042,8.561551134095584,0.08302601566871257
9.806596,8.557922811370826,0.08287834943076275
9.808984,8.55857822939262,0.08269408383324126
9.811364,8.558954108160696,0.08252063990150321
