Time,Force,Position
10.689888000000002,0.14254944587813795,0.0
10.692272,0.13754967740903518,0.0
10.694652,0.13054780819351552,0.0
10.697048,0.12305126188704583,0.0
10.699432,0.11404729192510936,0.0
10.701828,0.10785399823075544,0.0
10.704224000000002,0.10194024379012194,0.0
10.706612000000002,0.09774905084218488,0.0
10.708992,0.09970392976035856,0.0
10.711388,0.10594254942508638,0.0
10.713776,0.10538347091764556,0.0
10.716156,0.10775765871639988,0.0
10.718552,0.10985230726143379,0.0
10.72094,0.11273835173938582,0.0
10.723336000000002,0.11162019472450414,0.0
10.72574,0.10621829696306831,0.0
10.728128,0.10281849994804935,0.0
10.730508,0.10449383961250265,0.0
10.732912,0.11152385521014857,0.0
10.735296,0.12213876342004759,0.0
10.737676,0.1328934412568068,0.0
10.740072,0.14487600349531235,0.0
10.742456,0.15820904017417686,0.0
10.744836,0.16775301319743732,0.0
10.747232,0.17694207875660792,0.0
10.749619999999998,0.17931626655536226,0.0
10.752,0.18234208066017452,0.0
10.754392,0.1755272028997582,0.0
10.75678,0.1678908869664283,0.0
10.759176000000002,0.157181535100043,0.0
10.761572,0.1549924428985228,0.0
10.763956,0.15415382513736153,0.0
10.766336,0.15131310662978342,0.0
10.76874,0.14903146662964611,0.0
10.771128,0.14861215774906553,0.0
10.773508,0.147541222562427,0.0
10.775904,0.14968309293570406,0.0
10.778292,0.1502421714431449,0.0
10.780672,0.14879914920416887,0.0
10.783076,0.1477754358457735,0.0
10.78546,0.14596032655446,0.0
10.787844000000002,0.14642685726328378,0.0
10.790244,0.14433220871824987,0.0
10.792632,0.14680084017349052,0.0
10.795012000000002,0.15299413386784444,0.0
10.797408,0.16412279461481036,0.0
10.799796,0.17217841942872095,0.0
10.802176,0.18821240498830336,0.0
10.80458,0.19906152648154887,0.0
10.806968,0.21056227428085228,0.0
10.809348000000002,0.21261159685551229,0.0
10.811744,0.21102880498967605,0.0
10.814132,0.21023740905675795,0.0
10.816516000000002,0.2058138986833436,0.0
10.818912,0.20139038830992925,0.0
10.821295999999998,0.19775827386943304,0.0
10.823676,0.19091335386902122,0.0
10.82608,0.1819566057353279,0.0
10.828468,0.17192892241499608,0.0
10.830848,0.16083030390802566,0.0
10.833244,0.15052308133397335,0.0
10.835632,0.13807398838664403,0.0
10.838012,0.12683560025281346,0.0
10.840408000000002,0.11438650730548408,0.0
10.842796000000002,0.09900414805195956,0.0
10.845192,0.08362178879843504,0.0
10.847588,0.06945013435840927,0.0
10.849976,0.053416148798826855,0.0
10.852356,0.04284656655930175,0.0
10.85476,0.03590909876027288,0.0
10.857148,0.032836062827217495,0.0
10.859528,0.0323242061480198,0.0
10.861932,0.034373528722679805,0.0
10.86432,0.03670239055106023,0.0
10.8667,0.03437542458054905,0.0
10.869096,0.035121494543093254,0.0
10.871484,0.03600733413249767,0.0
10.873864,0.037654527414824654,0.0
10.876268,0.03765452741482465,0.0
10.878656,0.03765452741482465,0.0
10.881036,0.039022181443431204,0.0
10.883439999999998,0.039022181443431204,0.0
10.885828000000002,0.04118123140495588,0.0
10.888208,0.04240911580670222,0.0
10.890612,0.04240911580670223,0.0
10.893,0.044707935395087106,0.0
10.895384000000002,0.044707935395087106,0.0
10.89778,0.044707935395087106,0.0
10.900168,0.04324773356786349,0.0
10.902544,0.038434956553864065,0.0
10.904940000000002,0.03522215099394847,0.0
10.907328,0.03012983472622863,0.0
10.909708,0.02275587845837152,0.0
10.912112,0.01738402293693126,0.0
10.914496000000002,0.017476570735548317,0.0
10.916876,0.014775621854830416,0.0
10.91928,0.014588630399727054,0.0
10.921664000000002,0.016636057116517812,0.0
10.924044,0.021167399018927568,0.0
10.92644,0.028490341742803037,0.0
10.928824,0.033977203871378925,0.0
10.931204,0.047765396111851766,0.0
10.933608,0.06828309339226403,0.0
10.935996,0.10942241089892105,0.01150333376824213
10.938376,0.16193609445053042,0.022570692001415153
10.940772,0.22364791449731983,0.0330707948169898
10.943156,0.29645456133534115,0.0436307525771678
10.94554,0.38308513022743856,0.05385560339866537
10.947944,0.48381916042733253,0.06377595265158015
10.950328,0.6001468960022421,0.07330288992121345
10.952708,0.7302360480726064,0.08251202600131932
10.955104,0.8730028188000387,0.09163499956574606
10.957492,1.025868849342434,0.10086187012797158
10.959872,1.1984253345512956,0.10977144592555596
10.962268,1.3856271799871474,0.11850577000889417
10.964656,1.5905646011712913,0.12703629751874077
10.967035999999998,1.8084892225062197,0.13543039115052238
10.96944,2.0392612743650718,0.14375384781258532
10.971824,2.2859084667105294,0.1519027679595278
10.974204,2.5422866235343506,0.1599103550200821
10.9766,2.8076062447614873,0.16778836863447166
10.978988,3.070927556957945,0.17555403174849626
10.981384,3.328852658966575,0.18321647047210352
10.98378,3.5638745007488226,0.17945865403960579
10.986168,3.793777775739094,0.17607055971562774
10.988548,4.014837821698275,0.17320772764396675
10.990944,4.231385601201162,0.1701792223653627
10.993332,4.430384796410861,0.16755276449448092
10.995712,4.612067724752847,0.16531167915076114
10.998108,4.776806473279458,0.16351119670265069
11.000496,4.921760323483118,0.1621690653912609
11.002876,5.053494656110515,0.16095210936941456
11.005272,5.176200664109589,0.15960243428170356
11.007656,5.277214116695778,0.15861762380915473
11.010052,5.3604919935336754,0.15785800757527385
11.012448,5.424404280929201,0.15738254020771406
11.014836,5.472396101867745,0.157094806443304
11.017216,5.503723282244637,0.15692701258171313
11.019612,5.514753707619379,0.1570046778452698
11.022,5.513913194000349,0.15722477842439486
11.02438,5.506461973664253,0.15753344083001392
11.026784,5.494075386275545,0.1579544537359979
11.029172,5.480198554819618,0.15842757737087693
11.031552,5.471955938550605,0.15873562841329344
11.033948,5.460687508176779,0.15906063592512554
11.036336,5.446346041869897,0.15945896819571004
11.038716,5.427301525935881,0.15999454752620232
11.041112,5.4145428514948355,0.16037252571100566
11.0435,5.406207687427205,0.1606300773736139
11.045896,5.400293932986571,0.1608114522630056
11.048292000000002,5.405042308584079,0.16076258481821745
11.050676,5.41486582086106,0.16059384829409326
11.053056,5.42590003795154,0.16039003487521442
11.055459999999998,5.4353514631761835,0.16019825000124932
11.057848000000002,5.446153362841185,0.15995652260286236
11.060228,5.459516441760045,0.15962459148530048
11.062624,5.472088124745988,0.15929649347760783
11.065012,5.4882447003441825,0.1589013239239896
11.067392,5.509057103741268,0.15840771896456082
11.069788,5.529357650459157,0.15790316034960641
11.072176,5.550449593109963,0.15739732224855763
11.074556,5.573124327626607,0.15687661348271253
11.07696,5.591794860650416,0.1564511353270745
11.079348,5.605390256994753,0.15615027947219753
11.081728,5.614841682219396,0.15595416161226222
11.084124,5.6256435818843995,0.15570881821473462
11.086512,5.636725020803122,0.15544198785664473
11.088892,5.648038777147324,0.15521271579356505
11.091288,5.658141828678024,0.15502299929410132
11.093676,5.668105110581865,0.15484479909902396
11.096072,5.671969542447839,0.15476394279355227
11.098468,5.672900708007617,0.15474651384603255
11.100856,5.671550233567258,0.15479298386133344
11.103236,5.674855586925791,0.15475281230131144
11.105636,5.679231875470963,0.1546857991044045
11.108020000000002,5.684399559949052,0.1546116244553949
11.1104,5.6965047122261705,0.15438943796866209
11.112796,5.710751734876565,0.15411770500851868
11.115184,5.729422267900375,0.1537401239223635
11.117564,5.748232570551044,0.15335426826549076
11.119967999999998,5.76466868540296,0.15299261124526967
11.122352,5.782455274695234,0.1525918284344215
11.124732,5.803314899920563,0.1521232351477101
11.127135999999998,5.826968021825229,0.15160313334925524
11.129524000000002,5.854393027797252,0.15096882969295333
11.131904,5.880607328955774,0.15037004098435006
11.134303999999998,5.909103270114434,0.1497149882878221
11.136692000000002,5.935085253847479,0.14909558039999843
11.139072,5.9625574816477425,0.1484273244666476
11.141476,5.9845824857161976,0.14783870775562455
11.143864,6.004745158665095,0.1472770638080707
11.146244,6.0209036301211585,0.14679512010471454
11.148648,6.036130936017445,0.14632817461463477
11.151032,6.05256894672723,0.1458314338657438
11.153412,6.067563935198039,0.14534040249738897
11.155812,6.081767527735929,0.14485742118804573
11.158195999999998,6.090104587661429,0.14449103672599928
11.16058,6.099372813146707,0.1441157739932028
11.162976,6.100353096392599,0.1439173931530234
11.165360000000002,6.097468947772516,0.14378734609864127
11.16774,6.094305259898713,0.14367539151337266
11.170140000000002,6.089139471278493,0.14360250717042078
11.172524,6.087326257845047,0.1434500887515905
11.174904,6.085652814038465,0.14328883242901239
11.177304,6.081697730231742,0.14318290840031403
11.179688,6.079232890492239,0.14302745304869477
11.182087999999998,6.077419677058796,0.14287626456860944
11.184484,6.075047385117911,0.14275998847717541
11.186872,6.07025368355003,0.14270655951710942
11.189252000000002,6.074911407206789,0.1425046055057606
11.191648,6.085667980901418,0.14223136807156647
11.194036,6.101499691275518,0.1418609903656313
11.196416,6.120124898328953,0.14144953034557603
11.198811999999998,6.140612436501945,0.14101897752082238
11.201204,6.159190421727137,0.14065970678455683
11.203584,6.17641793251197,0.14033890909377475
11.205979999999998,6.194716378483442,0.13999439355846513
11.208367999999998,6.206217126282746,0.13976526490045665
11.210748,6.220651140388245,0.13948419244363566
11.213152,6.244536579718387,0.13905891824602137
11.215535999999998,6.269213414981447,0.1386292410821595
11.21792,6.291236523192033,0.1382315689108669
11.220324,6.3057630850961495,0.1379922978165428
11.222708,6.3220122084929615,0.13773660856383488
11.225091999999998,6.338353879688391,0.13751757171141626
11.227488,6.3525536805105425,0.13734341770577918
11.229872,6.36409975428022,0.13720297224334133
11.232256,6.377136072117116,0.13701551741287557
11.234648000000002,6.393245425887067,0.13677205534980866
11.237036000000002,6.405490347791048,0.13659415284854523
11.239427999999998,6.415500851523131,0.13642410068738187
11.241824,6.42392856338938,0.136264509483543
11.244212,6.432775584136209,0.13608232118872246
11.246592,6.434545367457149,0.1360208092199716
11.248996,6.441949365965002,0.13584028840888318
11.251384,6.45349733559255,0.13558657472398608
11.253764,6.463322743727399,0.13534857633115
11.256168,6.477943749288,0.13503980609158586
11.258556,6.494427085968159,0.13470825940021364
11.260936,6.505975055595704,0.1344591649602266
11.263336,6.515660694103694,0.13423388267971942
11.265724,6.529862390783715,0.13395700853797587
11.268108,6.54806828895657,0.1336135836468659
11.270511999999998,6.5639925471292875,0.13331983753712323
11.272896,6.582757523809583,0.13294704827363116
11.275276,6.602453666049658,0.132561286482701
11.277672,6.621358412356813,0.1321796460515711
11.28006,6.640123389037109,0.13180869456525193
11.28244,6.657677660903906,0.13146866300660215
11.284836,6.67108796165101,0.1311983664485041
11.287224,6.681285456838198,0.13098739902431758
11.289604,6.692925974264362,0.13077807447473067
11.292008,6.702145082063528,0.13062519272062215
11.294396,6.715368391355527,0.1304085157148639
11.296776,6.725239125460752,0.1302606977193038
11.299180000000002,6.734318463633058,0.13011882165038466
11.301568,6.7521976007239495,0.12985517858515852
11.303948,6.7662123059488675,0.12964437470311252
11.306344,6.777153975240729,0.12948303261633695
11.308732,6.783439816733701,0.12937678422985321
11.311112,6.792147067853669,0.12921730561075587
11.313508,6.799271527107801,0.1290663498361163
11.315896,6.806675525615654,0.12890096373731735
11.318276,6.817711638564002,0.12865854440229169
11.320672,6.825814485206156,0.1284574565914691
11.323056,6.837130137408225,0.1282033360295334
11.325436000000002,6.846955545543075,0.1279886873188138
11.327832,6.856641184051065,0.12778261586142511
11.330215999999998,6.865535426626137,0.12758024372672036
11.332612,6.88057574106732,0.1272838456623352
11.335008,6.903903997747891,0.12686193026352996
11.337396,6.924578527375987,0.12646525328326075
11.339776,6.944741200324883,0.12605612946285083
11.342176,6.95996850622117,0.12571228059267628
11.344564,6.976406516930954,0.12534412168306663
11.346944,6.986838225401488,0.12506051933851028
11.34934,6.985257329393521,0.1249485511523829
11.351728,6.985538764505111,0.12481532210948793
11.354112,6.98595996924356,0.12467417875504583
11.356508,6.993318641781039,0.12443640162738799
11.358896,6.999466609505021,0.12422505627922452
11.361275999999998,7.001470606109306,0.12407775170416671
11.363672,7.0002617971536765,0.12398448901101547
11.366056,6.994629477824632,0.12397073238977543
11.368452,6.98764668405523,0.12399022488005902
11.370848,6.975728523233215,0.1240765373655082
11.373236,6.967162937597975,0.124101640148453
11.375616,6.9570145600969004,0.12413244116559138
11.378012,6.944864081849409,0.12419205382054266
11.380396,6.928988941362803,0.12429216141265569
11.382792,6.902963527517253,0.12453866037578824
11.385188,6.8806627759108165,0.12474210027256226
11.387576,6.8630178521032725,0.12489213314126002
11.389956,6.85631459758759,0.12489380571086908
11.392352,6.846538307138853,0.12494002084472731
11.39474,6.842768318929365,0.12490439078887497
11.39712,6.848077668892184,0.1247416787583104
11.399524,6.854597723668501,0.12455475579821598
11.401908,6.862188713631457,0.12435024137632401
11.404292,6.868429229154054,0.12417968467508114
11.406688,6.877463241355987,0.12398108039232486
11.409072,6.893714260610669,0.12367935271692505
11.411456,6.913317855052126,0.12331940252488133
11.41386,6.936413794307219,0.12289593662985392
11.416244,6.9624429998685065,0.12243495447830915
11.418624,6.989123831735854,0.12197585372615836
11.421028000000002,7.016735829162977,0.12151147026074134
11.423416,7.045139222523019,0.12104481534551702
11.425796,7.0746135510697,0.12055852961734351
11.4282,7.107021145922576,0.1200391066180841
11.430587999999998,7.140499675962091,0.11949404855254397
11.432968,7.173466349322409,0.11894504889526754
11.435364000000002,7.200706259697196,0.11846433697784546
11.437748,7.216213104847202,0.11812905148078104
11.440132,7.234653216303403,0.11775785228064181
11.442536,7.252301931826688,0.11739229361528371
11.444920000000002,7.267296920297496,0.11705220709209671
11.4473,7.28536494470136,0.1166757507544774
11.449696,7.304643673918724,0.11627816960725822
11.452084,7.322479380897111,0.11587958863362198
11.454464,7.337801130449883,0.11549636590782816
11.45686,7.346325181830487,0.11518891676875767
11.459248,7.354849233211089,0.11488327335890831
11.461628,7.357366982352444,0.11464860026635915
11.464028,7.360583579628098,0.11438087085846041
11.466412,7.368503226530885,0.11403377905555978
11.468808,7.376702412687395,0.11367615506576714
11.471203999999998,7.385972534030542,0.11330470493571461
11.473592000000002,7.398455460933605,0.11289048373654847
11.475972,7.408936287090252,0.11250101020603137
11.478368,7.426773889926508,0.11201835066506763
11.480756,7.437534255336875,0.11161605243385113
11.483136,7.451367656680297,0.11117697101726441
11.485536000000002,7.472138525822748,0.11066114179119498
11.487924,7.490255667912725,0.1101622939498753
11.4903,7.507301874816062,0.10968000520566867
11.4927,7.519924571345987,0.10926147473415047
11.495084,7.5246786345171035,0.10892590086340737
11.497468,7.529432697688219,0.10859188855587841
11.499864,7.532976056045837,0.108278684845462
11.502252,7.536379644776595,0.10797252796094188
11.504648,7.542297190932967,0.10765567034655217
11.507044,7.547143801902699,0.10735398282900388
11.509432,7.556646240671324,0.10701323090191533
11.511812,7.562796104253175,0.1067220034409896
11.514212,7.566245018954306,0.10648735782080415
11.516596000000002,7.563547861789325,0.10632315108156427
11.51898,7.560990474251207,0.10615279057729207
11.521375999999998,7.5582933170862265,0.10598972608833167
11.523764000000002,7.556527325481025,0.10581972680162231
11.526144,7.551268989062188,0.10570379308447819
11.52854,7.555601847494855,0.10550530772574632
11.530928,7.557653065927385,0.10534011754447177
11.533308,7.557562413986636,0.10520203827926225
11.535704,7.559985719471503,0.10505596917527034
11.538092,7.558125284209816,0.10496248983546178
11.540476,7.559337884881184,0.10483487479890605
11.542872,7.564135378164805,0.10468488390553739
11.545256,7.566511461821428,0.104574962335998
11.547656000000002,7.567956379918275,0.10447171379940534
11.550052,7.567259427641844,0.10439541458729404
11.55244,7.569775280925327,0.10427899470400283
11.55482,7.57322229976859,0.10415596512811252
11.557224,7.577740253798488,0.10402035268987146
11.559612,7.587984970813919,0.1038380776297626
11.561991999999998,7.596646895963515,0.10365686150748456
11.564388,7.6111753537255,0.10342157209412231
11.566776,7.6235619411142075,0.1032132882104298
11.569156,7.634737823689416,0.10302606008652278
11.571552,7.64284067033157,0.10287154027155519
11.57394,7.649872581787085,0.10273038160989567
11.576324,7.649315399137514,0.10264904972450767
11.57872,7.652902187607635,0.10252289014045045
11.581104000000002,7.657420141637535,0.10239051028349146
11.583484,7.661286469361379,0.102252385118947
11.585883999999998,7.677584710444302,0.10198280071417905
11.588272000000002,7.6960248219005045,0.10168979515820072
11.590652,7.716746573356843,0.10136730327651912
11.593048,7.740960669626817,0.1009964830933855
11.595436,7.7690391977627655,0.10059539393100972
11.59782,7.799259596271992,0.10016865164908519
11.600216,7.826686498101883,0.09976445699436878
11.602604,7.8518317599316365,0.09939121247526111
11.605,7.8719018850819165,0.09906664014486607
11.607396,7.886385016873527,0.09878032935936523
11.609784,7.901519774971196,0.0985000715468487
11.612164000000002,7.917445929001784,0.09822264810774116
11.61456,7.935374183778787,0.09792781806413153
11.616948,7.953721747436372,0.09761679022846334
11.619328,7.97607351258679,0.09727068150184141
11.621724,7.99763388180429,0.09692405677867255
11.624111999999998,8.021056582141346,0.09656380498864457
11.626492,8.04061485061243,0.09623532155438515
11.628896,8.060452658337233,0.09589669279656386
11.631284,8.07828836531562,0.09557517227726346
11.633664,8.082900763002007,0.09537786971841349
11.63606,8.085511059941977,0.0951985812320487
11.638448,8.084908551322032,0.09505415993837886
11.640828,8.084166273075226,0.09491642684482524
11.643232,8.080490728522225,0.09480102695923734
11.645616,8.080539846208337,0.09466469255988677
11.647996,8.081240590200508,0.09453496523647771
11.6504,8.08236064307326,0.09438744571211037
11.652788,8.087904206319426,0.09418918522651075
11.655168000000002,8.101176633297538,0.09393901182976425
11.657564,8.11486836915623,0.09367184687355776
11.659952,8.12497521240267,0.0934207472880322
11.662332,8.135873451582027,0.09317168582364725
11.664727999999998,8.144210511507527,0.09296185813677019
11.667115999999998,8.147891743634137,0.092777392011903
11.669512,8.152643910947384,0.09258207755955969
11.671908,8.158327243820409,0.09238160472913261
11.674296,8.163591267812853,0.09219796324948434
11.676676,8.1676445869918,0.09203134249299488
11.679072,8.177843978036856,0.09181291284275724
11.68146,8.196982937627359,0.09152690484103161
11.683840000000002,8.216121897217862,0.09124162508400561
11.686244,8.237542496808501,0.09092992597411195
11.688628,8.254958894906308,0.09064996615759022
11.691012,8.275308559310309,0.09035069854072936
11.693408,8.288069129609223,0.09009626176501485
11.695796,8.300038303975219,0.08984169102989638
11.698175999999998,8.314800975020551,0.0895737394744327
11.700572,8.328073401998664,0.08933403398545067
11.70296,8.33226649080447,0.08916565283962949
11.70534,8.337250975543194,0.08899876250715016
11.70774,8.342095690655057,0.08883723326388877
11.710128,8.343355513154668,0.08868859191687017
11.712508,8.34382393972136,0.0885383872238617
11.714908,8.348668654833224,0.0883762644927645
11.717296,8.355375701064645,0.08820567121315528
11.719676000000002,8.365435322482844,0.0880004294428224
11.72208,8.378195892781758,0.0877532611316674
11.724468,8.390165067147755,0.08750501957012118
11.726848,8.39691933520742,0.08730258271337625
