Time,Force,Position
13.213024,0.007174102161005813,0.0
13.215412,0.011427800667564391,0.0
13.217792,0.012748232867927797,0.0
13.220196,0.012748232867927799,0.0
13.222584,0.012748232867927799,0.0
13.224964000000002,0.012748232867927799,0.0
13.227368,0.012748232867927799,0.0
13.229756,0.012748232867927799,0.0
13.232136,0.012748232867927799,0.0
13.234536,0.012748232867927799,0.0
13.236924,0.012748232867927799,0.0
13.239304,0.012748232867927799,0.0
13.2417,0.012748232867927799,0.0
13.244088,0.012748232867927799,0.0
13.246467999999998,0.013696578015953727,0.0
13.248864,0.015715858350618186,0.0
13.251252,0.019877009058559707,0.0
13.253632,0.022036059020084375,0.0
13.256032,0.021803741594607105,0.0
13.258416,0.019569323422712986,0.0
13.2608,0.015315624916154406,0.0
13.263196,0.011061926409595826,0.0
13.265584,0.010038213051200446,0.0
13.267964,0.014478903012862386,0.0
13.270359999999998,0.021061463347801387,0.0
13.272747999999998,0.027504254055880178,0.0
13.275132,0.03301587920418064,0.0
13.277527999999998,0.03945866991225944,0.0
13.279915999999998,0.046041230247198445,0.0
13.282308,0.0547656609554145,0.0
13.284704,0.06349009166363058,0.0
13.287092,0.07021242162542979,0.0
13.289472000000002,0.0737219460273134,0.0
13.291876,0.07522936968278017,0.0
13.294264,0.07751100968291745,0.0
13.296644,0.07765077930977765,0.0
13.29904,0.07443797374986205,0.0
13.301428,0.07387889524242121,0.0
13.303807999999998,0.07518214785453702,0.0
13.306208,0.0750251986394292,0.0
13.308592,0.0750251986394292,0.0
13.310975999999998,0.07862727083992989,0.0
13.313372,0.08058214975810359,0.0
13.31576,0.07839305755658336,0.0
13.31814,0.07219976386222944,0.0
13.320536,0.06614623979473573,0.0
13.322924,0.061023881287020354,0.0
13.325308,0.058043393152582036,0.0
13.327704,0.05585430095106183,0.0
13.330092,0.050452403189626016,0.0
13.332476000000002,0.04826331098810581,0.0
13.334872,0.04979888102569888,0.0
13.33726,0.055618191809846076,0.0
13.339656,0.06465030815390886,0.0
13.342056,0.07116846707235712,0.0
13.344444,0.0788973308043041,0.0
13.346824,0.09118947453652562,0.0
13.34922,0.1011074304699928,0.0
13.351608,0.11302748714987684,0.0
13.353992,0.12840984640340136,0.0
13.356388,0.14165033528364884,0.0
13.35878,0.14611917162743704,0.0
13.36116,0.1566377403229805,0.0
13.363563999999998,0.17678903812466304,0.0
13.365951999999998,0.22128472253383435,0.00926222064285755
13.368332,0.2947352953790122,0.017106063010127678
13.370736,0.3887149406518178,0.024479951538657722
13.373119999999998,0.4886970964481354,0.03210883042451652
13.375504,0.5979398942982547,0.04011391622583174
13.3779,0.7297119694645491,0.04803023413974865
13.380287999999998,0.882011221200602,0.055765170961334654
13.382668,1.0545600061105622,0.06325850770293716
13.385064000000002,1.2401885389699234,0.07071749009047529
13.387452,1.442434490562696,0.07812705362222294
13.389832,1.6604120212994753,0.08568351626535013
13.392228,1.900406972673232,0.09317518975292152
13.394616,2.1532946805412867,0.10064009399783366
13.397,2.417539574866046,0.10815773571267509
13.399396,2.6889504626995735,0.11580474974373847
13.401784,2.9735789722514925,0.12354218589805317
13.404164,3.2874419094931384,0.1311248112176095
13.406564,3.626399095020556,0.1385511153996531
13.408952,3.9653128504354687,0.14591085217800043
13.411328,4.295991573012844,0.15319306090694848
13.413732,4.596925907079165,0.1512683361028698
13.41612,4.8566604308055,0.15094943505953626
13.418504,5.087857479118541,0.1512517129122749
13.4209,5.307837110601737,0.1513465936488627
13.423288,5.516181912232377,0.15107009221954826
13.425668,5.69897162244203,0.1509253376574347
13.428064,5.853645061976837,0.15102393480236076
13.430452,5.983552910165706,0.15141300005497285
13.432836,6.097819831151316,0.15188928918974479
13.435232,6.18611045597749,0.1525987966674082
13.43762,6.259460897592573,0.15316140503369208
13.44,6.30930367450346,0.1538350372786125
13.442396,6.349791365704058,0.15443250120620589
13.44478,6.381807914925904,0.15498901877641497
13.447159999999998,6.405959622504682,0.15541868152864732
13.44956,6.416102312432148,0.15573172442167169
13.451944,6.394124530191936,0.15626592594140096
13.45434,6.349428583322577,0.15700928910620476
13.456740000000002,6.301939139773883,0.15778388483676004
13.459124,6.253703626262644,0.15863715623520236
13.461508,6.214872316147806,0.15938179448895395
13.463904,6.19215035980292,0.15986174920190038
13.466292,6.185258217974266,0.16007852133553335
13.468672,6.185675630996975,0.16017894989648834
13.471068,6.1912607284977765,0.16021285462493026
13.473456,6.20666933827556,0.16010547420407192
13.475836,6.224172596598374,0.15999094625038987
13.478243999999998,6.2409770067868875,0.15991549025764978
13.480628,6.264858654401292,0.1596964444502222
13.483012,6.302615237613754,0.15919768216871558
13.485408,6.339720194520157,0.15869689494111563
13.487796,6.37915401325494,0.1580926298002266
13.490176,6.407321297473767,0.15764658270686338
13.492572,6.435907890573175,0.1571763423025865
13.494964,6.460909591060329,0.15675749162285038
13.497344,6.486330600428064,0.15631711793122444
13.499744000000002,6.520643956513001,0.15574503709704773
13.502132,6.55947337076997,0.1551001204764739
13.504516,6.600257663945112,0.15446935937716147
13.506912000000002,6.644626849732508,0.15379307116323424
13.5093,6.6907185970126015,0.15310894643379921
13.511684,6.732945912426722,0.15250205976001158
13.514080000000002,6.76656042037736,0.1520125610115368
13.516468,6.793936308663268,0.1516128944886075
13.518852,6.821451966576038,0.1512144667950573
13.521248000000002,6.838724803331245,0.1509724881892135
13.523636000000002,6.8620511641539474,0.1505818277586225
13.52602,6.891011740163562,0.15006213714246516
13.528415999999998,6.909310186135034,0.14972122782330938
13.530804000000002,6.9270495535990655,0.14942129764071332
13.533184,6.948513583302209,0.14906996681342774
13.535583999999998,6.967136894497776,0.1488012227932104
13.537972000000002,6.98599252311882,0.14855188821143633
13.540352,7.008293274725256,0.14826809374224983
13.542751999999998,7.041256156369835,0.14781801033224634
13.545136,7.074870664320473,0.14737667171217037
13.547516,7.099825142979385,0.14706908641284896
13.549916,7.125990326451794,0.14673728975504902
13.5523,7.150340400632893,0.14639514560265177
13.554684,7.166449754402845,0.1461607801237987
13.55708,7.176972114814129,0.14600484280449685
13.559468,7.1864707618670165,0.14582875980259122
13.561852,7.194898473733264,0.14567215145871165
13.564256,7.205700373398269,0.14549958893692574
13.566643999999998,7.212870158622774,0.14541258455962422
13.569024,7.228560203512146,0.14520293511504143
13.571420000000002,7.236474162841327,0.14515164656239335
13.573808,7.238242050304398,0.14520739226206883
13.576192,7.249321593365251,0.14513419861615642
13.578588000000002,7.255233451948016,0.14511594282066226
13.580979999999998,7.26370648978464,0.14503718788599307
13.58336,7.277534203554457,0.14486057187693582
13.58576,7.295505888443968,0.14460926594189571
13.588148,7.310451759228666,0.14437407084952733
13.590528,7.318367614415717,0.144218024467896
13.592928,7.323769512177152,0.14408375139348864
13.595316,7.335876560312141,0.14381956864937584
13.5977,7.344910572514072,0.14360672218010426
13.600096,7.352454340648783,0.14343544910678332
13.602484,7.372802109194918,0.14308010130003962
13.604864,7.39929594960716,0.14263060677297276
13.607259999999998,7.42574256819116,0.14221860934335354
13.609647999999998,7.454842913827635,0.14177799314690107
13.612028,7.486364669091105,0.14129052823284205
13.614424,7.5217980780487945,0.14071704772385316
13.616812,7.552343341782114,0.14018160442684616
13.619204000000002,7.5866604895827905,0.1395583961838188
13.6216,7.628706501115414,0.13882964440082865
13.623988,7.668098785595564,0.138135337115215
13.626368,7.708981314142931,0.1374052085631801
13.628776,7.737571698958077,0.13686420781866113
13.63116,7.759736472653391,0.13643256727379582
13.633544,7.785206599707237,0.1359806913615262
13.635936,7.811048813813423,0.1355495628991302
13.638324,7.838473819785447,0.13511556515472886
13.640704,7.865339747250029,0.13470855739163737
13.6431,7.8909477480728665,0.13436637723974923
13.645488,7.91906970632132,0.13400738174895505
13.647868,7.948542139010135,0.1336189848417979
13.650263999999998,7.967771750541384,0.13335110148522097
13.652652000000002,7.979132728713826,0.13318600986663262
13.655032,7.992775346886407,0.13298069844779176
13.657428,8.006278195432126,0.13278243965171535
13.659820000000002,8.01898964804493,0.1325904739975041
13.662216,8.027836668791757,0.1324465003988058
13.664616,8.039290194762819,0.1323164391511003
13.667,8.051348125211694,0.1322258700121541
13.669384,8.06326628603371,0.13214363480910085
13.67178,8.075743525363166,0.13203659881831137
13.674168,8.085939124692487,0.13196829297691515
13.676548,8.10479475331353,0.13180008562977524
13.678944,8.127375044173686,0.1315921875913056
13.681332,8.146929520929033,0.13139197737797192
13.683716,8.165600053952843,0.13116772812059693
13.686112,8.180173837685201,0.13096632138908026
13.688496,8.197960426977474,0.1307186334491461
13.690876,8.215235159590552,0.13046143304671465
13.693272,8.231346409218373,0.13019275547902517
13.695659999999998,8.247876967726773,0.12990759685849054
13.698056,8.26706125328765,0.1296017743758095
13.700452,8.28969066183392,0.12927006126627963
13.70284,8.310690056686111,0.12897954695064695
13.70522,8.335181796351936,0.1286334284598823
13.707616,8.356228413032369,0.12831301645650584
13.710004,8.376623403406745,0.12798973941494587
13.712383999999998,8.393433501168868,0.12769583155390868
13.714784,8.410430590386094,0.12736142219714797
13.717172,8.424541635125367,0.12702802768240742
13.719551999999998,8.436138722439026,0.12670999417432938
13.721948,8.446804644192907,0.12639960151594254
13.724336,8.45574800445409,0.12610177869064967
13.726719999999998,8.4632483424763,0.1258029756714841
13.729116,8.473030320498644,0.12547005499984465
13.7315,8.480810197774574,0.1251612663428423
13.733884000000002,8.489613788408898,0.1248717600188802
13.73628,8.498137839789502,0.12459651777961336
13.738668,8.507593056729883,0.12431345377855761
13.741064,8.51453431624465,0.12404368596935403
13.74346,8.516540208706806,0.12382795697265962
13.745848,8.51868587079582,0.12360693613427982
13.748232,8.521111072138558,0.12337392138250546
13.750628,8.524794200123035,0.1230866886278949
13.753016,8.523030104375703,0.12284363223367104
13.7554,8.521405778255229,0.12259425611160285
13.7578,8.519501912881038,0.12235657949099682
13.760184,8.518948521947205,0.12209198372141074
13.762568,8.516113491013236,0.12186145455815553
13.764964,8.512579611944965,0.12166117610154835
13.767352,8.511559690302308,0.12144900410351364
13.769736,8.516406301272042,0.12117748881517902
13.772132,8.523394782615052,0.12087938122044399
13.774516,8.530243494331202,0.1205867598484704
13.7769,8.533599861233718,0.12034835803480885
13.779296,8.534674588136095,0.12014272783080694
13.781684,8.535377227986132,0.119920918618043
13.784064,8.529701478544583,0.1197480148219941
13.78646,8.519369901304142,0.11961451811390451
13.788848,8.503404108876788,0.11956377701214643
13.791227999999998,8.490371582755627,0.11948244113287035
13.793628,8.474266020701412,0.11943744992849338
13.796012,8.458951854580116,0.11939002353989979
13.798396,8.446943041817352,0.1193276312685949
13.800792,8.435306316106924,0.11928134153794426
13.80318,8.426043778195252,0.1192289987629112
13.805576,8.418643571403136,0.11916066062397271
13.807972,8.413897091663495,0.1190746632922584
13.81036,8.416088079722883,0.11891663055801796
13.812744,8.417767211103072,0.11874830329571943
13.81514,8.415442140990429,0.1186228671152685
13.817528,8.407669847145977,0.11853748233007216
13.819908,8.39454287736833,0.11851981070539173
13.822304,8.3834180083371,0.11848073342586535
13.824696,8.372572678559592,0.11842970671103818
13.827076,8.366662715834696,0.11832859656650868
13.829472,8.362475314602499,0.11821816886087969
13.83186,8.364806072288747,0.11805429358158323
13.83424,8.375005463333801,0.11781229216295824
13.836636,8.397496998111079,0.11743093902437374
13.839024,8.421059468074997,0.11703780729123778
13.841408,8.444482168412053,0.11664831613443084
13.843808,8.468184408002829,0.11624908717678903
13.846196,8.48415778386166,0.11592271997389346
13.84858,8.499479533414432,0.11559076059694795
13.850976,8.511076620728089,0.11528916970629481
13.853364,8.52174254248197,0.11499599923477108
13.855744,8.529614967556517,0.11472596723951098
13.858144,8.53255202557845,0.1145065105914338
13.860532,8.536280479533303,0.11428569806983196
13.862912,8.54429267423471,0.11401271941843481
13.865308,8.55439951748115,0.11374739788689744
13.8677,8.567579396660644,0.11344732027173476
13.87008,8.579828110280362,0.1131554737759701
13.872483999999998,8.594078924646494,0.11284402905421492
13.874872000000002,8.60860927826635,0.11252362984435277
13.877252,8.621277300766646,0.11221794406747929
13.879648,8.633293696960886,0.1119097441634635
13.882036,8.640514495729374,0.11164381466028549
13.884416,8.645733193751443,0.11140045114360791
13.886816,8.652953992519933,0.11113999593675154
13.889204,8.665529467221614,0.11081953289695454
13.891584,8.675963071550017,0.11052383941997491
13.89398,8.689981568490673,0.11020613766530798
13.896368,8.708795662857082,0.10985141239057736
13.898748,8.731334419462604,0.10947104401657115
13.901144,8.754804341627903,0.10908560064287251
13.903532,8.779996825285899,0.1086935181369929
13.905916,8.8010453378242,0.10834211928030966
13.908316,8.822233619989365,0.1079860470705868
13.910704,8.842350966967887,0.10764485915174622
13.913084,8.860094126147658,0.10730563830376301
13.915484,8.880118925327563,0.10693888147234622
13.917872,8.899212558947692,0.10657862276202433
13.920256,8.916164322194543,0.10624273158682526
13.92266,8.930182819135199,0.10593256299766216
13.925048,8.944992712008776,0.10562174497401064
13.927428,8.95845213044199,0.10533480638724227
13.929823999999998,8.972423405554405,0.10505833876364332
13.932212000000002,8.982390479173986,0.10481869330304863
13.934596,8.989936143166567,0.10461458140680775
13.936991999999998,8.99613133271879,0.1044344851250082
13.939376,9.00432862301743,0.10423745408820871
13.94176,9.01294522219665,0.10402439838544805
13.944156,9.0164866846964,0.10385710545076594
13.946544,9.017514189770534,0.1036966865709114
13.948924,9.01761052928489,0.10354228568840629
13.95132,9.017986408052964,0.10337757443429765
13.953708,9.025579293873788,0.10314627575491231
13.956092,9.033823806000672,0.10292065627096839
13.958488,9.038715742940779,0.10273323484808965
13.960872,9.044538845440664,0.10253973577011706
13.963268,9.046078207193997,0.10239038836251066
13.965668,9.050411065626664,0.10222460715061482
13.968056,9.057537420738663,0.10204246766755064
13.970436,9.068108898836059,0.10184968142372482
13.972832,9.078540607306593,0.10166230518166111
13.975219999999998,9.090834646896685,0.1014646828706313
13.9776,9.105270556860052,0.10124637010679939
13.980004,9.122220424249035,0.10102292034338058
13.982392,9.140241226824656,0.10078994631847513
13.984775999999998,9.158122259773416,0.10056397403087296
13.987172,9.177074227908816,0.10032920796139527
13.98956,9.198540153469828,0.10009080090222802
13.99194,9.223870510896814,0.0998265900538922
13.994336,9.250923429816497,0.09955812017511542
13.996724,9.27862797504224,0.09929563274581675
13.999108,9.304190649894704,0.09905447697542086
14.001504,9.325469584000615,0.09885563867857923
14.003892,9.345537813293026,0.09867243783989704
14.006272,9.367747912958716,0.0984682039585397
14.008667999999998,9.393682674863518,0.09824506586480279
14.011055999999998,9.422690472701376,0.09799652720377328
14.01344,9.449696169792816,0.09776450622806716
14.015835999999998,9.474048139831783,0.09754322568331378
14.01822,9.493604512444996,0.09735233366669205
14.0206,9.51451135949857,0.09714195471339951
14.023,9.532764479499669,0.09694195122256713
14.025384,9.54915526838121,0.09675275267148944
14.027780000000002,9.561961164650498,0.09657801115553459
14.030176,9.570251002747755,0.09642245466107759
14.032564,9.572674308232623,0.09630576701382201
14.034947999999998,9.572164347411293,0.096208856393631
14.037344,9.566207162858156,0.09613572207615158
14.039732,9.55852741681232,0.09606710172136164
14.042115999999998,9.54870580039321,0.09601797752474987
14.044512,9.535439060988702,0.09597772568497212
14.046904,9.52231209121106,0.09593228990022395
14.049283999999998,9.511326991806694,0.09586714916134942
14.05168,9.498898870163348,0.09579631303128748
14.054068,9.487681453333503,0.09571045438530171
14.056451999999998,9.47567264057074,0.09562415772857916
14.058848,9.464874532621478,0.09552308908589137
14.061236,9.454355963925936,0.09541191129619864
14.063619999999998,9.448772762283005,0.0952682263946144
14.066016,9.448264697319544,0.09508738412437832
14.068404,9.448687797915863,0.09490277141429906
14.070788,9.447108797765765,0.09473134634345551
14.073184,9.44459863205589,0.09456426414466677
14.075576,9.445161502279069,0.09437395545415007
14.077956,9.448657638808443,0.09416503460971838
14.080352,9.459650321644288,0.09389074058034236
14.08274,9.47171393966677,0.09360728708273688
14.085120000000002,9.489644090301644,0.09328843350262363
14.087524,9.510926816123293,0.09293935613265238
14.089912,9.535701886758577,0.09255425378205968
14.092296,9.565272554819614,0.09214341802325078
14.094692,9.597776489186845,0.091716603474676
14.09708,9.628557862061381,0.09129444462609357
14.09946,9.662552040495832,0.09084613993554598
14.101856,9.694683887810726,0.09040753443901565
14.104244,9.723091072886508,0.0899866990584171
14.106623999999998,9.749496157215873,0.08958125600653397
14.109024,9.775109845612318,0.0891758371194185
14.111412,9.792854900649958,0.08881768674711922
14.113796,9.804873192702068,0.0884887604732337
14.116192,9.812235656955286,0.08817973744657413
14.11858,9.825744193074613,0.08782865312046026
14.120959999999998,9.841534369194077,0.08745630567275998
14.123356,9.853599883074427,0.08709929336991766
14.125744,9.866596562514557,0.08673952648438345
14.128127999999998,9.871305299715301,0.08643861117164127
14.130524,9.874943101729405,0.08614625895101344
14.132916,9.875647637437314,0.08587107206398746
14.135296,9.870066331652252,0.08564188801859976
14.137696,9.861272220307276,0.08543798653220701
14.140084,9.850755547469602,0.0852367647579966
14.142464,9.839447478699007,0.08503469137623752
14.144864,9.828139409928415,0.08483216578860368
14.147252,9.816551801904103,0.08463906524836705
14.149636,9.806966294626207,0.08443428506787791
14.152032,9.79710124809459,0.08423812962155593
14.15442,9.784023396003061,0.08406578124220901
14.156804,9.771457400590721,0.08390373930989727
14.1592,9.761964441111447,0.08372133511175169
14.161592,9.755404747938362,0.08352344875370007
14.163972,9.752429947377532,0.0833162828960176
14.166372,9.744240240510367,0.08314502863588062
14.16876,9.733489354389347,0.0830038234349004
14.17114,9.726463130507438,0.08284891161439381
14.17354,9.716503640319338,0.08270844081456981
14.175932,9.714692322743762,0.08251778063821076
14.178308,9.714743336287743,0.08232063039725543
14.180712000000002,9.713583645018225,0.08213604086619021
14.1831,9.716428155241545,0.08192876574127986
14.185476,9.719132895838001,0.08172589882016502
14.187872,9.720487161994098,0.08154035695179508
14.19026,9.720770492963556,0.08136310669616395
14.19264,9.72398709023921,0.08117206992029534
14.195032,9.727203687514868,0.08098167286502521
14.19742,9.731351450350298,0.08078912222225795
14.199816,9.740574349865202,0.08056799712823763
14.202212,9.755291694940157,0.08030436178026325
14.2046,9.771359514455474,0.080024771954469
14.20698,9.793293866583179,0.07972061217849644
14.209376,9.815367988337746,0.07941289908926864
14.211764,9.836650714159395,0.07910458406954789
14.214144,9.863148346287378,0.07876510691386672
14.21654,9.892207157669217,0.07839816360655087
14.218928,9.923268069797476,0.07802413990628256
14.221308,9.95647085229901,0.0776358700231841
14.223712,9.988602699613901,0.07725883622248227
14.2261,10.019291524689818,0.0768750877801267
14.228484,10.052261989765874,0.07647363210961781
