Time,Force,Position
14.551484,0.16645089247117645,0.0
14.553864,0.17012833288204657,0.0
14.556268,0.17287460773313837,0.0
14.558656,0.174038090718394,0.0
14.561036,0.18041648000998203,0.0
14.563439999999998,0.18157996299523763,0.0
14.565824,0.18074134523407634,0.0
14.568204,0.17374793043527362,0.0
14.5706,0.1676856811962492,0.0
14.572988,0.15803853934497167,0.0
14.575368,0.1453183615606388,0.0
14.577772,0.13166701821652757,0.0
14.580156,0.11694473968577782,0.0
14.582536,0.10371270522224726,0.0
14.584932,0.09113229706477458,0.0
14.58732,0.08083352890743918,0.0
14.5897,0.07225732224280021,0.0
14.592096,0.062238093339185216,0.0
14.59448,0.0510081596220715,0.0
14.596876,0.03991799553181798,0.0
14.599272,0.02961922737448259,0.0
14.601656,0.024535365523479628,0.0
14.604036,0.01945150367247667,0.0
14.606432,0.015019268127531607,0.0
14.60882,0.006582831089752847,0.0
14.611199999999998,0.002290365171667997,0.0
14.613596,0.0,0.0
14.61598,0.0,0.0
14.618376,0.0,0.0
14.620772,0.0,0.0
14.62316,0.003268752559689468,0.0
14.62554,0.0071891314254368364,0.0
14.627936,0.008967639917907142,0.0
14.630324,0.00967521322373892,0.0
14.632704,0.00967521322373892,0.0
14.6351,0.00967521322373892,0.0
14.637488,0.00967521322373892,0.0
14.639884,0.00967521322373892,0.0
14.642276,0.00967521322373892,0.0
14.644664,0.00967521322373892,0.0
14.647044,0.00967521322373892,0.0
14.649436,0.00967521322373892,0.0
14.65182,0.00967521322373892,0.0
14.654216,0.00967521322373892,0.0
14.656619999999998,0.00967521322373892,0.0
14.659004,0.00967521322373892,0.0
14.661384,0.00967521322373892,0.0
14.663787999999998,0.010522556156430907,0.0
14.666175999999998,0.014442935022178275,0.0
14.668556,0.017292378701287112,0.0
14.670948,0.014731199447429424,0.0
14.673332,0.010810820581682054,0.0
14.675712,0.009032312089211746,0.0
14.678116,0.00832473878337997,0.0
14.680504,0.00832473878337997,0.0
14.682884,0.008660225036874266,0.0
14.685276,0.010718272783064996,0.0
14.687664,0.015709586835450894,0.0
14.690056,0.021632066447615114,0.0
14.69246,0.02569221494022269,0.0
14.694848,0.02789003231327363,0.0
14.697228,0.0311587848729631,0.0
14.69962,0.036289868552209205,0.0
14.702008,0.04328328335101196,0.0
14.704388,0.04827459740339786,0.0
14.706784,0.04940147958981027,0.0
14.709168,0.053601397709278055,0.0
14.711564,0.058676534388750284,0.0
14.713959999999998,0.05839699513502986,0.0
14.716344,0.06105072218750462,0.0
14.718728,0.06291305330706126,0.0
14.721132,0.06548295773244968,0.0
14.723515999999998,0.07019473253111515,0.0
14.725896,0.07583767288955895,0.0
14.7283,0.0833429443675594,0.0
14.730688,0.0893020247785668,0.0
14.733068,0.09302668701768009,0.0
14.735472,0.09274714776395966,0.0
14.73786,0.09046550776382238,0.0
14.740239999999998,0.09111713406988028,0.0
14.742632,0.09349132186863464,0.0
14.745019999999998,0.09558597041366854,0.0
14.7474,0.09288502153295063,0.0
14.749795999999998,0.0884615111595363,0.0
14.752183999999998,0.08617987115939901,0.0
14.754564,0.08562079265195817,0.0
14.756968,0.08142087453249038,0.0
14.759356,0.07549839492032616,0.0
14.761736,0.07185755530829921,0.0
14.764131999999998,0.06635438457671564,0.0
14.766519999999998,0.06378448015132722,0.0
14.7689,0.061214575725938795,0.0
14.771304,0.05650280092727332,0.0
14.773692,0.05085986056882952,0.0
14.776072,0.04335458909082908,0.0
14.778476,0.03706002242632738,0.0
14.780864,0.03127731244102337,0.0
14.783243999999998,0.026565537642357893,0.0
14.78564,0.022924698030330943,0.0
14.788028,0.018212923231665467,0.0
14.790408,0.013640918059860199,0.0
14.792804,0.008277516955136819,0.0
14.795187999999998,0.005847382156608611,0.0
14.797568,0.003277477731220194,0.0
14.799964,0.0005678036789715663,0.0
14.802348,0.0022431433434248445,0.0
14.804744,0.0091874404561152,0.0
14.807135999999998,0.01906310801713149,0.0
14.809523999999998,0.030751989011592016,0.0
14.811904,0.050585250902841675,0.0
14.814308,0.0807973118627746,0.0
14.816691999999998,0.1259514518916653,0.010392954294336084
14.819072,0.18539604468345594,0.01992980838077479
14.821476,0.2552666583721729,0.029337492757811865
14.823864,0.3324902570247609,0.038977621328882876
14.826244,0.4177184669472778,0.04880090110305521
14.828636,0.5166780511252539,0.05831675420314475
14.831024,0.6323494976931272,0.06728133044866696
14.833415999999998,0.7600769788520063,0.07605815138388877
14.835812,0.8987895594152527,0.08474238664126246
14.8382,1.0456465208752883,0.09356511520398206
14.84058,1.2066541654713634,0.10222940758227352
14.842975999999998,1.380369470964502,0.11077651530100338
14.84536,1.56385917104851,0.11933023416796419
14.847756,1.7559125609098871,0.12795002276261205
14.850148,1.9553574323918474,0.13658674918043257
14.852536,2.159131370590736,0.14516951127050176
14.854916,2.3710534814021518,0.15357233708275078
14.857312,2.5887042510569676,0.1618311669775413
14.859699999999998,2.802354610934688,0.16995971560547665
14.86208,3.0063250198780263,0.17802752464304417
14.864484,3.1944221841926286,0.17572501370492558
14.866872,3.3635730679454388,0.17439454054105832
14.869252,3.522996778935624,0.1731309654177795
14.871648,3.676417979402297,0.1715747169272136
14.874031999999998,3.82304527341254,0.1697879962889559
14.876428,3.9560809627941844,0.1682964952997058
14.878832,4.068632905718575,0.16751194722432156
14.88122,4.1690815922237165,0.1669790533070237
14.8836,4.262502158989081,0.16648311915799693
14.886003999999998,4.35136323746991,0.16576930215574584
14.888388,4.425514554307258,0.16526226454841733
14.890768,4.4893323980462965,0.16484066110893567
14.893168,4.543096307940746,0.16443642427187932
14.895552,4.58629442731141,0.16402375315529094
14.897928,4.6179955905985075,0.16364049772355235
14.900324,4.639875137466494,0.16332234205054788
14.902708,4.651094450154207,0.16314725180363282
14.905088,4.656913760938355,0.1630456766798052
14.907483999999998,4.65751816541617,0.16310946199784077
14.909871999999998,4.659286052879241,0.1631882532382447
14.912268,4.66156579702151,0.16328067738526705
14.914664,4.6730174271347,0.1631568474368558
14.917052,4.683722987285347,0.16315602081621203
14.919432,4.698245757473725,0.16311933435445225
14.921836,4.716073881020634,0.16303597796716615
14.92422,4.737486897179798,0.16288317749678408
14.9266,4.766536229272289,0.16248454040200871
14.929004,4.7988455887529415,0.1619320675335623
14.931392,4.825754946330026,0.16144103761424408
14.933772,4.8522922168547735,0.16094109776597276
14.936175999999998,4.879947644394402,0.1603506220647441
14.938563999999998,4.9032267833888605,0.15983941070596347
14.940944,4.928787562383457,0.15925670774579326
14.94334,4.959935334736722,0.15855448681753392
14.945728,4.996670100448656,0.15773549552654575
14.948108,5.036989758772845,0.15685381750172306
14.950504,5.07726219526879,0.15603213858591955
14.952892,5.117487409936492,0.15527995778339304
14.955272,5.158084711656532,0.15454264058394138
14.957668,5.196540143003293,0.15387110539164262
14.960056,5.238767458417412,0.15307258889562209
14.962436,5.27661848528636,0.1523645262743333
14.964832,5.3146565036104105,0.1515858792556531
14.967216,5.343802175217258,0.15097075822169662
14.969612,5.367780162346018,0.15044667748670343
14.972012,5.385519529810049,0.15003581789566584
14.9744,5.396600968728771,0.14976781965038966
14.97678,5.404981458766777,0.14960282549751502
14.979183999999998,5.417039389215651,0.14941990258247154
14.981568,5.424534039664251,0.14937362417243014
14.983948,5.431981468284609,0.14938244471278767
14.986351999999998,5.440220292837884,0.14938224313632606
14.988739999999998,5.4468291036970795,0.14945269631965885
14.99112,5.450923957130662,0.1495567330565648
14.993524,5.450362982765352,0.14974918687670385
14.995912,5.448079446907346,0.14996494840192004
14.998292,5.445982902504443,0.1501167137790612
15.000687999999998,5.441279852877309,0.15025656631080886
15.003071999999998,5.44076799619811,0.15024364311591046
15.005456,5.440954987653213,0.1501806392858118
15.007848,5.436858238361763,0.1502254102922279
15.010236,5.430479849070174,0.150334786431264
15.012616,5.425824021271282,0.15041936976519055
15.015012,5.42647564757734,0.1504223063515044
15.0174,5.428430526495515,0.1504311162096368
15.019784,5.4335509891453615,0.15041126494525667
15.02218,5.4421165747806,0.1503416081234183
15.024564,5.452172404483058,0.1502153384190766
15.026944,5.460273355267342,0.15008153134374463
15.029348,5.46842152787987,0.14989332639446035
15.031736,5.472892260081527,0.14971979764641985
15.034116,5.476990905230847,0.1495218081632058
15.036516,5.483138872954828,0.14922691723030687
15.0389,5.48835567511903,0.14895040566614773
15.04128,5.49464341246987,0.14864598432807855
15.043676,5.50093114982071,0.1483433815688807
15.04606,5.5093135357165846,0.1480424652305693
15.048452,5.52086150534413,0.14771599977526095
15.050848,5.531850396464236,0.14743561563773613
15.053236,5.544142540196458,0.1471637854404646
15.055616,5.557645388742178,0.14685604331774835
15.05802,5.574500812474675,0.14645955329975002
15.060408,5.590564840274253,0.14607329722566934
15.062784,5.608678190648491,0.14560159570207418
15.06518,5.626838762850972,0.14508132522978295
15.067564,5.64290468650842,0.14455948082507003
15.069964,5.6588780623672505,0.14399819857335353
15.072359999999998,5.6701956104271884,0.14351442194772185
15.074747999999998,5.680442223300488,0.14305558702380297
15.077128,5.690921153599263,0.14262669180542245
15.079532,5.704006589122273,0.14220745272655563
15.081915999999998,5.722539248377092,0.14170643274199124
15.0843,5.737439793191414,0.14131207340995725
15.086695999999998,5.752200568378877,0.1409276336755444
15.089083999999998,5.768963444312756,0.14050582911188228
15.091464,5.779999557261105,0.1401832505183944
15.09386,5.785728216104504,0.1399352477018611
15.096248,5.787080586402732,0.139746489893084
15.098628,5.780983632222734,0.13968211279087586
15.101036,5.77251249024398,0.13963553037755982
15.103419999999998,5.763901578638367,0.13959810554897772
15.1058,5.754219731846115,0.13958500227776244
15.108195999999998,5.744957193934446,0.13954225950540583
15.110584,5.731922771955418,0.13960877731025717
15.112964,5.7188411281481475,0.1397247518024817
15.115363999999998,5.709204607326272,0.13979933157201394
15.117748,5.701802504676287,0.13986548727227757
15.120128,5.699056229825195,0.1398588836703565
15.122524,5.697101350907022,0.13984698746033056
15.124912,5.699569982362261,0.13973108790804725
15.127308,5.705158871578801,0.13950443529928444
15.129703999999998,5.70623170262331,0.13934127003344352
15.132087999999998,5.710145252175394,0.13908638288893185
15.134472,5.716480211354478,0.1387689109579983
15.136867999999998,5.718019573107808,0.13852994856055087
15.139255999999998,5.7255652371003904,0.13817794997237368
15.141636,5.737906498518724,0.1377464311867763
15.144032,5.7530412566163935,0.13727228638701383
15.14642,5.776416735125205,0.1366793113830409
15.1488,5.801514775126716,0.1360687969227775
15.151196,5.822980700687731,0.1355495904850664
15.153584,5.84602941811458,0.13502305498157877
15.155979999999998,5.862512754794739,0.13464222846632776
15.158376,5.87834446516884,0.1342562332715869
15.160764,5.8939438581174635,0.1338397247308681
15.163144,5.906470215133033,0.1334855039380765
15.165539999999998,5.914480513976569,0.13319417830802488
15.167927999999998,5.921559647260328,0.132919228901886
15.170308,5.930501111663642,0.1326176620065952
15.172703999999998,5.9319460297604865,0.1324768797960477
15.175092,5.932552330096171,0.13239142439755
15.177472,5.934461883043972,0.13231465548129065
15.179871999999998,5.937255379723306,0.13227428182348044
15.18226,5.937208157895063,0.13232316661262997
15.18464,5.9464725916646035,0.1322401339153578
15.187036,5.957971443606038,0.13215517603202986
15.189424,5.965186554800917,0.13215682871273868
15.191816,5.971470500436019,0.13217168981941316
15.194216,5.974169553458867,0.13222914272483566
15.196604,5.977799772041494,0.13227402283538683
15.198984,5.989485615438031,0.13213748442748366
15.20138,6.0006596021553715,0.1319893023941835
15.203763999999998,6.019981761485239,0.13169761091851181
15.206144,6.040886712680943,0.1313980676028435
15.20854,6.0640260820485405,0.13109884192779828
15.210924,6.089167552162554,0.1307659949081489
15.213319999999998,6.116683210075324,0.1304200194931287
15.215724,6.142988163174594,0.13010454147037637
15.218108,6.1705038210873635,0.12976586416373498
15.220491999999998,6.208029982732215,0.12926526101210714
15.222896,6.243042186951454,0.12878575014137666
15.22528,6.279684404864772,0.12825718523363877
15.227659999999998,6.3082256719938075,0.12781534447061482
15.230056,6.3396076576304194,0.12729377992405455
15.232444,6.361677987669247,0.12689727205372991
15.234823999999998,6.380442964349543,0.12652712934585292
15.237228,6.403351912149533,0.12608524811554958
15.239612,6.428123191069079,0.1256230854709901
15.241996,6.455687966667961,0.12513067816909607
15.2444,6.481390411147284,0.12466438444848178
15.246784,6.503972597865312,0.1243004222155422
15.249164,6.528277346076035,0.12392716568392877
15.251564,6.552302555033036,0.12357595167504314
15.253948,6.577678238430399,0.12319367983832395
15.256327999999998,6.5986776332825885,0.12284982283667109
15.258728,6.621027502575138,0.1224756604945638
15.261112,6.6439364503751275,0.12207237089546512
15.263495999999998,6.669406577428974,0.12161286294100941
15.265892,6.692222977430347,0.12118130341265608
15.26828,6.710383549632828,0.12080728581289031
15.270663999999998,6.730406452954865,0.12041402638385648
15.27306,6.749358421090265,0.12004197429388197
15.275448,6.776830648890528,0.1195717959748807
15.277827999999998,6.797597726317242,0.11921913904687254
15.280224,6.821949696356207,0.11883303905633136
15.282607999999998,6.847744688634148,0.11845189847145142
15.285004,6.871537580165674,0.11810001173532679
15.287408,6.891326270204366,0.11780227088987721
15.289796,6.905388197257526,0.11757087431285665
15.292176,6.919589893937549,0.11733261053223937
15.294572,6.933838812445813,0.11705371654925543
15.296956,6.940638406475851,0.11685129840834983
15.29934,6.946926143826691,0.11663841188981305
15.301736,6.951211780431114,0.1164527328555958
15.304124,6.95922207927465,0.11622974744470711
15.306504,6.962948637371634,0.11607373752040971
15.3089,6.964673094722199,0.1159438765099095
15.311288,6.966769639125102,0.11583506109194358
15.313667999999998,6.969378040207204,0.11573917747319819
15.316064,6.9690531749831095,0.11567769981613381
15.318447999999998,6.968868079385874,0.11560919946590151
15.320844,6.964678782295806,0.11559101319458033
15.32324,6.956764822966626,0.11560843338827619
15.325628,6.957697884384274,0.11548250023828445
15.328008,6.956256758003168,0.11536162657495894
15.330415999999998,6.952720983077026,0.11523160143100628
15.3328,6.951746387404745,0.11504863187744191
15.33518,6.953193201359459,0.11481911859987466
15.337576,6.958644216807007,0.11453956825574757
15.339964,6.964886628187473,0.11425920191263823
15.342348,6.9671248380751045,0.11402782494863188
15.344744,6.976020976508045,0.1137271866959352
15.347132,6.979981747888375,0.11348466823820691
15.349512,6.982080188149147,0.11325908473106111
15.351908,6.978591635051249,0.11308561692822355
15.354296,6.977664261207209,0.11285806560982042
15.356675999999998,6.979949692923085,0.11258326826626182
15.359072,6.97799860572065,0.11233080570471157
15.36146,6.971531460346184,0.11211373357896848
15.363839999999998,6.9679975812779125,0.11186309062265085
15.366236,6.965534637396279,0.11159766052174618
15.368624,6.96721566463434,0.11127580026782664
15.37102,6.970759022991957,0.11093698044634313
15.373416,6.9678767702297435,0.11069325950799483
15.375804,6.968579410079783,0.11042320236886177
15.378184,6.968722971422381,0.11018117498944362
15.380587999999998,6.966445123137984,0.10998501410078924
15.382972,6.965238210040223,0.10977396242350128
15.385352,6.964171066569324,0.10955656645624953
15.387755999999998,6.962312527165504,0.10934056327223984
15.390144,6.965249585187438,0.1090774444258894
15.392524,6.965113607276317,0.10885269745397873
15.394923999999998,6.968842061231168,0.1085886405007269
15.397312,6.976574716678854,0.10827926607792869
15.399692,6.990173904738929,0.10790785841510456
15.402088,7.004284949478203,0.10755121171034215
15.404476,7.014252023097783,0.10724772633885582
15.406856,7.024870723023421,0.106949490491643
15.409259999999998,7.04028502037481,0.10660392420740675
15.411644,7.054768152166421,0.10626767114386172
15.414024,7.0660384783981165,0.10597677097341034
15.416427999999998,7.078100200562731,0.10568752955919004
15.418815999999998,7.09351449791412,0.10535204911909239
15.421196,7.109999730452147,0.10500057647049435
15.4236,7.127416128549953,0.10464577576701886
15.425983999999998,7.1429701955282034,0.10430330318111197
15.428364,7.158524262506452,0.1039612647072604
15.430763999999998,7.171377380603984,0.10367558582315672
15.433148,7.184090729074654,0.10339862568455276
15.435532,7.196664307918467,0.10312899959743674
15.437928,7.208166951575639,0.10287559372959781
15.440316,7.2218114656060886,0.10259467564872958
15.442692,7.235316210009678,0.10232202985760475
15.445088,7.24667908403999,0.10207848168595378
15.447476,7.259904289189859,0.10182465724237486
15.449856,7.275271364713005,0.10154664274982406
15.452252,7.289567505049512,0.10127977531663712
15.45464,7.30465504131894,0.10101242211589717
15.457036,7.321744678334782,0.10072791798541274
15.459431999999998,7.338694545723765,0.10045060959008825
15.461816,7.356855117926246,0.10015336624658223
15.4642,7.372082423822532,0.09988378186251516
15.466596,7.3810238882258465,0.0996879826326034
15.468984,7.392898618935357,0.09946685761930447
15.471364,7.401048687405754,0.099272782660444
15.473767999999998,7.415205058115402,0.09902121030817568
15.476155999999998,7.426428162518853,0.0987943132994127
15.478536,7.445008043601915,0.098486476069224
15.480932,7.462516989498337,0.09819258024254442
15.483316,7.482028036141177,0.09788141632734568
15.4857,7.498326277224102,0.09760794170189012
15.488096,7.515835223120525,0.09731812811221725
15.49048,7.531621607524253,0.09703480548206894
15.49286,7.545545660808421,0.09676316389853142
15.495264,7.550530145547146,0.0965720511819599
15.497652,7.554583464726092,0.09638877265555729
15.500032,7.565574251704068,0.0961453806605034
15.502428,7.575773642749125,0.09590138629878048
15.504816,7.580758127487849,0.09571285023412432
15.5072,7.582017949987461,0.09554722315403562
15.509596,7.580996132486934,0.09541219720319638
15.51198,7.581696876479104,0.09527158642059101
15.514376,7.586401821964109,0.09509454735201228
15.516775999999998,7.591246537075974,0.0949125989420267
15.519163999999998,7.5948805473743395,0.0947485125017989
15.521544,7.596512456926288,0.09460346309108997
15.523939999999998,7.604150668717487,0.09440525454639284
15.526328,7.603920247149879,0.09427258101197
15.528708,7.603829595209132,0.09413377085896077
15.531104,7.59987451140241,0.09402361824820508
15.533492,7.599132233155604,0.09387793341453825
15.535872,7.598110415655078,0.0937453695050767
15.538275999999998,7.599742325207027,0.09360277169114742
15.540663999999998,7.605098896998088,0.09343847821561631
15.543048,7.617392936588179,0.09321670713322364
15.545443999999998,7.6252634658048555,0.0930477570146789
15.547828,7.631271663901976,0.0928915963611252
15.550208,7.637559401252816,0.09272307486979563
15.552608,7.6481308793502105,0.09250905301661921
15.554996,7.668293552299108,0.0922313595665725
15.557376,7.695673232300755,0.09188892135122013
15.559772,7.71932825006329,0.09156628028460088
15.56216,7.7429832678258235,0.09124677787026982
15.56454,7.7644964152150795,0.0909515039726023
15.566947999999998,7.788803059283671,0.09064039443381994
15.569332,7.811107602605846,0.09034619383274252
15.571712,7.828337009248548,0.09009634912830142
15.574111999999998,7.847428747010808,0.0898359332368822
15.5765,7.868382815892623,0.08956715079208674
15.57888,7.892270151080635,0.08927759005371114
15.581276,7.916017716641786,0.0889956698550152
15.583664,7.93790295108338,0.08872540750652316
15.586059999999998,7.958205393659139,0.08845475775906529
15.588456,7.976785274742201,0.08818927561510043
15.590844,7.995504925452122,0.0879205542018051
