Time,Force,Position
17.277284,0.05005397745528041,0.0
17.279671999999998,0.06050096965619291,0.0
17.282052,0.07066842260338498,0.0
17.284447999999998,0.08362937222991201,0.0
17.286836,0.09831288334913549,0.0
17.289216000000003,0.11299639446835895,0.0
17.29162,0.12940246708027883,0.0
17.294007999999998,0.148090179692336,0.0
17.296388,0.1654274178640342,0.0
17.298783999999998,0.18662908790170593,0.0
17.301172,0.2090414627528764,0.0
17.303551999999996,0.23131406797718662,0.0
17.305948,0.2507931765221619,0.0
17.308335999999997,0.26834555253108977,0.0
17.310719999999996,0.2798916263007671,0.0
17.313116,0.2894355993240275,0.0
17.3155,0.2971172412277314,0.0
17.317895999999998,0.30465911350457503,0.0
17.320296,0.31262029466199925,0.0
17.32268,0.31909123175220433,0.0
17.325063999999998,0.32505031216321173,0.0
17.327460000000002,0.32514285996182885,0.0
17.329848,0.3277965870143036,0.0
17.332228,0.3256547166410265,0.0
17.334623999999998,0.3197881840286362,0.0
17.337012,0.311919550669829,0.0
17.339396,0.3043304565647422,0.0
17.341791999999998,0.29324901764601946,0.0
17.344175999999997,0.2835180531676556,0.0
17.346556,0.2669893905171231,0.0
17.348956,0.24724792230667503,0.0
17.351343999999997,0.22978809409636422,0.0
17.353724,0.2159131584983065,0.0
17.356119999999997,0.2001758917806921,0.0
17.358508,0.18630095618263434,0.0
17.360892,0.16989488357071444,0.0
17.363287999999997,0.15441997651857287,0.0
17.365676,0.14001600465306982,0.0
17.368071999999998,0.12547226316070656,0.0
17.370468000000002,0.11308757162986798,0.0
17.372856,0.10242544159172581,0.0
17.375236,0.0977696137928342,0.0
17.377636000000003,0.08775911006074995,0.0
17.380020000000002,0.07802814558238609,0.0
17.382404,0.06921116707555297,0.0
17.3848,0.062396289315136695,0.0
17.387183999999998,0.053579310808303575,0.0
17.389567999999997,0.045973037114969195,0.0
17.391964,0.038366763421634816,0.0
17.394351999999998,0.033693756034495606,0.0
17.396732,0.031022849393773252,0.0
17.399127999999997,0.02621007237977383,0.0
17.401516,0.020605899432856303,0.0
17.403912,0.017003827232355623,0.0
17.406308000000003,0.014472690218493471,0.0
17.408696,0.014472690218493473,0.0
17.41108,0.014472690218493475,0.0
17.413476000000003,0.014472690218493475,0.0
17.415864,0.014472690218493477,0.0
17.418244,0.012593179510689227,0.0
17.42064,0.009782503243106658,0.0
17.423028000000002,0.003898791042468707,0.0
17.425412,0.0010881147748861382,0.0
17.427808,0.0,0.0
17.430196000000002,0.0,0.0
17.43258,0.0,0.0
17.434980000000003,0.0,0.0
17.437368,0.0,0.0
17.439748,0.0,0.0
17.442155999999997,0.0,0.0
17.444544,0.0,0.0
17.446928,0.0,0.0
17.449323999999997,0.0,0.0
17.451712,0.0,0.0
17.454096,0.0,0.0
17.4565,0.0,0.0
17.458883999999998,0.0005762580956884479,0.0
17.461267999999997,0.0005762580956884478,0.0
17.463664,0.006087883243988919,0.0
17.466048,0.008526472459234009,0.0
17.468428000000003,0.011756457607397207,0.0
17.470824,0.015917608315338727,0.0
17.473211999999997,0.019938989396420033,0.0
17.475592,0.021027104171306172,0.0
17.477987999999996,0.021027104171306175,0.0
17.480376,0.021027104171306175,0.0
17.482756000000002,0.021027104171306175,0.0
17.48516,0.021027104171306175,0.0
17.487547999999997,0.021027104171306175,0.0
17.489932000000003,0.021027104171306175,0.0
17.492328,0.021027104171306175,0.0
17.494712,0.021027104171306175,0.0
17.497096,0.021027104171306175,0.0
17.499491999999996,0.021027104171306175,0.0
17.50188,0.021027104171306175,0.0
17.504260000000002,0.021027104171306175,0.0
17.506656,0.02045084607561773,0.0
17.509044000000003,0.02045084607561773,0.0
17.511423999999998,0.014939220927317257,0.0
17.513820000000003,0.012500631712072167,0.0
17.516208,0.009270646563908969,0.0
17.518588,0.0051094958559674475,0.0
17.520988000000003,0.0010881147748861382,0.0
17.523372000000002,0.0,0.0
17.525751999999997,0.0,0.0
17.52816,0.0,0.0
17.530544,0.0,0.0
17.532928,0.0,0.0
17.535324000000003,0.0,0.0
17.537712,0.0,0.0
17.540092,0.0,0.0
17.542488,0.0,0.0
17.544876000000002,0.0,0.0
17.547272,0.0,0.0
17.549667999999997,0.0,0.0
17.552056,0.0,0.0
17.554436000000003,0.0,0.0
17.556835999999997,0.0,0.0
17.559219999999996,0.0,0.0
17.561604000000003,0.0,0.0
17.564,0.0,0.0
17.566387999999996,0.0,0.0
17.568768,0.0,0.0
17.571164000000003,0.0,0.0
17.573552,0.0,0.0
17.575936,0.0,0.0
17.578332000000003,0.0,0.0
17.58072,0.0,0.0
17.5831,0.0,0.0
17.585496,0.0,0.0
17.587884000000003,0.0,0.0
17.590268000000002,0.0,0.0
17.592664,0.0,0.0
17.595052000000003,0.0,0.0
17.597436000000002,0.0,0.0
17.599832,0.0,0.0
17.602216,0.0,0.0
17.604612000000003,0.0,0.0
17.607011999999997,0.0,0.0
17.609395999999997,0.0,0.0
17.611780000000003,0.0,0.0
17.614176,0.0,0.0
17.616563999999997,0.0,0.0
17.618944,0.0,0.0
17.621344,0.0,0.0
17.623728,0.0,0.0
17.626112,0.0,0.0
17.628507999999997,0.0,0.0
17.630896,0.0,0.0
17.63328,0.0,0.0
17.635675999999997,0.0,0.0
17.638060000000003,0.0,0.0
17.640444000000002,0.0,0.0
17.64284,0.0,0.0
17.645228000000003,0.0,0.0
17.647624,0.0,0.0
17.650019999999998,0.0,0.0
17.652408,0.0,0.0
17.654787999999996,0.0,0.0
17.657187999999998,0.0,0.0
17.659576,0.0,0.0
17.661955999999996,0.0,0.0
17.664352,0.0,0.0
17.666739999999997,0.00010972738686466632,0.0
17.66912,0.0022215555201461836,0.0
17.671515999999997,0.00247105253387106,0.0
17.673904,0.00247105253387106,0.0
17.676284000000003,0.00247105253387106,0.0
17.678683999999997,0.0024710525338710603,0.0
17.681067999999996,0.0024710525338710603,0.0
17.683452000000003,0.0024710525338710603,0.0
17.685856,0.0024710525338710603,0.0
17.688243999999997,0.0024710525338710603,0.0
17.690624,0.0024710525338710603,0.0
17.693019999999997,0.0024710525338710603,0.0
17.695411999999997,0.0024710525338710603,0.0
17.697792,0.0024710525338710603,0.0
17.700187999999997,0.0024710525338710603,0.0
17.702576,0.0024710525338710603,0.0
17.70496,0.004348667383806064,0.0
17.707355999999997,0.01297675857766658,0.0
17.709744,0.02015993167468185,0.0
17.712124000000003,0.02501234708544745,0.0
17.714523999999997,0.03561777600600023,0.0
17.716912,0.05925573104771103,0.0
17.719292000000003,0.09848739146443752,0.0
17.721688,0.15067620979195254,0.010690528067075647
17.724075999999997,0.21436198420303249,0.02087893485915519
17.726472,0.2914995936158511,0.030689172796160083
17.728868,0.3846029954560227,0.04008449418954844
17.73126,0.48943567080523687,0.04939879850473508
17.73364,0.6081867118650133,0.05836718414973966
17.736040000000003,0.7339186508363232,0.06745844670140062
17.738424000000002,0.8677949707044224,0.07667686931170647
17.740808,1.0171252263206767,0.08568219426786557
17.743204,1.1867522369390817,0.09423430362921377
17.745592000000002,1.3656417854691576,0.10277625335038061
17.747976,1.5519315407913477,0.11137037247955614
17.750372,1.7477161514506854,0.11999806612542
17.752760000000002,1.9520491681570147,0.12862796023438694
17.755144,2.162618908670203,0.1371403830533725
17.757544000000003,2.387435671833786,0.14544755304418897
17.759932,2.6272002016399347,0.1534750049624234
17.762307999999997,2.865618048721463,0.1614086161352938
17.764716,3.0912829089355536,0.1692676023899279
17.7671,3.307220596387019,0.17702497339873913
17.76948,3.5132441196207553,0.17403383597690616
17.771884,3.706187894905091,0.17156158781040914
17.774271999999996,3.8843765825755723,0.1694626336377946
17.776652,4.042502728527249,0.16783269580543375
17.77906,4.187177039477188,0.16631263870120203
17.781444,4.314999718410369,0.16521098310621846
17.783824000000003,4.4374242912978525,0.16396804277534838
17.78622,4.557151707020357,0.1624889338480931
17.788607999999996,4.662216582927624,0.16121434074977967
17.790988,4.739488157526271,0.16061282621172585
17.793384000000003,4.815737914624392,0.15985014103000006
17.795772,4.885890717542513,0.15903981937472814
17.798152,4.947759369936987,0.15815475038829385
17.800548,5.001763180688391,0.15717560359119312
17.802936000000003,5.03840350274384,0.1563878011917077
17.805315999999998,5.059587993193263,0.15585300883979292
17.807719999999996,5.061497546141063,0.15575136946293183
17.810108,5.06024151535719,0.1556887180498604
17.812488000000002,5.052048016774289,0.15580545598831846
17.814884,5.037987985578996,0.15606684665718865
17.817268,5.016850716957816,0.15652226400800717
17.819651999999998,4.997528557627948,0.1569983416431854
17.822048000000002,4.980952673149172,0.15746995593487745
17.824436,4.970987495387463,0.1578441358002979
17.826816,4.965538375797784,0.1581237344099322
17.82922,4.965256940686194,0.15831255248145198
17.831608000000003,4.969119476694298,0.15838311001951916
17.833987999999998,4.965812227477897,0.15859250507556838
17.836384000000002,4.958408228970043,0.1588599381820121
17.838772,4.9582684593431825,0.15887136617057268
17.841155999999998,4.945232141506287,0.15916112394566118
17.843552000000003,4.929961405497497,0.15946824443753227
17.84594,4.912269259861708,0.15986229574990068
17.84832,4.890013834225646,0.16040509633397537
17.850724,4.874788424187229,0.1608185995234938
17.853112000000003,4.867663964933096,0.16106557938271576
17.855491999999998,4.874646758702498,0.16099394324008331
17.857888000000003,4.884934905830434,0.16087876244645258
17.860276,4.900158420010983,0.1606372054161116
17.862656,4.915661473445251,0.16036957800993046
17.86506,4.936658972439572,0.15992495160131345
17.867448000000003,4.960636959568331,0.15935411092116897
17.869828,4.9846621685253325,0.15873187382015996
17.872224000000003,5.004078771511686,0.15815525174731332
17.874608000000002,5.01832769001995,0.15766808178121103
17.876992,5.028619628863624,0.15722607728955326
17.879388,5.028901063975212,0.15704169749577931
17.881776000000002,5.033046930952776,0.15676650145497537
17.884155999999997,5.043710956848788,0.15635226947555084
17.886560000000003,5.054467530543417,0.15598493127292445
17.888944000000002,5.071462723902773,0.15549462498241978
17.891328,5.0940449106208,0.15489097309840183
17.893724,5.1221215428988796,0.15412972671687294
17.896112000000002,5.150617484057539,0.15332583369097133
17.898491999999997,5.177018776671165,0.15253629513272074
17.900888000000002,5.196110514433425,0.1519002934799784
17.903275999999998,5.210174337344455,0.15135380393874592
17.905672000000003,5.216556518351781,0.15092323704928684
17.908068,5.224149404172606,0.15045595112396784
17.910455999999996,5.23253368592635,0.14997851927634606
17.912836,5.240778198053232,0.1495147591459289
17.915236,5.2466013005531185,0.14913307201327045
17.91762,5.248932058239367,0.14885639368706882
17.920004,5.253497234097512,0.14856715475734605
17.922404,5.263230094433745,0.1482033675046721
17.924791999999997,5.278549948128648,0.14773662262888418
17.927172,5.303228679249577,0.14703977175302635
17.929568000000003,5.327116014437588,0.14635936636524946
17.931956,5.346067982572986,0.14578976714677544
17.934336000000002,5.364368324402328,0.14521525146202585
17.936732,5.3830879751122485,0.14461603804715825
17.939120000000003,5.393566905411026,0.14416071224250512
17.941499999999998,5.397899763843693,0.14384890710454099
17.943896000000002,5.402884248582418,0.14353888181194796
17.946284,5.403025914067148,0.14337559577490008
17.948667999999998,5.407543868097048,0.143148068884868
17.951064000000002,5.409872729925428,0.1430299791090965
17.953452,5.414808096978041,0.1429245730241104
17.955848000000003,5.4176941414559945,0.14291792286489816
17.958244,5.425887640038894,0.1428316237015706
17.960631999999997,5.4373864919803285,0.1427118752516458
17.963012,5.45102721429504,0.142542155089287
17.965407999999996,5.469743073289224,0.14226317361198873
17.967796,5.488039623402827,0.1420134309773542
17.970176000000002,5.4993987057174,0.141905058325055
17.972575999999997,5.506613816912281,0.14189214429624983
17.974964,5.509824726614327,0.1419629841340871
17.977344000000002,5.511685161876015,0.14207836575063162
17.97974,5.5200637560561505,0.14208608412952298
17.982128000000003,5.53067676840818,0.14208607892770825
17.984512000000002,5.539939306319851,0.14213048766323816
17.986908,5.557442564642666,0.1420486344538834
17.989296000000003,5.580812355577873,0.1418596422674127
17.991680000000002,5.610700305431526,0.14157164342318984
17.994076,5.649527823830625,0.1411111226031989
17.996464000000003,5.689054190364027,0.14061528260065145
17.998844,5.728488009098811,0.14007714144883304
18.001240000000003,5.768480906341035,0.1395002660717483
18.003628,5.812385457277476,0.13881133905750434
18.006012,5.853776050788302,0.13816220886985237
18.008408000000003,5.887996859074623,0.1376108741198542
18.010796,5.917422069935191,0.13714130512185782
18.01318,5.942703309676066,0.1367578952776382
18.015576000000003,5.973199455723274,0.13627613379512032
18.017968,6.01091260882323,0.13565076586542918
18.020348,6.0507676322964645,0.13498214328183517
18.022744000000003,6.091414051702616,0.1343153079147718
18.025128,6.131641162228187,0.13367290056672496
18.027528,6.163720100141231,0.133185729534929
18.029924,6.195426951001936,0.13268009661626118
18.032312,6.227692880370083,0.13214230928721588
18.034692,6.255442751566198,0.13167016037463133
18.037088,6.2773260901499235,0.13129738797312562
18.039476,6.292831039442061,0.1310114167751417
18.04186,6.302097369069471,0.1307999546901638
18.044256,6.307079957950325,0.13067381495301778
18.046644,6.313133482017818,0.13052737089055128
18.049024000000003,6.323842833884205,0.1303215563293669
18.05142,6.331851236869873,0.1301919058253912
18.053808,6.333853337616291,0.1301592922877316
18.056192000000003,6.341442431721376,0.13005371348452693
18.058588,6.353687353625355,0.1298877756584661
18.060976,6.3700762466490275,0.12964999839307964
18.063360000000003,6.37966744150053,0.1295145502328098
18.065756,6.389538175605753,0.1293660479647124
18.068144,6.397034721912224,0.12922883137905353
18.070528000000003,6.400946375606442,0.12912977550887503
18.072924,6.4046257118751795,0.1290016097171087
18.075312,6.4159413640772485,0.12872835211037278
18.077692,6.42618608109268,0.12847544481312678
18.080088,6.434428697361694,0.12825403884287315
18.082476,6.442531544003847,0.12804081873309706
18.084872,6.4532881176984755,0.1278005823755188
18.087268,6.464044691393103,0.12755964088566768
18.089656,6.47531312176693,0.12732998459900052
18.092036,6.484719221021201,0.1271213342757118
18.094432,6.492123219529054,0.1269448176819284
18.09682,6.495150929491736,0.12681212695755428
18.099200000000003,6.493150724603188,0.12671569603997343
18.1016,6.496505195647834,0.12651946068600628
18.103988,6.49362104702775,0.12638876283021444
18.106368,6.486220840235636,0.12630840476649813
18.108764,6.474956201577548,0.12628217320785937
18.111152,6.4667645988525155,0.12620484922768913
18.113536,6.453869946500348,0.1262300553057487
18.115932,6.44041621564074,0.1262879663592471
18.11832,6.427893650340911,0.12633488723273859
18.1207,6.417373185787499,0.12634974608774568
18.123104,6.398844318248419,0.12648843617727637
18.125488,6.381665925149697,0.12659005517750732
18.127872,6.3634165968643375,0.1267124514670466
18.130268,6.345446807832698,0.12681804369239424
18.132656,6.323240499882748,0.1269580759182705
18.135036,6.3039674582389935,0.1270539422070183
18.137432,6.288046991782013,0.12708201662987986
18.13982,6.276550035698449,0.12702366760750242
18.142204,6.2649133099880245,0.12697359995369617
18.144604,6.25192610983724,0.12695924949737086
18.146988,6.248250565284239,0.126830182853934
18.149372,6.242293380731101,0.1267482289733226
18.151768,6.240852254349995,0.12661714852342407
18.154156,6.242204624648222,0.12645164906509423
18.156552,6.243696764573311,0.12627756660586834
18.158948,6.245049134871539,0.12611239163673632
18.161340000000003,6.247240122930929,0.12589749930649888
18.16372,6.25478578692351,0.1255868476952318
18.16612,6.265124947595426,0.1252434737413108
18.168508000000003,6.2741136338269845,0.12493684370844549
18.170888,6.29125049267107,0.12450207005419398
18.173284,6.305454085208961,0.12410915792579798
18.175672,6.324453275172603,0.1236542355272481
18.178056,6.343592234763106,0.12319295871607913
18.180452,6.368318187712278,0.1226652568643188
18.18284,6.392252744728534,0.12214604328170928
18.18522,6.418189402491205,0.12160755650524453
18.187616,6.4447776865599335,0.12108053870474414
18.190008,6.476580876934995,0.12047636448197298
18.192388,6.507732441003999,0.11986375877219295
18.194784,6.534507716527831,0.11929580046445505
18.197176,6.5627732361188835,0.11868735194700253
18.199556,6.59425156126985,0.11803502849609017
18.201956000000003,6.626288964928258,0.11735795791928064
18.204344,6.660328469333084,0.1166564585230079
18.206724,6.692924951498933,0.11595409267953175
18.20912,6.726452599224559,0.11524381729613503
18.211508,6.752111613591379,0.11463479745696219
18.213892,6.776327605719223,0.11402641594318078
18.216288,6.800823137100788,0.11340380785724136
18.218676,6.81996399254916,0.11286994368029243
18.22106,6.841898344676865,0.11230894615210314
18.223456,6.862389674565596,0.11174978553891939
18.225844,6.883951939640965,0.11117779072486095
18.228228,6.905514204716334,0.11061141788615239
18.230624,6.925214138672147,0.11006443774716919
18.233012,6.936905669642292,0.10961656048416157
18.235396,6.9468746391197405,0.1091809909302911
18.237796000000003,6.94990614079816,0.10882738316372932
18.240184,6.954520434342417,0.10847055963128413
18.242568,6.957644483819454,0.10815089437129818
18.244964000000003,6.961000850721968,0.10785960903592155
18.247352,6.958350915385233,0.10764041325180611
18.249736,6.950858160794501,0.10751099926771487
18.252132000000003,6.9438772628829675,0.10739492532469186
18.25452,6.937128682396912,0.10730614243238953
18.256904,6.931962893776692,0.10721534752390872
18.259300000000003,6.9325238681420025,0.10706893214779545
18.261688,6.93452786474629,0.10692840694925344
18.264072,6.938533962096992,0.10676580025772206
18.266468000000003,6.942679829074557,0.10659568751744215
18.268856,6.9476170919850375,0.10642584154554602
18.27124,6.952135046014939,0.10627790088618759
18.273648,6.9560939215373985,0.10615852248606258
18.276036,6.956839991499942,0.10608293742191878
18.278416,6.957818378887963,0.10603436982392801
18.280816,6.962241889261377,0.10596867159047663
18.283204,6.967037486687128,0.10592345634167903
18.285584,6.975417976725134,0.10585434027392596
18.287984,6.987802668255973,0.10574193540397203
18.290368,6.999116424600173,0.10564316653661063
18.292748000000003,7.009918324265175,0.10553151276667516
18.295152,7.021511619863096,0.10541851022763216
18.29754,7.036737029901512,0.10523928682267918
18.29992,7.049308712887454,0.10507677105914354
18.302316,7.063230870313755,0.10488608948821956
18.304704,7.075150926993638,0.10471862117100134
18.307084000000003,7.0880021492333,0.10454601365933919
18.30948,7.098851270726546,0.1043960380335906
18.311868,7.106347817033015,0.10429628185931572
18.314248,7.113704593712624,0.10420308683442853
18.316644,7.119059269645817,0.10413196795584216
18.319032,7.1234827800192315,0.10406845021284933
18.321412,7.125764420019369,0.1040332108579174
18.323808,7.13246957039292,0.10393498426157106
18.326196000000003,7.137591928900635,0.1038371599249724
18.32858,7.14434430110243,0.10369809283181768
18.330976,7.152447147744583,0.10353221496109505
18.333364000000003,7.160689764013598,0.10336025859381255
18.335744,7.163065847670221,0.10324543401025542
18.338144,7.172519168752735,0.10305493266389287
18.340528,7.183834820954804,0.1028516292877347
18.342912,7.197943969836209,0.10262778242695922
18.345308000000003,7.212704745023671,0.10241145671200172
18.347696,7.230119247263607,0.10218170371021078
18.350076,7.246323044690047,0.10197294073923971
18.352472,7.2615956765567065,0.1017706277449389
18.35486,7.2716534021170345,0.10162949016914288
18.357244,7.283992767677498,0.10145587088566185
18.35964,7.301547039544295,0.10122366047076906
18.362028,7.323105512903927,0.10095296443921581
18.364412,7.3430811943977226,0.10068192048476898
18.366808,7.366269681451431,0.1003742168613214
18.369196,7.390948412572362,0.10003314228395264
18.371592,7.412414338133375,0.09973446460743118
18.373988,7.43867586112014,0.09939763863920133
18.37638,7.465868549666685,0.09905810380815931
18.37876,7.491338676720533,0.09872757910945341
18.38116,7.515086242281683,0.09840405853503983
18.383548,7.542977778962528,0.0980370746466828
