Time,Force,Position
17.759968,0.0587870930413474,0.0
17.762347999999996,0.05904969150502569,0.0
17.764744,0.059049691505025696,0.0
17.767131999999997,0.059049691505025696,0.0
17.769512,0.05864732341448719,0.0
17.771915999999997,0.05745355939103059,0.0
17.774304,0.05745355939103059,0.0
17.776683999999996,0.05532862980779566,0.0
17.77908,0.054414405038059464,0.0
17.781467999999997,0.04921643952176916,0.0
17.783848,0.042016373259062,0.0
17.786248,0.033745371809716304,0.0
17.788632,0.024263665546871885,0.0
17.791016,0.0167840600304443,0.0
17.793419999999998,0.008373288954238393,0.0
17.795808,0.0041064889977264025,0.0
17.798187999999996,0.0009106242278529423,0.0
17.800587999999998,0.001190163481573363,0.0
17.802971999999997,0.003315093064808292,0.0
17.805355999999996,0.007039755303921574,0.0
17.807760000000002,0.012486979035731285,0.0
17.810144,0.013650462020986874,0.0
17.812523999999996,0.016799104962617186,0.0
17.81492,0.022089618277524557,0.0
17.817307999999997,0.027519901219292136,0.0
17.819688,0.03509205453433678,0.0
17.822091999999998,0.04773934452885365,0.0
17.824475999999997,0.059315699336731996,0.0
17.826859999999996,0.0690297230250537,0.0
17.829256,0.07967491227315374,0.0
17.83164,0.09232220226767059,0.0
17.834019999999995,0.10296739151577064,0.0
17.836419999999997,0.11175024964431401,0.0
17.838808,0.12253520851927424,0.0
17.841187999999995,0.1301073618343189,0.0
17.843587999999997,0.1375397455225033,0.0
17.845976,0.1429700284642709,0.0
17.848355999999995,0.1479979433155,0.0
17.850752,0.149440965554476,0.0
17.853139999999996,0.1458088511139798,0.0
17.855523999999996,0.14166487999428587,0.0
17.85792,0.14608839036770022,0.0
17.860307999999996,0.1518623751814735,0.0
17.862704,0.15442355443533118,0.0
17.865099999999998,0.1556342592488299,0.0
17.867488,0.15363215850241302,0.0
17.869867999999997,0.14548398588988537,0.0
17.872264,0.13961745327749508,0.0
17.874651999999998,0.13747558290421802,0.0
17.877032,0.13640464771757946,0.0
17.879427999999997,0.13118974141124706,0.0
17.881816,0.12490389991827608,0.0
17.884195999999996,0.1234136558510569,0.0
17.886592,0.11298384323839203,0.0
17.888979999999997,0.10977103767847646,0.0
17.891376,0.10590660581250297,0.0
17.893772,0.10725708025286192,0.0
17.896160000000002,0.10767638913344255,0.0
17.898539999999997,0.10809569801402319,0.0
17.900943999999996,0.11480084838757479,0.0
17.903332,0.11936412838784932,0.0
17.905712,0.118432962828071,0.0
17.908108,0.10951033507266739,0.0
17.910496000000002,0.10657706876647222,0.0
17.912875999999997,0.10406311134085768,0.0
17.915272,0.09968682279568648,0.0
17.917659999999998,0.09518770541369723,0.0
17.92004,0.08947788321820924,0.0
17.922435999999998,0.0819057299031646,0.0
17.924824,0.07233147584170312,0.0
17.927208,0.06489909215351869,0.0
17.929612,0.061733508421846245,0.0
17.932000000000002,0.05444089436052203,0.0
17.934379999999997,0.05714184324123993,0.0
17.936776000000002,0.05290532432292896,0.0
17.939163999999998,0.04933737250071802,0.0
17.941544,0.04255661511859148,0.0
17.943939999999998,0.036707023296243264,0.0
17.946328,0.0327197625934517,0.0
17.948707999999996,0.025659465957604738,0.0
17.951104,0.019530334881536108,0.0
17.953491999999997,0.014611908618966215,0.0
17.955875999999996,0.015526133388702405,0.0
17.958272,0.010607707126132513,0.0
17.960659999999997,0.006480676796480732,0.0
17.963056,0.008343007916037374,0.0
17.965452,0.011399103059050623,0.0
17.967839999999995,0.014455198202063872,0.0
17.970219999999998,0.0165801277852988,0.0
17.972623999999996,0.0165801277852988,0.0
17.975012,0.0165801277852988,0.0
17.977392000000002,0.016580127785298802,0.0
17.979788,0.01777389180875541,0.0
17.982175999999995,0.014717796665742158,0.0
17.984555999999998,0.01459496782892408,0.0
17.986952000000002,0.015928501479240898,0.0
17.98934,0.01833297031619625,0.0
17.99172,0.02115674803373223,0.0
17.994115999999998,0.022769820937769466,0.0
17.996499999999997,0.025733368282165655,0.0
17.998896000000002,0.025733368282165655,0.0
18.001292,0.025733368282165655,0.0
18.003679999999996,0.024819143512429472,0.0
18.006059999999998,0.024819143512429472,0.0
18.008463999999996,0.024819143512429472,0.0
18.010852,0.021763048369416216,0.0
18.013232000000002,0.01870695322640297,0.0
18.015628,0.015650858083389722,0.0
18.018016,0.013525928500154796,0.0
18.020396,0.013525928500154796,0.0
18.022791999999995,0.013525928500154796,0.0
18.02518,0.012332164476698187,0.0
18.02756,0.01113840045324158,0.0
18.02996,0.011400998916919865,0.0
18.032348,0.011400998916919867,0.0
18.034728,0.010067465266603048,0.0
18.037124,0.007662996429647698,0.0
18.039516,0.004839218712111717,0.0
18.041896,0.0032261458080744786,0.0
18.044292,0.0002625984636782881,0.0
18.04668,0.0002625984636782881,0.0
18.049064,0.0002625984636782881,0.0
18.05146,0.0002625984636782881,0.0
18.053848,0.0002625984636782881,0.0
18.056228,0.0002625984636782881,0.0
18.058624,0.0030391543529711173,0.0
18.061012,0.008097350242401217,0.0
18.063396,0.008097350242401217,0.0
18.065792,0.010222279825636147,0.0
18.06818,0.013278374968649396,0.0
18.070564,0.014332369365245793,0.0
18.07296,0.01817986044117715,0.0
18.075348,0.02044455965127229,0.0
18.077744,0.027382027450301164,0.0
18.08014,0.03458209371300833,0.0
18.082528,0.042713325535493805,0.0
18.084912,0.04791129105178411,0.0
18.087308,0.05110715582165757,0.0
18.089696,0.055234186151309345,0.0
18.092076,0.05642795017476597,0.0
18.094472,0.05669054863844426,0.0
18.09686,0.056690548638444256,0.0
18.099244,0.0590950174753996,0.0
18.10164,0.0593576159390779,0.0
18.104028,0.05962021440275619,0.0
18.106412,0.056843658513463347,0.0
18.108808,0.05178546262403326,0.0
18.111196,0.05178546262403326,0.0
18.113576,0.04966053304079833,0.0
18.115976,0.04660443789778508,0.0
18.11836,0.045550443501188684,0.0
18.120744,0.041702952425257324,0.0
18.12314,0.039438253215162186,0.0
18.125528,0.03223818695245502,0.0
18.127912,0.025038120689747864,0.0
18.130316,0.01690688886726238,0.0
18.1327,0.011708923350972062,0.0
18.13508,0.008513058581098604,0.0
18.137484,0.004386028251446822,0.0
18.139872,0.0060160419455261935,0.0
18.142252,0.011650257132439267,0.0
18.144652,0.0164761355963921,0.0
18.147036,0.016755674850112517,0.0
18.14942,0.02024801966374853,0.0
18.151824,0.02360059485052433,0.0
18.154208,0.02600506368747968,0.0
18.156588,0.02948046771107356,0.0
18.158988,0.03267633248094702,0.0
18.161376,0.03494103169104216,0.0
18.163756,0.03599502608763855,0.0
18.166152,0.035995026087638556,0.0
18.16854,0.035995026087638556,0.0
18.170919999999995,0.035995026087638556,0.0
18.173316,0.035995026087638556,0.0
18.175704,0.035995026087638556,0.0
18.178084,0.035995026087638556,0.0
18.180484,0.035995026087638556,0.0
18.182872,0.038631812350071175,0.0
18.185252,0.041268598612503794,0.0
18.187656,0.03844482089496781,0.0
18.190044,0.03254800724437645,0.0
18.192423999999995,0.027722128780423624,0.0
18.19482,0.025038120689747857,0.0
18.197208,0.021283177412433556,0.0
18.199592,0.017668003761979467,0.0
18.201988,0.015263534925024117,0.0
18.204376,0.011788130901430235,0.0
18.206756,0.008592266131556775,0.0
18.209156,0.010454597251113416,0.0
18.211544,0.01538996430372544,0.0
18.213924,0.022310491312712177,0.0
18.21632,0.03202451500103388,0.0
18.218708,0.03973643794293873,0.0
18.221092,0.04665696495192547,0.0
18.223488,0.05050445602785683,0.0
18.225876,0.05234984635737134,0.0
18.228272,0.056057567806442485,0.0
18.230668,0.05526617187352438,0.0
18.233056,0.05661664631388332,0.0
18.23544,0.06260600776309175,0.0
18.237836,0.07152863551849534,0.0
18.240224,0.08245336402031578,0.0
18.242608,0.09123622214885917,0.0
18.245004,0.10216095065067962,0.0
18.247396,0.11429638396599878,0.0
18.249776,0.12135668060184573,0.0
18.25218,0.12869651649141312,0.0
18.254564,0.1361761220078407,0.0
18.256948,0.13952869719461652,0.0
18.259344,0.1380856749556405,0.0
18.261728,0.13492009122396803,0.0
18.264108,0.1303114852533196,0.0
18.266504,0.13278011670856021,0.0
18.268892,0.13790247521627563,0.0
18.271272,0.14809997040346326,0.0
18.273676,0.1615102711505665,0.0
18.276064,0.17105614003169617,0.0
18.278444,0.1823245704055223,0.0
18.28084,0.1863759937265992,0.0
18.283228,0.18241901406200864,0.0
18.285612,0.17349638630660505,0.0
18.288008,0.1625716578047846,0.0
18.290392,0.1537887996762412,0.0
18.292776,0.14286407117442076,0.0
18.295172,0.13072863785910158,0.0
18.297556,0.12366834122325462,0.0
18.29994,0.11632850533368726,0.0
18.302336,0.10884889981725968,0.0
18.30472,0.10136929430083208,0.0
18.307116,0.09682295509059968,0.0
18.309512,0.09306801181328538,0.0
18.3119,0.09003461427699617,0.0
18.31428,0.08913929539824555,0.0
18.316676,0.09862277558817814,0.0
18.319064,0.1183452852199338,0.0
18.321444,0.15338196097298476,0.011072669651184364
18.32384,0.20177792392915728,0.021608188303929507
18.326228,0.25859780703583934,0.03217344795438613
18.328624,0.33473605775665033,0.042279436657048246
18.33102,0.4368506046368988,0.05163356510519991
18.333408,0.555380533863282,0.060781621317855826
18.335788,0.6872697502927869,0.06972636297281724
18.338184,0.8335891891120517,0.07844451940673881
18.340572,0.9920572103209394,0.08710378509330075
18.342952,1.1649082320913444,0.09567955971425658
18.345355999999995,1.3565657647966802,0.10399039670817598
18.347744,1.562373980638056,0.11221248203876265
18.350124,1.7802382310704377,0.12036557937946538
18.35252,2.0021501131081574,0.1286992256932124
18.354908,2.235326633803965,0.13697402614736137
18.357288,2.480978497971359,0.14515006339771475
18.359688,2.735405567592745,0.15315346762537918
18.362072,2.985552688183316,0.16108561676069025
18.364456,3.2212242604137526,0.16903405674378885
18.366852,3.4429321409632525,0.17701192033849047
18.36924,3.647695841697378,0.17395032778241276
18.371624,3.8454786445199707,0.17134695826497867
18.37402,4.0412631383118836,0.16854447331708589
18.376408,4.222060227064467,0.16615461795545292
18.378784,4.376276615179796,0.16460523066900531
18.381188,4.516529311614189,0.16322946091593313
18.383576,4.645657139017355,0.16204232172776217
18.385956,4.760866600709958,0.1610947235627502
18.388352,4.86420701926666,0.16018466623535277
18.390736,4.951581645396008,0.1593749392449847
18.393132,5.017728350963426,0.15891228057313075
18.395528,5.07153948268612,0.15855537761346442
18.397916,5.1183224946690355,0.15819448717947232
18.400296,5.167855573218782,0.15750290459031774
18.402692,5.208033566058241,0.1567811959239988
18.40508,5.232710401321301,0.1561781477167256
18.40746,5.244258370948847,0.15581465730038238
18.409864,5.2532451613225355,0.15554561365121178
18.412252,5.269821045801312,0.15511997331866242
18.414632,5.28602484322775,0.15466680554628265
18.417036,5.297200725802958,0.15427764065556882
18.419424,5.299576809459582,0.15409469987942226
18.421804,5.296550995354771,0.15411759076257198
18.4242,5.299437039832722,0.15410607375572288
18.426587999999995,5.310656352520437,0.15397962302197848
18.428968,5.319454255581153,0.1539327733696746
18.431364,5.324807035656477,0.15394016794376603
18.433748,5.332953312411136,0.15389156227563372
18.436132,5.3479898351365796,0.15374119256101024
18.438536,5.367821955287775,0.15349242625111845
18.44092,5.386909901334296,0.1531905291154997
18.443304,5.40166878066389,0.15290389971334928
18.4457,5.408047169955477,0.15278449347765388
18.448084,5.41121275368715,0.15275381422846
18.450468,5.412329014844162,0.15282220833983637
18.452864,5.416750629359707,0.15285051262584012
18.455252,5.42359365350225,0.1528018112591044
18.457644,5.431507612831431,0.15272498862547954
18.46004,5.435742235891872,0.15281602130037733
18.462428,5.448449896788936,0.15279536224860754
18.464808,5.471819687724141,0.15255731225471222
18.467203999999995,5.504967664965955,0.1520668058940925
18.469592,5.536952159222512,0.15155832527267657
18.471972,5.566143156799734,0.15111253900048308
18.474368,5.595334154376956,0.15067189499518363
18.476756,5.628808892700733,0.15012705908413254
18.47914,5.661120148039253,0.14956014993459413
18.481536,5.686121848526407,0.14911538229811444
18.48392,5.701392584535197,0.14887149143028575
18.486316,5.715033306849908,0.14869636252644616
18.488712,5.732491239202351,0.14849517600951245
18.4911,5.7523233593535466,0.14827101488970104
18.49348,5.779372486557491,0.14788149194902975
18.495876,5.805210908947938,0.14753518973896723
18.498264,5.835425619883556,0.14713123663017794
18.500644,5.86708335305815,0.14672705242534245
18.503044,5.898741086232743,0.1463240935778789
18.505428,5.9301665019818595,0.14589393756898408
18.507824,5.960196117320243,0.14541864390716774
18.51022,5.9827764081804,0.14507634253801066
18.512608,5.998279461614668,0.14488329281889967
18.514987999999995,6.003911780943712,0.1448806103938531
18.517384,6.006238746914223,0.14491119995422927
18.519768,6.002327093220007,0.14503184127806784
18.522152,6.001348705831985,0.14509578507633292
18.524548,5.9988800743767445,0.14521062287994613
18.526932,5.9977146955336185,0.14533247211214168
18.529328,6.001344914116246,0.14536901831225274
18.531724,6.007676081579591,0.1453186511842719
18.534112,6.01228468755024,0.14529022993182414
18.536492,6.019314703147885,0.14519517999750323
18.538888,6.031047768372667,0.14497837976992886
18.541276,6.039335710612055,0.1448061924885276
18.543656,6.042735507627072,0.14467774174503947
18.546052,6.038313893111527,0.14464660812261151
18.54844,6.0323094867301466,0.14462686649958048
18.55082,6.028586720348902,0.14455076715728546
18.55322,6.023141392474962,0.1444944937700499
18.555608,6.014203719787385,0.1445268135515655
18.557988,6.008059543779144,0.14451540100704566
18.560384,6.0055002603831555,0.144454609625535
18.562771999999995,6.008248431092118,0.14432300359208577
18.565152,6.018445926279305,0.144073534205232
18.567552,6.034230414825163,0.14373299847420848
18.569939999999995,6.0445676796392105,0.14347563026445748
18.572336,6.053461922214282,0.14322096558348285
18.574732,6.064637804789491,0.14291035125545387
18.57712,6.075441600312362,0.14257985132117387
18.5795,6.084522834342538,0.14226880869387606
18.581908,6.09616524762657,0.14188633741348983
18.584292,6.1031518331117125,0.14157756456408763
18.586672,6.105714908223439,0.14137256143173835
18.589068,6.108510300760642,0.1411977240531303
18.591456,6.115681981843019,0.14097017170695564
18.593836,6.129511591470703,0.14063570212236856
18.596236,6.141478869978829,0.14032828189222193
18.59862,6.150884969233099,0.14009462279108373
18.601,6.16345665221904,0.13984199592188193
18.6034,6.180871154458978,0.13946316407707887
18.605788,6.196330777780741,0.1390757843285242
18.608168,6.2112785444233065,0.13867918646824817
18.610564,6.226505850319593,0.13826720579880403
18.612952,6.238008493976765,0.1379130283341881
18.615336,6.248906733156123,0.13751204010186088
18.617732,6.25608031009637,0.13716001040283474
18.62012,6.263765743715813,0.13681981814122282
18.6225,6.271823264387591,0.13650248275296337
18.6249,6.282534512111845,0.13615719894530912
18.627284,6.30018322763513,0.13570036288807968
18.629667999999995,6.313408432784998,0.13533776872507247
18.632072,6.3287282864799,0.13497751056064908
18.63446,6.344559996854001,0.13463013520710668
18.63684,6.360159389802623,0.13425480836915343
18.639236,6.372453429392714,0.13390627030105076
18.641624,6.380091641183913,0.13362265413213614
18.644008,6.391314745587366,0.13329701979728098
18.646404,6.404819489990955,0.13292302459760905
18.648792,6.415438189916593,0.13255183314929614
18.651171999999995,6.423775249842093,0.13223143833665402
18.653576,6.433275792752847,0.13192848375129487
18.65596,6.4414258612232445,0.13166306888892085
18.658344,6.4503673256265595,0.13139550095892655
18.66074,6.4585173940969565,0.13113179970543443
18.663128,6.46648047111225,0.1309227952021628
18.665508,6.4848261389119655,0.13057641984197596
18.667912,6.505965303391017,0.13019658135591033
18.670296,6.526872150444589,0.1297914887525342
18.672676,6.542331773766352,0.12944968569301152
18.675072,6.548851828542672,0.12924509578077997
18.67746,6.558584688878904,0.12898195591144587
18.679844,6.568225001416519,0.12868315735453545
18.68224,6.576701830968879,0.12836770951438675
18.684624,6.581453998282126,0.1280967778703582
18.687024,6.58778895746121,0.12781838102559925
18.68942,6.596358334812186,0.1275369250939292
18.691808,6.603996546603385,0.12726853736036883
18.694188,6.60856172246153,0.1270508948891695
18.696591999999995,6.612288280558512,0.1268805749861495
18.69898,6.617737400148191,0.12669580068126582
18.70136,6.622255354178091,0.12652266964112205
18.703764,6.626121681901934,0.12634465584224908
18.706152,6.624401016267107,0.12623428164090042
18.708532,6.623751285818919,0.1261044890600977
18.710928,6.620308058691395,0.1260086455466367
18.713316,6.6112778382052015,0.12597994705053367
18.7157,6.603226005107029,0.12589559873218645
18.718096,6.595313941635718,0.1258029583273892
18.720484,6.5917781667095765,0.12567199713488164
18.722868,6.590756349209051,0.12552344954706535
18.725264,6.586661495775469,0.12542292857508852
18.727648,6.584149434207725,0.12531650017084867
18.730028,6.5812180637593976,0.12523318508718903
18.732428,6.584385543348941,0.1250978294385446
18.734812,6.58941535405804,0.12494174466451524
18.737196,6.596214948088076,0.1247299157496837
18.739592,6.60143175025228,0.12452399088352432
18.74198,6.607719487603119,0.12429953661312393
18.744364,6.615357699394318,0.12404104925421283
18.74676,6.620062644879321,0.12382170578413311
18.749148,6.624115964058268,0.12359728793673677
18.751532,6.630962779916549,0.1233418448433583
18.753928,6.644607293946999,0.12299693938896057
18.756316,6.661557161335981,0.12263690761301536
18.7587,6.681300525404298,0.122244796335508
18.761096,6.699693415032257,0.12188568609974296
18.763484,6.711241384659804,0.12165900333870028
18.765868,6.723021671712826,0.12146222940457296
18.768264,6.735733124325629,0.1212579417210147
18.770652,6.75058644731171,0.12101831478367232
18.773036,6.77051490697726,0.12070699845672955
18.775432,6.789372431456174,0.12041559148277223
18.77782,6.812094387801061,0.12007872236714306
18.7802,6.831091681906833,0.11978280350673584
18.7826,6.850508284893187,0.11946871060177983
18.784988,6.8675034782525435,0.11920564861762005
18.787372,6.885941693850876,0.11894576109339297
18.789764,6.905171305382125,0.11868454143266953
18.792152,6.924121377659655,0.11843849710742381
18.794532,6.946796112176298,0.11815444760077999
18.796935999999995,6.971705264864835,0.11787193566131854
18.799324,6.9956832519935945,0.11760158854969334
18.801704,7.018590303935715,0.11735196703724331
18.8041,7.038052232892443,0.11712747951204888
18.806488,7.0577937011028915,0.1168902956825427
18.808868,7.079677039686617,0.11662078849253742
18.811264,7.1081257590170335,0.1162474198661444
18.813652,7.13112725461564,0.11591937130785876
18.816044,7.148262217601857,0.11566009787878535
18.818444,7.165397180588075,0.11540239129972284
18.820828,7.176897928387378,0.11523973012431112
18.823212,7.183742848387789,0.11512119851129021
18.825607999999995,7.187794271708866,0.1150304151297966
18.827996,7.194778961336138,0.11490603378883138
18.830376,7.199062702082692,0.11484241450660562
18.832772,7.202415277269467,0.11478752286500991
18.83516,7.205255995777045,0.1147204331473933
18.83754,7.209307419098122,0.11463100511229352
18.83994,7.215500712792476,0.1145106794932366
18.842324,7.225186351300465,0.11433240521438487
18.844708,7.2327773412634215,0.11414542844404638
18.847104,7.242370431972795,0.11393658437082875
18.849492,7.248099090816193,0.11376795622123849
18.851887999999995,7.253687980032733,0.11360642180674885
18.854284,7.259276869249273,0.11344575432871605
18.856672,7.265005528092672,0.11327908691203993
18.859055999999995,7.266310676562656,0.11317916001962272
18.861452,7.274273753577949,0.11301594375272032
18.86384,7.287311967272715,0.11279185562257513
18.866223999999995,7.30128134652726,0.11256136199141306
18.86862,7.320233314662659,0.11223846914888758
18.871008,7.346262520223947,0.11183300430832892
18.873388,7.372291725785235,0.11142816710859255
18.875784,7.395667204294048,0.11104213073142662
18.878172,7.417739430190746,0.11064361522467343
18.880552,7.442093296087582,0.11020987159439068
18.882952,7.467518097171055,0.10976386613795186
