Time,Force,Position
16.82592,0.10863296767698807,0.0
16.828324,0.10821365879640743,0.0
16.830707999999998,0.10807388916954722,0.0
16.833088,0.10900505472932552,0.0
16.835492,0.10686318435604845,0.0
16.83788,0.10714272360976887,0.0
16.840256,0.10928459398304594,0.0
16.84266,0.11077483805026508,0.0
16.845048,0.11133391655770594,0.0
16.847428,0.10774902394545287,0.0
16.849832,0.10509529689297813,0.0
16.852216,0.0995083035343082,0.0
16.854596,0.09685457648183345,0.0
16.857,0.09326968386958037,0.0
16.859388,0.09047580365568139,0.0
16.861767999999998,0.08875285862842094,0.0
16.864172,0.0878213095340786,0.0
16.86656,0.08595859487995794,0.0
16.86894,0.08423564985269749,0.0
16.871344,0.08144176963879851,0.0
16.873732,0.07757695423826101,0.0
16.876108,0.07077887253152833,0.0
16.878512,0.0627700860112969,0.0
16.8809,0.05369036430442693,0.0
16.88328,0.04754390890375215,0.0
16.885683999999998,0.039115813502940106,0.0
16.888071999999998,0.029756552542349723,0.0
16.890452,0.02118868751467746,0.0
16.892848,0.013691757673643728,0.0
16.895236,0.009267863765665374,0.0
16.897616,0.003912804297908701,0.0
16.900019999999998,0.007869783962499252,0.0
16.902407999999998,0.007822562134256101,0.0
16.904788,0.0097774410524298,0.0
16.907183999999997,0.0101499116393313,0.0
16.909572,0.01038261259937259,0.0
16.911952,0.01038261259937259,0.0
16.914355999999998,0.0108948528131343,0.0
16.916743999999998,0.012478028213534538,0.0
16.919124,0.012478028213534538,0.0
16.921519999999997,0.012478028213534538,0.0
16.923907999999997,0.012478028213534538,0.0
16.926288,0.012478028213534538,0.0
16.928684,0.012478028213534538,0.0
16.931072,0.012478028213534538,0.0
16.933452,0.012478028213534538,0.0
16.935848,0.012478028213534538,0.0
16.938232,0.012478028213534538,0.0
16.940616,0.012478028213534538,0.0
16.943012,0.012478028213534538,0.0
16.9454,0.012478028213534538,0.0
16.947779999999998,0.007170190574021018,0.0
16.950176,0.004935388867562878,0.0
16.952564,0.002700587161104738,0.0
16.954943999999998,0.0023281165742032386,0.0
16.957348,0.0020954156141619502,0.0
16.959732,0.0020954156141619502,0.0
16.962111999999998,0.0015831754004002406,0.0
16.964508,0.0,0.0
16.966896,0.004097132826014782,0.0
16.969276,0.010336136025306624,0.0
16.97168,0.018437470344155105,0.0
16.974068,0.022162516117832407,0.0
16.976447999999998,0.02989176338434341,0.0
16.978844,0.04162521214368812,0.0
16.981232,0.05335866090303282,0.0
16.983611999999997,0.06616304484901606,0.0
16.986016,0.0797588247279174,0.0
16.988404,0.09642764053987413,0.0
16.990783999999998,0.1109545859785538,0.0
16.993184,0.12441059623059493,0.0
16.995568,0.1397289376021927,0.0
16.997947999999997,0.15425588304087237,0.0
17.000352,0.1677118932929135,0.0
17.002736,0.17637230611920282,0.0
17.005115999999997,0.1839617837588536,0.0
17.00752,0.18968893027894776,0.0
17.009908,0.19313443679890463,0.0
17.012287999999998,0.19671971294572171,0.0
17.014684,0.19727879145316254,0.0
17.017068,0.19676693477396487,0.0
17.019448,0.19318204216171178,0.0
17.021852,0.19690670440082506,0.0
17.024236,0.19970020108016004,0.0
17.026616,0.19355412921404927,0.0
17.02902,0.18754782697479874,0.0
17.031408,0.1793996543622711,0.0
17.033787999999998,0.16859775469726876,0.0
17.036184,0.15500235835293144,0.0
17.038572,0.14541116350142783,0.0
17.040952,0.13595973827678443,0.0
17.043356,0.12464598193258436,0.0
17.04574,0.11891921894705423,0.0
17.048119999999997,0.11440316077502283,0.0
17.050524,0.11361176484210474,0.0
17.052912,0.1108182681627698,0.0
17.055291999999998,0.11389130409582517,0.0
17.057696,0.11924598002901783,0.0
17.06008,0.12418134708162985,0.0
17.062459999999998,0.12897694450738167,0.0
17.064864,0.1284178659999408,0.0
17.067252,0.1282780963730806,0.0
17.069632,0.1252050604400252,0.0
17.072028,0.11468231649417926,0.0
17.074416,0.11025880612076491,0.0
17.076795999999998,0.10462459093385183,0.0
17.0792,0.1000613109335773,0.0
17.081588,0.09843129723949794,0.0
17.083968,0.09535787777187851,0.0
17.086364,0.09042212718470248,0.0
17.088752,0.08730186942340395,0.0
17.091131999999998,0.08329728439600623,0.0
17.093528,0.07449710194285669,0.0
17.095916,0.06565008119602803,0.0
17.098295999999998,0.05880516119561621,0.0
17.1007,0.059177248247953694,0.0
17.103088,0.053543033061040614,0.0
17.105468,0.0460464867545709,0.0
17.107864,0.03752584355514179,0.0
17.110252,0.028074034795934347,0.0
17.112631999999998,0.022905966783281037,0.0
17.115028,0.021183405290584604,0.0
17.117416,0.017458743051471323,0.0
17.119812,0.01997308401164988,0.0
17.122208,0.018809217491830274,0.0
17.124596,0.01936829599927111,0.0
17.126976,0.019275364666090037,0.0
17.129372,0.018111498146270427,0.0
17.13176,0.018763507986892348,0.0
17.13414,0.019415517827514266,0.0
17.13654,0.018531190561415074,0.0
17.138924,0.018531190561415074,0.0
17.141303999999998,0.018531190561415074,0.0
17.1437,0.018438259228233996,0.0
17.146088,0.017414162335274597,0.0
17.148484,0.01224609432262129,0.0
17.150879999999997,0.009080127056384828,0.0
17.153268,0.00777649090970501,0.0
17.155648,0.015216719633149377,0.0
17.158044,0.033407834477614466,0.0
17.160432,0.06863567693607125,0.0
17.162812,0.11349776082397231,0.011362267633977435
17.165215999999997,0.16985680079543833,0.022378816394299603
17.167604,0.2382246535296669,0.03268917195687681
17.169984,0.3260038052112056,0.042384545700949135
17.17238,0.42988813541239357,0.05169223190649557
17.174768,0.5489472456425807,0.06077509377299309
17.177148,0.6787119160234147,0.06977897989523385
17.179544,0.8214634030204687,0.07856792468866464
17.181928,0.9765957898326229,0.08734751298903806
17.184307999999998,1.1472750437261134,0.0960491954542915
17.186716,1.3382038307935114,0.1044569996497795
17.1891,1.5472875024897828,0.11263623506431837
17.191484,1.7637241591499253,0.12094013948971569
17.19388,1.992821254878888,0.1292388450837394
17.196268,2.2367206600499485,0.13746435895892445
17.198648,2.5007317246259255,0.14536981847605185
17.201044,2.774985610359464,0.15306958752292574
17.203432,3.0426378851307194,0.1607086155668013
17.205824,3.294930667810305,0.16838404668002505
17.208228,3.5207352976512563,0.1762583904125099
17.210615999999998,3.735135519207259,0.17280660942734338
17.212996,3.943206469157787,0.16966555980038087
17.2154,4.139176058546934,0.1671484210769024
17.217783999999998,4.313919623232023,0.16526516203734326
17.220164,4.468600646198307,0.16381497236338657
17.222555999999997,4.613135187521386,0.16251447489386525
17.224944,4.749850213171769,0.16128065920377135
17.227324,4.870644772365172,0.16033138662679602
17.22972,4.978034718385081,0.15936604018595235
17.232108,5.0673642234326035,0.15851309799351238
17.234488,5.133231389746303,0.1580461057998261
17.236884,5.181687845535803,0.1578551556045593
17.239272,5.231032036772578,0.15737389735401372
17.241668,5.272418838567665,0.15675062287321379
17.244068,5.294394724950007,0.1562382051813061
17.246456,5.294117081554155,0.15610450676557958
17.248836,5.284201021478557,0.15623380058213565
17.251231999999998,5.279684963306527,0.1563137213671655
17.253615999999997,5.286854748531033,0.1561921673175733
17.256,5.301893167114346,0.15588645353163913
17.258395999999998,5.312974606033068,0.15561777373247787
17.260783999999997,5.326058145698208,0.1553087074771723
17.263164,5.34090957282642,0.15507506168918134
17.26556,5.364466355216729,0.1547578487885052
17.267948,5.390816634286373,0.15438291799302853
17.270328,5.407203631452175,0.15418458047163944
17.272724,5.420936901565503,0.15403070746859193
17.275112,5.439698086530061,0.15380715030743586
17.277496,5.463859273398185,0.15354377574650788
17.279899999999998,5.4926762880652,0.15319100990582704
17.282287999999998,5.523263086053155,0.15275043417480785
17.284668,5.55017244363024,0.1523221847751765
17.287063999999997,5.5660003622886025,0.15216245085962313
17.289452,5.5796391887454435,0.15211773507390708
17.291836,5.597746851546074,0.1520451268028699
17.294231999999997,5.613759865801671,0.15197132726107543
17.29662,5.6265147485269775,0.1518836072463081
17.299,5.635405199386311,0.1518825482511827
17.301396,5.640383996551427,0.15201590325963027
17.303784,5.652951887821631,0.1520031991717256
17.306179999999998,5.671433533532467,0.15181796562943892
17.308576,5.683164702899379,0.1517216240802284
17.310959999999998,5.686422834429669,0.15173433416761775
17.31334,5.684745598907346,0.15185063133827187
17.315744,5.684371615997139,0.15197196502763993
17.318132,5.6949393023787955,0.15186072329792286
17.320511999999997,5.703831649095998,0.15172143171468863
17.322907999999998,5.707975620215692,0.1516247586398858
17.325295999999998,5.7103970298426905,0.1515534830366609
17.327676,5.711700282454806,0.15155876219091244
17.330068,5.714865866186479,0.15153131106599999
17.332456,5.719102385104789,0.15147679781993736
17.334847999999997,5.727530096971037,0.1512744856794711
17.337244,5.735026643277506,0.15109091044280357
17.339631999999998,5.748389722196366,0.15079344546972756
17.342012,5.764126988913981,0.15046967329576907
17.344416,5.782006126004872,0.15009036759082026
17.346804,5.796859448990951,0.14973161637409485
17.349183999999997,5.807476253058719,0.14942861039436722
17.351588,5.813949086006795,0.14922544486925735
17.353972,5.819583301193706,0.14908136546401854
17.356351999999998,5.823215415634203,0.1489768254292878
17.358748,5.8357870986201466,0.14868950407501352
17.361136,5.850919960859945,0.14832377714349418
17.363519999999998,5.867263527913243,0.1479263863890609
17.365924,5.8771814838467105,0.14768405079413996
17.368308,5.888682231646015,0.1474285484324886
17.370687999999998,5.902324849818593,0.14712147227766936
17.373084,5.909169769819005,0.14694218255653935
17.375472,5.918575869073274,0.14668640101312694
17.377852,5.93021638649944,0.1464232829653539
17.380256,5.947351349485657,0.14603018228441403
17.382644,5.961413276538817,0.14570198744376697
17.385023999999998,5.972961246166365,0.14540179400630815
17.387428,5.9805050143010785,0.14518559114798704
17.389816,5.994706710981099,0.14485839516254603
17.392196,6.009280494713458,0.14455205340231353
17.3946,6.027439171058069,0.144198347593255
17.396988,6.045597847402682,0.14384196249706463
17.399372,6.06561885486685,0.14346232204716872
17.401768,6.085500092704159,0.14309606969854297
17.404156,6.110828554273277,0.14265019560117256
17.406532,6.128288382483587,0.14234687441963126
17.408936,6.1445375058803995,0.1420780263100525
17.411324,6.160646859650351,0.1418212978370752
17.413704,6.175825047860525,0.14157597490386933
17.4161,6.194076272003754,0.14127424861639795
17.418488,6.214329596893399,0.1409386548934247
17.420868,6.239658058462517,0.14050217056712824
17.423264,6.260330692232743,0.1401381568426369
17.425652,6.277558203017577,0.13981465750022495
17.428031999999998,6.293015930481471,0.13956238744155172
17.430428,6.312058550557618,0.13926441794629824
17.432816,6.333243041007042,0.13892274455768128
17.435195999999998,6.3539156747772685,0.13857225212315902
17.437592,6.369792711121742,0.13830158636927295
17.43998,6.388742783399271,0.1379769013447459
17.44236,6.40289725825105,0.13772718367987022
17.44476,6.419333373102965,0.13742649667083873
17.447143999999998,6.426318062730237,0.1372638408953987
17.449527999999997,6.431440421237953,0.13712806345010062
17.451923999999998,6.436702549372528,0.1369852887267135
17.454311999999998,6.449041914932994,0.13671884146770932
17.456708,6.456073826388508,0.13651147240945868
17.459104,6.460312241164688,0.13634359233405877
17.461488,6.469625792620341,0.1360863296653865
17.463872,6.474655603329439,0.13591514345104216
17.466276,6.478614478851899,0.13576623529740908
17.46866,6.484063598441578,0.13557328421232998
17.47104,6.491235279523953,0.13536269245672083
17.473444,6.501060687658803,0.13512322240095193
17.475832,6.507952829487457,0.13492986117398864
17.478212,6.514333114636914,0.134726113736666
17.480608,6.516848967920398,0.13457963924368022
17.482996,6.516431554897687,0.1344783970154029
17.485376,6.5133604148225,0.13440601201499766
17.487772,6.508566713254618,0.13435021131741567
17.49016,6.504843946873374,0.13427385883324716
17.492539999999998,6.501400719745851,0.13418119795527572
17.494944,6.505826125977134,0.1339649208313428
17.497332,6.506247330715584,0.13381341097236388
17.499712,6.5057373698942556,0.13367504606371144
17.502115999999997,6.501362977206954,0.13359429098650585
17.504504,6.50378628269182,0.13341090032729
17.506884,6.5083514585499636,0.1331868112373629
17.509276,6.5109145336616905,0.13299691619743984
17.511664,6.516969953587054,0.13273123312533452
17.514039999999998,6.521302812019721,0.13248184649635097
17.516444,6.522562634519332,0.13228510948996347
17.518832,6.5238224570189445,0.13208837248357594
17.521216,6.522288782839221,0.13192738630877227
17.523619999999998,6.523036748659634,0.13171883323927677
17.526007999999997,6.522853548920269,0.13152259498647306
17.528388,6.523461745113823,0.1313212010234407
17.530791999999998,6.525932272426933,0.13109554993070685
17.533179999999998,6.53599189384513,0.13076862314084522
17.53556,6.545911745636466,0.13045153041055207
17.537964,6.556250906308383,0.13011017355194748
17.540347999999998,6.565239592539942,0.12980590385740165
17.542728,6.575159444331278,0.12949387708180024
17.545132,6.591365137615584,0.1290728202016863
17.54752,6.605988039034055,0.128659862473943
17.549899999999997,6.621821645266025,0.12822055837690569
17.552296,6.636584316311357,0.12780428265193128
17.554683999999998,6.649344886610271,0.1274188339032583
17.557064,6.660243125789629,0.1270560140443674
17.559459999999998,6.667928559409071,0.12675115501481235
17.561844,6.678547259334708,0.1264072150084788
17.564224,6.689817585566405,0.12606762276574893
17.566632,6.703369551798238,0.12568519786957408
17.56902,6.716409661350873,0.125288838494685
17.5714,6.728518605343729,0.12490494077038652
17.573795999999998,6.74300173713534,0.1245149611804949
17.576183999999998,6.762699775233283,0.12404326547890238
17.578564,6.784399914077644,0.12354583991245895
17.580968,6.800373289936474,0.12312303842538393
17.583351999999998,6.814624104302608,0.12271404644543472
17.585732,6.829386775347938,0.12231786639663723
17.588127999999998,6.842287115273713,0.12194119443549979
17.590515999999997,6.850391857773737,0.12162442862053177
17.592896,6.858356830646899,0.1213180974414068
17.595299999999998,6.8659024946394815,0.12103359940390813
17.597687999999998,6.869536504937847,0.12083811302256371
17.600068,6.869026544116519,0.12070530908244036
17.602463999999998,6.869447748854969,0.12056221596554073
17.604851999999998,6.872662450272753,0.12038907314860302
17.607236,6.876668547623456,0.12021313050118461
17.609631999999998,6.880674644974159,0.12003886078922191
17.612019999999998,6.884029116018804,0.1198594448207311
17.6144,6.8863126518768105,0.11969849303559107
17.616795999999997,6.8926929370262675,0.11951877492542481
17.619184,6.898933452548865,0.11934677020539369
17.621564,6.899866513966513,0.11921833111174883
17.623963999999997,6.897307230570525,0.1191560111614294
17.626348,6.893537242361037,0.11911789158758944
17.628732,6.892700520457745,0.11904415068106973
17.631128,6.897590561539984,0.11890801639454095
17.633516,6.903132228928278,0.11877731825369575
17.635896,6.911187853742191,0.1186330396789252
17.638292,6.922828371168354,0.11845908355731948
17.64068,6.932466787848099,0.11831188902127907
17.643076,6.944247074901123,0.11813228024516216
17.645471999999998,6.965665778633894,0.11780791303877017
17.647859999999998,6.99616382053897,0.11736987098780143
17.650244,7.028524193563603,0.11691662345174633
17.652639999999998,7.061164105841956,0.1164548826172608
17.655027999999998,7.09394378774717,0.11598650990501613
17.657408,7.121508563346053,0.11559013685400646
17.659803999999998,7.153729166743826,0.11515426259262863
17.662191999999997,7.186741166074517,0.11472078826734457
17.664572,7.216308042419816,0.11430951810261096
17.666968,7.245735149138254,0.11390554688475786
17.669356,7.278607378842085,0.11348023448148732
17.671736,7.312690313359415,0.11303342130541234
17.674132,7.344119520824269,0.11260475342591265
17.67652,7.371544526796289,0.11222482822828403
17.678915999999997,7.391892295342422,0.11193451169855224
17.681312,7.414661473515552,0.11160308865370708
17.683699999999998,7.436918795009484,0.11126037863624554
17.68608,7.458524490197358,0.11091485064846161
17.68848,7.48013018538523,0.11056985440234622
17.690863999999998,7.503318672438943,0.1102254429220395
17.693244,7.5182192172532645,0.10998858128521544
17.695643999999998,7.524971589455061,0.10984983810755063
17.698031999999998,7.527068133857963,0.10975007316030515
17.700412,7.527814203820508,0.10967842133342526
17.702807999999997,7.531633309716107,0.10957110795634079
17.705195999999997,7.539596386731399,0.10941309809591844
17.707576,7.543834801507581,0.1092867563293861
17.709972,7.546071115537344,0.10918238309685416
17.71236,7.550309530313523,0.10905667523126562
17.714755999999998,7.556689815462981,0.10890366471671661
17.717152,7.562278704679519,0.10875189060474878
17.71954,7.568938529082697,0.10858730589490698
17.721919999999997,7.581325116471405,0.10837361020614744
17.724315999999998,7.59571380460653,0.10813830900486508
17.726699999999997,7.612244363114931,0.10787460788473296
17.72908,7.621697684197443,0.10768783308938178
17.731476,7.631942401212874,0.10750090249016651
17.733864,7.642047348601444,0.10732140038086219
17.736259999999998,7.652943691922934,0.107141564384171
17.738656,7.659323977072391,0.10699149513231995
17.741044,7.666914967035348,0.10682065698790004
17.743423999999997,7.676647827371581,0.10662191018393229
17.745828,7.691967681066484,0.1063800899383504
17.748216,7.703702642149133,0.1061600900377251
17.750595999999998,7.712224797671867,0.10598238356506348
17.752992,7.720607183567742,0.10581197095746545
17.75538,7.72684769909034,0.1056682287018389
17.757759999999998,7.734438689053296,0.10549871409362807
17.760156,7.740958743829613,0.10534315442611443
17.762544,7.742683201180178,0.105229027080563
17.764924,7.745478593717381,0.10510183232402845
17.767319999999998,7.743338619201973,0.10502210190763894
17.769707999999998,7.735611651327896,0.1049838805684944
17.772088,7.729747014573376,0.10493181367566855
17.774483999999998,7.724953313005493,0.10486654284487837
17.776875999999998,7.727236848863499,0.10472836890747257
17.779252,7.728728988788587,0.10459098186636753
17.781648,7.726496466474563,0.10448040111637173
17.784036,7.722681152294703,0.10437073974041695
17.786431999999998,7.721938874047896,0.10422813816484258
17.788828,7.722127761360869,0.10407867637936671
17.791216,7.72338758386048,0.1039165048008624
17.793595999999997,7.719060413001421,0.10379445536467481
17.795992,7.716735342888778,0.10365219631842607
17.798379999999998,7.711756545723661,0.10352340909558155
17.800763999999997,7.705706813371906,0.1034077634613045
17.80316,7.702590347326346,0.1032654746130497
17.805547999999998,7.69626107572087,0.10316219940069214
17.807931999999997,7.6922134441155325,0.10302670390793638
17.810328,7.694823741055502,0.10283879056605345
17.812715999999998,7.696363102808833,0.1026641252446514
17.815099999999997,7.704048536428275,0.10242540108141016
17.817504,7.710523265234219,0.10220431504760984
17.819888,7.716346367734104,0.1019785443765577
17.822271999999998,7.720307139114433,0.1017660777858815
17.824668,7.722545349002067,0.10156174753550666
17.827056,7.722921227770143,0.10136980472164832
17.829435999999998,7.728092703963971,0.10113983510377342
17.831832,7.737128612023772,0.1008796462102822
17.834215999999998,7.744162419337156,0.1006386812264427
17.836612,7.75240693146404,0.10037995544741327
17.839008,7.760791213217784,0.10011639512749212
17.8414,7.775042027583917,0.09980456348828212
17.84378,7.7950196049355815,0.09945345180572962
17.846176,7.818070218220301,0.09907128045419988
17.848564,7.840608974825823,0.09867690550513894
17.850944,7.8624961051252855,0.09827792178806932
17.85334,7.886525105798025,0.09785400965325468
17.855728,7.9073413009108515,0.09746805521844712
17.858107999999998,7.922570502665007,0.09711926849699716
17.860504,7.934866438112965,0.09679275380013677
17.862892,7.943949568001011,0.09650386926952116
17.865271999999997,7.959970165688083,0.09615747870455887
