Time,Force,Position
22.417172,0.08240011719105761,0.0
22.419552,0.07600454831122197,0.0
22.421948,0.06825850499102738,0.0
22.424332,0.05944152648419426,0.0
22.426728,0.05076431760422136,0.0
22.42912,0.04115594316447012,0.0
22.431508,0.033409899844275524,0.0
22.433888,0.026053123164666018,0.0
22.43628,0.017515683911553313,0.0
22.438664,0.010700806151137042,0.0
22.441044,0.006928922083780608,0.0
22.443459999999995,0.001976375442920978,0.0
22.445844,0.001307569548615471,0.0
22.448224,0.0004989940274497534,0.0
22.450627999999995,0.0004989940274497534,0.0
22.453016,0.0004989940274497534,0.0
22.455396,0.0004989940274497534,0.0
22.4578,0.0004989940274497534,0.0
22.460184,0.0011205780935121103,0.0
22.462564,0.00112057809351211,0.0
22.464968,0.0018819317864346764,0.0
22.467355999999995,0.0018819317864346764,0.0
22.469732,0.0018819317864346764,0.0
22.472136,0.0018819317864346766,0.0
22.474523999999995,0.0018819317864346766,0.0
22.476904,0.0018819317864346766,0.0
22.479308,0.0018819317864346766,0.0
22.481696,0.0014926651458495896,0.0
22.484075999999995,0.0014926651458495896,0.0
22.486476,0.002813097346212997,0.0
22.488864,0.0030926365999334174,0.0
22.491243999999995,0.005344234360075146,0.0
22.493648,0.0055937313738000215,0.0
22.496032,0.010499056186416503,0.0
22.498411999999995,0.01661508581253172,0.0
22.500803999999995,0.02459344655820358,0.0
22.503192,0.0300578498782609,0.0
22.505572,0.03659318838495675,0.0
22.507976,0.0359716043188944,0.0
22.51036,0.0359716043188944,0.0
22.51274,0.03573928689341713,0.0
22.515144,0.03813065428041907,0.0
22.517532,0.0403822520405608,0.0
22.519912,0.04249408017384231,0.0
22.522307999999995,0.04474567793398404,0.0
22.524691999999995,0.045926340507487236,0.0
22.527072,0.04592634050748724,0.0
22.529475999999995,0.04592634050748724,0.0
22.531864,0.04592634050748724,0.0
22.534244,0.044605908307123826,0.0
22.536635999999994,0.04421664166653874,0.0
22.539024,0.04196504390639701,0.0
22.541404,0.04171554689267214,0.0
22.5438,0.03681022208005566,0.0
22.546188,0.030694192453940443,0.0
22.548584,0.023012550550236606,0.0
22.55098,0.019567427564843743,0.0
22.553363999999995,0.01491159976595214,0.0
22.555748,0.01851367196645282,0.0
22.558144,0.023186679353592022,0.0
22.560531999999995,0.027470420100146147,0.0
22.562912,0.03003159935400384,0.0
22.565304,0.0308702171151651,0.0
22.567692,0.03077766931654804,0.0
22.570088,0.02919487745071182,0.0
22.572492,0.028014214877208624,0.0
22.57488,0.028014214877208624,0.0
22.577256,0.028014214877208624,0.0
22.579652,0.029334647077572027,0.0
22.582035999999995,0.02933464707757203,0.0
22.584419999999994,0.02933464707757203,0.0
22.58682,0.02933464707757203,0.0
22.589208,0.02933464707757203,0.0
22.591587999999994,0.02933464707757203,0.0
22.593984,0.02933464707757203,0.0
22.596371999999995,0.029037928235604006,0.0
22.598752,0.027018647900939545,0.0
22.601156,0.025139137193135302,0.0
22.603539999999995,0.021537064992634622,0.0
22.605923999999995,0.016864057605495416,0.0
22.608315999999995,0.012051280591495996,0.0
22.610704,0.0070987339506363625,0.0
22.613084,0.0040085184293333735,0.0
22.615483999999995,0.001989238094668915,0.0
22.617867999999994,0.0013204322003634078,0.0
22.620252,0.0013204322003634078,0.0
22.622648,0.0013204322003634078,0.0
22.625035999999994,0.0013204322003634078,0.0
22.627432,0.0,0.0
22.629832,0.0,0.0
22.63222,0.0,0.0
22.6346,0.0,0.0
22.637004,0.0,0.0
22.639392,0.0,0.0
22.641772,0.0,0.0
22.644175999999995,0.0,0.0
22.646564,0.0,0.0
22.648944,0.0,0.0
22.65134,0.012245038771402782,0.0
22.653728,0.048556820754443245,0.0
22.656108,0.10325580479183435,0.01187935193292771
22.658504,0.167821731218711,0.023449379921763217
22.660888,0.2459320404459433,0.03455414346960903
22.663272,0.3401932376977629,0.04527292331848341
22.665668,0.4563793077879431,0.05517797298243583
22.668052,0.5870881480665006,0.06481186456775268
22.670432,0.7312960451750397,0.07419361571283703
22.672836,0.8881643813523996,0.08348078403610684
22.675224,1.0616501362631703,0.09259110618577651
22.677603999999995,1.2564091377062436,0.10139852706853147
22.680008,1.469136032323087,0.1100296869342704
22.682396,1.6929405741429147,0.11866282942847652
22.684776,1.9298248639121438,0.1272364263751198
22.687172,2.186027521295501,0.13562358617278145
22.68956,2.4623399422259067,0.14384115566104874
22.691939999999995,2.7582049440537872,0.15181229847142458
22.694344,3.0645923062929494,0.1595787009481742
22.696732,3.369583868121379,0.16730265749833043
22.699112,3.6600034252078943,0.17500003150516055
22.701516,3.9175564401641867,0.18287695959817316
22.703903999999994,4.158956671238022,0.17886080189693623
22.706284,4.3984983629080405,0.1749831648007564
22.708687999999995,4.619235439500996,0.17160242884397064
22.711076,4.813626028740046,0.16874623237136624
22.713456,4.9815756869687045,0.16678342614945751
22.71586,5.137748849860077,0.16508857557318607
22.718248,5.279444568533446,0.16371486909172603
22.720628,5.4107614881381325,0.16237005287058984
22.723032,5.522807261956933,0.16124645335098878
22.72542,5.610366983683515,0.16051107341385407
22.727799999999995,5.680702986341003,0.15999480221915086
22.730196,5.7465720485125695,0.1593884179462984
22.732584,5.800944154600573,0.1588250257167798
22.734967999999995,5.834694640462332,0.1584450995909544
22.737364,5.8462407142320085,0.1582400784323386
22.739752,5.838746063783408,0.1582927813021398
22.742132,5.829481630013868,0.15841201675639763
22.744527999999995,5.830273025946788,0.15840491688073718
22.746916,5.8311569696783225,0.15843661808543316
22.749296,5.838326754902826,0.15831970587110294
22.7517,5.841352569007639,0.15829858723887363
22.754088,5.835484140537379,0.15855353299768657
22.756468,5.841905959941472,0.1586691340687472
22.758864,5.864948989794715,0.15849465695285603
22.761252,5.890925285954152,0.15825433832085414
22.763636,5.910802732075722,0.15810183942820144
22.766032,5.937477876369461,0.15781271260841967
22.76842,5.965036964394734,0.15756182533746174
22.7708,5.995808857979923,0.15723136414558497
22.773196,6.025836577460438,0.1568494804514871
22.775583999999995,6.053677100597301,0.1564295897282965
22.777967999999998,6.0736962122036,0.1561317366132578
22.780364,6.094506719742817,0.15582952862777502
22.782748,6.121555846946762,0.15543472677028544
22.785132,6.148185665270127,0.155063294863919
22.787532,6.171510130234959,0.15472755544412073
22.789919999999995,6.181658507736034,0.15463943853858386
22.792303999999994,6.18417056930378,0.15474195133920224
22.7947,6.1886375097897,0.1548504369976068
22.797087999999995,6.195106551022036,0.15491709629780603
22.799468,6.197106755910582,0.15500989672263915
22.801863999999995,6.2012035052020344,0.1549617432778494
22.804252,6.199061634828757,0.15501367826990609
22.806632,6.190494153335649,0.15521713566370463
22.809036,6.18313737665604,0.15538652232738484
22.811423999999995,6.179971792924368,0.1554157791891818
22.813804,6.1701955024756305,0.15552007012010674
22.816199999999995,6.158045024228138,0.1556444042671207
22.818588,6.147058028965901,0.15578006976710548
22.820968,6.141098948554893,0.15585631499233268
22.823364,6.1342087025841066,0.15594947462297187
22.825751999999994,6.129180787732877,0.15601061580599776
22.828132,6.124152872881648,0.1560709418281236
22.830528,6.1176347139631995,0.15618041013282952
22.832916,6.1176347139631995,0.15618041013282952
22.835296,6.124060325083032,0.1560350088345785
22.837692,6.136120151389776,0.15574788643749288
22.84008,6.145154163591708,0.15547761144140584
22.842464,6.159263312473112,0.15510611440632624
22.84486,6.174815483593492,0.15473089518334848
22.847244,6.200238388819097,0.15416213506323675
22.849628,6.223798962925144,0.1536264582293712
22.852032,6.249221868150747,0.1530645154573189
22.85442,6.275948025988467,0.15250787333121876
22.8568,6.304629062744362,0.15196024055953605
22.859196,6.32846728024626,0.1515408406142299
22.861584,6.355238764054354,0.15106914390490792
22.863968,6.384663974914923,0.15056588767379608
22.866364,6.413949416148633,0.15007547288219206
22.868752,6.446168123688536,0.14954052412078178
22.871132,6.482111493467554,0.1489465830642254
22.873532,6.516891380261315,0.14833992181328284
22.87592,6.552370115189378,0.14770011608716774
22.8783,6.584543496758908,0.14709883865383885
22.880696,6.61457500795516,0.1465528166492267
22.88308,6.641114174337777,0.14609737117531382
22.885459999999995,6.666861944787476,0.14565076532498442
22.887871999999994,6.696753686356868,0.14512490966836297
22.890256,6.719707960127232,0.14472263861156756
22.892636,6.744664334644011,0.14428977659503608
22.895032,6.768130465093573,0.1439099854479414
22.897416,6.795181488155387,0.14348888084092945
22.899812,6.820789488978225,0.14307458448325697
22.902207999999995,6.846304942002446,0.14262809473693952
22.904596,6.8731708694670255,0.1421503826437538
22.906976,6.907114034357496,0.14155081468187433
22.909372,6.937192767381992,0.1410115187833666
22.91176,6.964525225555397,0.14047427205850244
22.91414,6.991485596676464,0.13992209273496728
22.916536,7.014301996677836,0.13944730967360275
22.918924,7.037350714104686,0.13900202003439624
22.921319999999994,7.061842453770511,0.13855642975122356
22.923724,7.07874509933125,0.13821454906228792
22.926112,7.092714478585795,0.13791493898447035
22.928487999999994,7.1056129226537,0.13763678229856474
22.930892,7.119162993027663,0.13736240367329694
22.93328,7.132433524147906,0.1371040662153671
22.93566,7.140908457842397,0.13691341874745913
22.938056,7.154598297843222,0.13663283937530493
22.940444,7.165354871537851,0.13639745884183394
22.942828,7.1751802796727,0.13617561663352398
22.945224,7.179418694448881,0.13602441582563982
22.947612,7.181515238851785,0.13591177491432668
22.949991999999995,7.182401078441189,0.13582602674570632
22.952388,7.180493421351258,0.13577528147605036
22.954772,7.179656699447967,0.1357061244817753
22.957156,7.180542539037371,0.13562158239156652
22.95956,7.179938134559557,0.13557780360969857
22.961948,7.176260694148686,0.13558253816302804
22.964324,7.17565628967087,0.13553885812062297
22.966732,7.175471194073636,0.13547347799099124
22.969116,7.176636572916761,0.13537565419722727
22.971495999999995,7.186461981051612,0.13516477674543126
22.973892,7.200943216985353,0.13489855803582193
22.97628,7.216774927359452,0.13460160919946237
22.97866,7.231023845867718,0.1343119879479262
22.981055999999995,7.242479267696648,0.1340538679115629
22.983444,7.257519582137831,0.13375819021645713
22.985824,7.2704180262057365,0.13350152106572488
22.98822,7.286109966952977,0.13321405312755938
22.990607999999995,7.299660037326941,0.13296254267390484
22.992988,7.3149326691936,0.13269460132739866
22.995391999999995,7.330345070687121,0.13241846196942833
22.997775999999995,7.344966076247723,0.1321456212731368
23.000156,7.359307542554605,0.13188731359333114
23.002564,7.365640605875818,0.13174572088736947
23.004952,7.371461812517835,0.13159324279410828
23.007332,7.376212083973212,0.13145826388129758
23.009728,7.387760053600759,0.13123358096124232
23.012116,7.393581260242776,0.13108145225525936
23.014496,7.396469200578597,0.13096936675464171
23.016892,7.396423874608223,0.13089710898165663
23.019279999999995,7.38930131121196,0.13092848249689354
23.021664,7.377243380763085,0.13102823058895421
23.02406,7.362252184008015,0.13116648126329256
23.026444,7.351404958372639,0.131239355526498
23.028824,7.3453533301630145,0.13125219701760596
23.031228,7.340512406766888,0.1312399240034312
23.033615999999995,7.332877986691427,0.1312591313452364
23.035996,7.324080083630711,0.13126270067442297
23.038391999999995,7.320916395756908,0.13116536882772795
23.040776,7.322967614189436,0.13098996529945484
23.043156,7.3290230341148,0.13076144797232223
23.045572,7.337732181092638,0.1305104977985773
23.04796,7.349142276951193,0.1301997249844204
23.05034,7.3648361135563025,0.12981956101115114
23.052736,7.383183677213887,0.12941845636394556
23.055124,7.403393571991028,0.12899600937267275
23.057503999999994,7.418807869342418,0.12863403397303846
23.059908,7.436364037067084,0.12823633446755625
23.062296,7.455270679232109,0.1278079885823958
23.064676,7.474037551770275,0.1273857875661418
23.06708,7.497088165054993,0.12689510905003895
23.069468,7.526564389459544,0.1263038926442918
23.071848,7.555109448304316,0.12572001728375562
23.074251999999998,7.578719140096477,0.12520274135255954
23.076636,7.60046650076908,0.12470814967517772
23.079016,7.617558033642793,0.12426249477142219
23.081416,7.636000040956863,0.123784623535491
23.083804,7.651880869017077,0.12336214540124149
23.086184,7.661475855584318,0.12303464465527143
23.088587999999994,7.66520430953917,0.12277956241291618
23.090972,7.663206000508491,0.12258815090806648
23.093356,7.6600442084925575,0.12238183975365442
23.095752,7.65245890610321,0.12224655041285898
23.09814,7.647667100393197,0.12208384780921283
23.10052,7.640221567630708,0.12194166389914343
23.102916,7.637339314868494,0.12172393337885681
23.105304,7.632734500613585,0.12151694651166435
23.107688,7.630131787105092,0.12128553035611735
23.110084,7.62645813840996,0.12106947518038164
23.112472,7.624926360088106,0.12082251752969843
23.114852,7.623115042512531,0.12058950794150802
23.117248,7.618230689003901,0.12039643189640595
23.119636,7.615208666614826,0.12018572705463146
23.12202,7.610836169785394,0.1200025869840799
23.124416,7.6075346081426,0.11980431793286787
23.1268,7.6067470039254195,0.11959264823768284
23.129183999999995,7.609544292320492,0.11935380204300024
23.13158,7.615554386275481,0.11906997896415333
23.133968,7.622495645790248,0.11877651525654324
23.136351999999995,7.629297135678156,0.11848830454573492
23.138748,7.6375416478050395,0.11820107646332498
23.141132,7.647089412544038,0.1179248396969102
23.143516,7.6597102132160915,0.11760914892133773
23.145912,7.668606351649033,0.11732970776794197
23.1483,7.6809476130673655,0.11703098786559576
23.150696,7.685932097806091,0.11683190057682438
23.153092,7.692918683291232,0.11660927972925318
23.15548,7.70283853508257,0.11635791100579847
23.15786,7.715691653180102,0.11607663989152445
23.16026,7.729336167210551,0.11579598106741365
23.162648,7.741118350121443,0.11553170869058785
23.165028,7.756113338592253,0.1152267758969845
23.167428,7.773250197436338,0.11489511429315172
23.169812,7.800677099266228,0.11444488633261131
23.172196,7.825962130722842,0.11402396293765757
23.174592,7.853808341433313,0.11355907670802125
23.17698,7.8797922210242275,0.113113688005484
23.17936,7.9016321294954475,0.11271790135620922
23.181756,7.926405304272864,0.11229491008631172
23.184144,7.955182680543113,0.111830818652662
23.186528,7.989454502373415,0.11129634831037083
23.188924,8.021072597151244,0.11077963634092311
23.191312,8.051759526369292,0.11027239838239343
23.193692,8.083889477826318,0.10977016659409382
23.196096,8.112154997417369,0.10930490184058463
23.198484,8.143214013687755,0.10881555108371783
23.200868,8.175064425891062,0.10832762740875067
23.203267999999994,8.199837600668477,0.10791626482043976
23.205656,8.223400070632394,0.10752722659266958
23.208036,8.239233676864362,0.10720486930702376
23.210435999999994,8.253996347909693,0.1068943999497668
23.212824,8.263264573394974,0.10665708264903768
23.215204,8.270390928506973,0.10644707176347239
23.217608,8.267367010260031,0.10634372413304556
23.219992,8.265134487946007,0.10623947376362428
23.222372,8.260340786378125,0.10617918622888559
23.224776,8.25554708481024,0.10611885673164376
23.227163999999995,8.253966188802275,0.10602022329681098
23.229544,8.249312256861256,0.10595377028752188
23.231948,8.242376684920094,0.10591853010685923
23.234331999999995,8.228084336299325,0.10596501484887311
23.236712,8.215654318798112,0.10599792895876917
23.239107999999995,8.205086632416457,0.10601719048840573
23.241496,8.195869420475159,0.1060117681230264
23.243876,8.187862913347363,0.10598804204161691
23.246272,8.180135945473285,0.10595240941474611
23.248656,8.171338042412568,0.10592887470279985
23.251036,8.165473405658046,0.10588025958719255
23.25344,8.159748538530383,0.10582567674734807
23.255828,8.164546031814005,0.10568927100361422
23.258212,8.176560532150376,0.10548043870866133
23.260608,8.1916480684198,0.1052406371014604
23.262996,8.205944208756309,0.1050013198555719
23.265376,8.219029644279317,0.10477731506783299
23.267779999999995,8.234396719802463,0.10452397753181754
23.270168,8.246970298646275,0.10428862985372826
23.272548,8.25647084155703,0.1040842359686383
23.274952,8.266623010773843,0.10388664117906175
23.277339999999995,8.279848215923714,0.10365889738433542
23.27972,8.296425996260357,0.10339063367558123
23.282115999999995,8.320360553276613,0.10304503461625142
23.284504,8.343363944733088,0.10270705362102603
23.286884,8.363573839510229,0.10238880073080461
23.289288,8.380850467981176,0.1020959608930462
23.291675999999995,8.396264765332564,0.1018149791070351
23.294056,8.412610228243732,0.10152903719426715
23.296451999999995,8.429095460781761,0.10123779484836035
23.29884,8.45079559962612,0.1008974081327911
23.30122,8.470773176977785,0.10056399019374507
23.303616,8.485303530597639,0.10026231781940853
23.306,8.493967351605102,0.10000859122602629
23.308384,8.503050481493148,0.09973917202068672
23.31078,8.513995942500747,0.09945908262661629
23.313168,8.534300280934376,0.09909087442709265
23.315548,8.552602518621587,0.0987411879100174
23.317944,8.57597989298827,0.0983475073428027
23.320332,8.599636806608673,0.09794073597646466
23.322712,8.618777662057045,0.09755584535588818
23.32512,8.634473394520024,0.09718263810969492
23.327507999999995,8.645093990303529,0.09685439406986412
23.329888,8.651430845340482,0.09657186436245005
23.332288,8.657767700377432,0.09628968030252465
23.334675999999995,8.660891749854471,0.0960384658849138
23.337056,8.665738360824205,0.09578241438711588
23.339451999999994,8.674309634033051,0.09550560530124323
23.34184,8.68101857612234,0.09523966881823225
23.34422,8.687587748584773,0.09497952717651427
23.346616,8.687079683621313,0.09477882470702888
23.349004,8.687502784217632,0.09457297865032624
23.351388,8.68871728074687,0.09436750230635481
23.353784,8.686858741343052,0.09418742200488509
23.356172,8.684720662685512,0.09401881222958114
23.358568,8.683793288841473,0.09383487886423479
23.360964,8.679792879064378,0.09367783208919764
23.363352,8.674861303727504,0.09352547284384977
23.365732,8.671000663577269,0.09336364592656592
23.368128,8.672075390479646,0.09316785016975969
23.370515999999995,8.675943614061358,0.09295748437342784
23.372896,8.681394629508906,0.09274834697330042
23.3753,8.688987515329732,0.09251889260923866
23.377688,8.696859940404275,0.09227904547814078
23.380072,8.703801199919043,0.0920438781425901
23.382468,8.717307840180503,0.0917432421628588
23.384856,8.72722958782971,0.09145533220002056
23.387235999999994,8.734497608426441,0.09117668968765581
23.389632,8.744698895329368,0.09087987086193611
23.392019999999995,8.757181822232427,0.09055938236698977
23.394396,8.771387310628189,0.09023454220728892
23.396792,8.786244425330008,0.08991684669324085
23.39918,8.802032705591603,0.0895956878709326
23.401576,8.825689619212005,0.08922407560444935
23.403972,8.846273496899354,0.08887619704766063
23.406355999999995,8.862713403467007,0.08856259513914871
23.408736,8.878082374848022,0.08826054330192452
23.41114,8.895453446975456,0.08794536698442003
23.413528,8.911613814289389,0.08764780016252068
23.415907999999995,8.924701145670266,0.08737501416287928
23.418304,8.938859412237782,0.08709389256445996
23.420691999999995,8.953809074738217,0.08681460212047327
23.423072,8.968618967611791,0.08654111726279759
23.425476,8.982218155671868,0.08628213021666725
23.427864,8.9976796748515,0.08601562116130093
23.430243999999995,9.011511180337054,0.08578059079261324
23.432648,9.026925477688444,0.08554695792649061
23.435036,9.049137473212001,0.08527857104690387
23.437416,9.068416202429363,0.08502797197233888
23.439812,9.084482126086813,0.08480504292327383
23.4422,9.101246897878562,0.08455740298957927
23.444579999999995,9.119222374483808,0.08429744788345259
23.446984,9.136266685529279,0.08404207403900393
23.449372,9.15116912620147,0.08380663775479576
23.451752,9.16728227168716,0.08355692162895723
23.454152,9.188191014598601,0.08328492344350759
