Time,Force,Position
20.472576,0.18959914189583565,0.0
20.474964,0.17651560223069607,0.0
20.477344,0.16794812073758786,0.0
20.47974,0.153313887370032,0.0
20.482128,0.14553780180984185,0.0
20.484508,0.13411637400220158,0.0
20.486904,0.12461772694931497,0.0
20.489292,0.11212536395503622,0.0
20.491688,0.09935346170703704,0.0
20.494084,0.08579016352611973,0.0
20.496468,0.07615174684637296,0.0
20.498852,0.06659265015828938,0.0
20.501248,0.06182915089595761,0.0
20.503636,0.05520332051406919,0.0
20.506016,0.04736678531868203,0.0
20.508416,0.039809789377015285,0.0
20.510804,0.03425489418176539,0.0
20.513184,0.02497533674740222,0.0
20.51558,0.015556009686178837,0.0
20.517968,0.009209718558010834,0.0
20.520352,0.006727859295816322,0.0
20.522748,0.005316935220260344,0.0
20.525136,0.0021834496520079334,0.0
20.527516,0.0030352952201230707,0.0
20.529912,0.00210412966034475,0.0
20.5323,0.002816205601599677,0.0
20.534684,0.002816205601599677,0.0
20.53708,0.002816205601599677,0.0
20.539468,0.002816205601599677,0.0
20.541864,0.002816205601599677,0.0
20.54426,0.0026159863395424396,0.0
20.546648,0.0026159863395424396,0.0
20.549032,0.0026159863395424396,0.0
20.551428,0.0026159863395424396,0.0
20.553816,0.004818306348016528,0.0
20.5562,0.0060894607967122965,0.0
20.558596,0.009222946364964707,0.0
20.560984,0.012496201560077325,0.0
20.563364,0.02070482380780197,0.0
20.56576,0.02705111493596997,0.0
20.568148,0.03432857162391629,0.0
20.570528,0.038532992378807224,0.0
20.572924,0.03853299237880723,0.0
20.575312,0.037681146810692095,0.0
20.577692,0.036689531615716746,0.0
20.580088,0.03597745567446182,0.0
20.582476,0.035917006039264794,0.0
20.58486,0.035917006039264794,0.0
20.587256,0.035917006039264794,0.0
20.58964,0.036629081980519715,0.0
20.592036,0.03813255385469276,0.0
20.594432,0.038704860169087474,0.0
20.59682,0.03870486016908748,0.0
20.599204,0.03870486016908748,0.0
20.6016,0.03650254016061339,0.0
20.603988,0.035231385711917626,0.0
20.606368,0.03209790014366522,0.0
20.608764,0.028824644948552594,0.0
20.611152,0.02061602270082795,0.0
20.613532,0.014269731572659946,0.0
20.615932,0.006992274884713624,0.0
20.61832,0.0027878541298226823,0.0
20.6207,0.0027878541298226823,0.0
20.623096,0.0027878541298226823,0.0
20.625484,0.0027878541298226823,0.0
20.62788,0.0027878541298226823,0.0
20.630276,0.0027878541298226828,0.0
20.632664,0.0027878541298226828,0.0
20.635044,0.0027878541298226828,0.0
20.637444,0.002075778188567755,0.0
20.639832,0.0005723063143947175,0.0
20.642216,0.0,0.0
20.644612,0.0,0.0
20.647,0.0,0.0
20.64938,0.0,0.0
20.651776,0.0,0.0
20.654164,0.0,0.0
20.656548,0.0,0.0
20.658944,0.0,0.0
20.661332,0.0,0.0
20.663712,0.0,0.0
20.666108,0.0,0.0
20.668496,0.0,0.0
20.670876,0.0,0.0
20.673272,0.0,0.0
20.67566,0.0,0.0
20.678044,0.003505572620589889,0.0
20.68044,0.01208628192065201,0.0
20.682828,0.024671192713547833,0.0
20.685224,0.040189369812638834,0.0
20.68762,0.05784941728500689,0.0
20.690008,0.0744385295707364,0.0
20.692388,0.09009647629668761,0.0
20.694784,0.10417163115680261,0.0
20.697176,0.1190381819498357,0.0
20.699556,0.1339047327428688,0.0
20.701956,0.1482594268567042,0.0
20.704344,0.165687156903595,0.0
20.706724,0.1829751173236256,0.0
20.70912,0.1974695810643212,0.0
20.711512,0.21089310961837826,0.0
20.713892,0.2252478037322137,0.0
20.716296,0.2365294619129937,0.0
20.718684,0.24874228565355208,0.0
20.721064,0.25881323902083336,0.0
20.72346,0.26874442276125443,0.0
20.725848,0.2710260627613917,0.0
20.728228,0.2662304653356399,0.0
20.730624,0.253645554542744,0.0
20.733012,0.23812737744365303,0.0
20.735396,0.220467329971285,0.0
20.737792,0.20509646273240034,0.0
20.740176,0.20578393571948592,0.0
20.74256,0.22541579341049378,0.0
20.744956,0.2610134435288548,0.010356478630803828
20.747344,0.3096908415966169,0.020136250782090553
20.749724,0.36925889541226,0.02995793021418059
20.75212,0.43901875684148295,0.03970507275761064
20.754508,0.5272111462954305,0.04912717785093561
20.756904,0.6429154019464086,0.05789077909605869
20.759304,0.776075694091959,0.06644480380707059
20.761692,0.9195222375075756,0.0749886505192882
20.764072,1.0734873496187354,0.08375033181497138
20.766468,1.2407173052765308,0.09252113258232454
20.768856,1.4289881900411516,0.101076287680016
20.77124,1.633551628315089,0.10946316763061555
20.773636,1.8558978641655623,0.11775182393966388
20.77602,2.0889024383384394,0.1261531411728774
20.778404,2.3440321046117343,0.13445938184777406
20.780808,2.6220650311114113,0.14254357272325197
20.783196,2.9260289278001523,0.15028388830698047
20.785576,3.2303573713078837,0.15800990841617993
20.787972,3.514670494925055,0.16578856129759695
20.79036,3.77631457159919,0.17365006318189682
20.79274,4.021573546965392,0.17117585802179644
20.795136,4.252914156621031,0.1693355425525543
20.797524,4.475366211275206,0.16739787120329094
20.799904,4.67957272935976,0.16555135065198773
20.8023,4.858503695277047,0.16409310176963665
20.804688,5.005546506452132,0.16342255049463772
20.807068,5.136855842625341,0.16296293148275784
20.809464,5.2608121938346795,0.16242810835664728
20.811852,5.3829572274684425,0.1615156667193779
20.814236,5.487740668264119,0.1606260543802597
20.816632,5.570644562191809,0.16006833291465047
20.81902,5.641165660446531,0.15969804633640847
20.821416,5.703308164521116,0.15938753748346393
20.823812,5.76000723657963,0.1588823904350672
20.8262,5.801486586173335,0.158352463607146
20.82858,5.8156863869954885,0.15811113995559511
20.83098,5.803024052068798,0.158231096330075
20.833364,5.791572421955607,0.1583134646180921
20.835748,5.786778720387726,0.158269388033244
20.838144,5.785756902887199,0.15810780633303176
20.840536,5.779846940162304,0.15800101783554246
20.842916,5.779663740422938,0.1577825289567476
20.845312,5.786463334452976,0.1575111747644764
20.8477,5.802991997103509,0.15718261980097
20.850084,5.82850555426986,0.15675081194234736
20.85248,5.860490048526418,0.15623446143114422
20.854868,5.8934982561413705,0.1557414416106773
20.857252,5.928042033793917,0.15529666531811287
20.859648,5.96118811517786,0.15496252103117333
20.862036,5.996708384360558,0.1546027008473243
20.86442,6.032323097199743,0.1541345974679709
20.866816,6.063516195523383,0.15364498121216366
20.869208,6.091311392689871,0.15316378060866545
20.871588,6.119478676908698,0.152714083740386
20.873988,6.138938710007556,0.15247348164576913
20.876372,6.160400843852832,0.15218566386565324
20.878756,6.177299697697832,0.15201216775220672
20.881152,6.191869689714452,0.15194881081264278
20.88354,6.205274302887948,0.15200829499503932
20.88592,6.225801479457707,0.15200668538588133
20.888316,6.2519156493861345,0.15190507462735894
20.890704,6.273141674090195,0.1518579810388009
20.893088,6.284264647263553,0.15197907798471344
20.895484,6.29143064077232,0.15213384700417565
20.897872,6.296874072788393,0.1523109494588903
20.900252,6.299338912527894,0.1524601613178558
20.902652,6.295100497751713,0.1526453804725984
20.905036,6.28359974995241,0.15290066227204888
20.90742,6.271587145473909,0.15313964534912325
20.90982,6.261297102488103,0.15335623907134904
20.912208,6.256686600659586,0.15351709807405073
20.914588,6.251656789950488,0.15370509150520817
20.916988,6.2429948648008935,0.1539931618388905
20.919376,6.2348447963304965,0.15428738905777195
20.921756,6.239311736816416,0.15439433182347398
20.924156,6.247735656966927,0.15446885676080613
20.926544,6.263935662677627,0.1543559584068216
20.928924,6.281021507977731,0.15414452377666657
20.931324,6.3016469199197145,0.1538009633574085
20.933708,6.319898144062942,0.15348601485376823
20.936092,6.336846115594055,0.1531682816379239
20.938488,6.3503489641397755,0.1528899906844866
20.940876,6.361896933767322,0.15260053253777855
20.94326,6.376517939327924,0.15225264461664909
20.94566,6.394444298247057,0.15187500011760866
20.948048,6.42377696130901,0.15135679786878958
20.950432,6.460931035901526,0.15073882365733407
20.952828,6.500599067919655,0.1500907678035841
20.955216,6.538776855870567,0.1495009797780957
20.957596,6.579748140500813,0.1488766483290778
20.959996,6.618205467705446,0.14828467517037128
20.962384,6.6573616430443785,0.14764957643490179
20.964768,6.696844579465277,0.1469462205352305
20.967168,6.730927513982609,0.14628122139955776
20.969556,6.755746014730398,0.14572085950892125
20.971932,6.776607535813596,0.14518812562353867
20.974336,6.7946755602174616,0.1447002072403
20.976724,6.80953077906141,0.1442782015881236
20.979104,6.821173192345443,0.14392644172827426
20.981508,6.828112556002341,0.1436864627835139
20.983892,6.837658424883469,0.14345870971743793
20.986272,6.854513848615966,0.14313282310876504
20.988676,6.881891632759745,0.1426491146294465
20.991064,6.906336150597327,0.1422187546003572
20.993444,6.9251936750762395,0.14186751165985
20.99584,6.932318134330372,0.14170450943078852
20.998224,6.936277009852832,0.1415620489189355
21.000604,6.938420776083978,0.141402797673029
21.003008,6.9343731444786405,0.14127418950354312
21.005396,6.9250180587683525,0.14120577776215304
21.007776,6.91165877156523,0.14120408987559457
21.010176,6.899882276227945,0.14119187024658045
21.012564,6.890899277569993,0.14114126954994854
21.014944,6.882939992270436,0.14111247796994975
21.01734,6.875724881075556,0.1411217615215266
21.019728,6.875679555105181,0.14104490304391187
21.022108,6.880150287306839,0.14091379953429334
21.024512,6.887973594695273,0.14071411043236765
21.0269,6.892212009471453,0.14055600379773553
21.029284,6.900222308314989,0.14030585922957153
21.03168,6.906557267494074,0.1400323998443197
21.034068,6.9075847725682085,0.1398184947513264
21.036448,6.899440391671419,0.1397188746576635
21.038852,6.888409966296678,0.13962093713538903
21.04124,6.8787300153622954,0.13948786033145488
21.04362,6.873194035547607,0.13928255943466336
21.046016,6.870963409091452,0.13905217832430894
21.048404,6.871898366366968,0.138804530802752
21.050784,6.878792404053492,0.1385025658677257
21.053188,6.892856226964524,0.1381228558573538
21.055576,6.913438208794,0.13765853064636047
21.057956,6.932018089877062,0.13722674113889544
21.060352,6.949806575027205,0.13680206360892516
21.06274,6.967642282005591,0.13633568334917567
21.06512,6.9873875419317795,0.1358026034005021
21.067516,7.003827448499433,0.1353011159314126
21.0699,7.0128180305888606,0.1348931528412311
21.072284,7.021017216745369,0.13449135764042086
21.074688,7.032289438834934,0.13403882868701733
21.077076,7.041140251297501,0.13364102308315828
21.079452,7.052225481931961,0.13324244751037548
21.081852,7.068106309992174,0.13278303743443556
21.084236,7.085569929918224,0.13231436606082903
21.08662,7.103358415068366,0.1319023631659432
21.089016,7.127665059136958,0.13141805095183745
21.091404,7.1601198758180775,0.13082121142585232
21.0938,7.191131670260223,0.13023106253522346
21.096196,7.217906945784055,0.12967301592174585
21.098584,7.242680120561469,0.12914582646149986
21.100968,7.260423279741239,0.128685140121122
21.103364,7.27765458224181,0.12821826366940178
21.105752,7.295025654369243,0.1277433674314265
21.108132,7.311046252056317,0.12730045022412464
21.110528,7.3260884623553695,0.12690659830658477
21.112916,7.344575795639813,0.12649044917758756
21.115296,7.3611535759764575,0.12613478743773998
21.117692,7.384109745604691,0.125716187025649
21.12008,7.406087527844902,0.12534792328437608
21.12246,7.431510433070508,0.12495849115575557
21.12486,7.45935474792311,0.12452384885360175
21.127248,7.483474400536599,0.12413051279405164
21.129628,7.504381247590172,0.12379049338232313
21.132024,7.52808159132308,0.12342369251040358
21.134412,7.554902192817287,0.1229755092602125
21.136808,7.574273469833266,0.12260723836513852
21.139204,7.582563307930522,0.12238548326859564
21.141592,7.585358700467728,0.12224966945164735
21.143972,7.589829432669384,0.12213997048583464
21.146368,7.593368999311264,0.12203938641791195
21.148756,7.600353688938536,0.12191558452391393
21.151136,7.605987904125449,0.12182227247850495
21.153532,7.612273745618419,0.12173332054276394
21.15592,7.622424018977362,0.12160180864063731
21.158304,7.636718263456001,0.1214142436116254
21.1607,7.648358780882165,0.121249237702272
21.163088,7.6608379160694895,0.12104409664330253
21.165472,7.670663324204339,0.12086042022135157
21.167868,7.678114544540435,0.1206822773181219
21.170252,7.680909937077641,0.12054932434539778
21.172636,7.676628092188956,0.12050459345491213
21.175036,7.671275312113632,0.1204754328803123
21.17742,7.665642992784589,0.12045967025966672
21.179804,7.659591364574965,0.12046365018346548
21.1822,7.654191362671397,0.12047162230918904
21.184584,7.649954843753087,0.12049546337270449
21.186984,7.649303217447029,0.12049095056814248
21.18938,7.656659994126638,0.12038938661587117
21.191768,7.6699305252468815,0.12018599386581516
21.194152,7.6874847971136795,0.11992317454736384
21.196548,7.699312305994946,0.11971803826975551
21.198932,7.709557023010376,0.11951724990374701
21.201312,7.719010344092889,0.11931826750782229
21.203716,7.721526197376373,0.11919939053192925
21.206104,7.719525992487825,0.11911719010740945
21.208484,7.7133818164795835,0.11908914305189695
21.210884,7.708820432337178,0.11905689929630667
21.213268,7.702908573754414,0.11905293930365854
21.215652,7.703375104463237,0.11899575714866187
21.218048,7.708637232597813,0.11889011510578823
21.220436,7.719905662971639,0.11871299819914907
21.222816,7.737971791517634,0.11846496853575775
21.225212,7.75552606338443,0.11820544806720244
21.2276,7.767633111519418,0.11798917531729912
21.229984,7.775596188534712,0.11782669323203096
21.23238,7.784397883311167,0.11762482031827057
21.234764,7.78868351991559,0.11745799559038698
21.237148,7.788313328721121,0.11733444749303899
21.239544,7.779934734540986,0.11730423738721461
21.241928,7.76541006849474,0.11734975288096895
21.244324,7.759405662113359,0.1173138076419652
21.24672,7.760198953904147,0.11720766827588162
21.249108,7.76285457681449,0.11708534346833874
21.251492,7.77337883308364,0.11687885160961133
21.253888,7.785625650845487,0.11666221217640238
21.256272,7.803227144540529,0.11637270825382263
21.258652,7.818174911183094,0.11610213012595803
21.261052,7.835544087452656,0.115790030678044
21.26344,7.849887449617407,0.11548094376020412
21.26582,7.856641717677071,0.11524202251862158
21.268216,7.861533654617179,0.11501922493747309
21.270608,7.859116036705921,0.114853370286706
21.272988,7.858560749914218,0.11467206304574151
21.275388,7.865082700548405,0.11441122205086826
21.277776,7.873886291182728,0.11411517382033882
21.280156,7.883481277749971,0.11381879470039417
21.282552,7.902015832862659,0.11342920346223488
21.28494,7.923343884654682,0.11301825759565456
21.287336,7.948396598685818,0.11257584577985622
21.289732,7.979455614956205,0.11206956109369769
21.29212,8.003484615628945,0.11160829839118606
21.2945,8.017782651823323,0.11124316514268882
21.296896,8.031429061711641,0.1108742331611377
21.299288,8.040559413427928,0.11053808356501472
21.301668,8.04782743402466,0.11021585481817245
21.304064,8.052953584248113,0.10992194639350406
21.306452,8.057939964844707,0.10963371326085934
21.308832,8.06278657581444,0.10935282696606113
21.311228,8.066003173090094,0.10910986281069142
21.313612,8.073875598164639,0.10883031428296636
21.315996,8.086264081411217,0.10852296883610561
21.318392,8.102889083576105,0.10819860359695745
21.32078,8.118722689808076,0.10787657676328473
21.323176,8.128549993800796,0.10761566258195339
21.325572,8.141450333726569,0.10732381224538086
21.32796,8.152488342532788,0.1070462529596832
21.33034,8.156728653166837,0.10683001546368626
21.332736,8.156313136001996,0.10664742032316753
21.335124,8.1523127262249,0.10648540144163675
21.337504,8.142306014208556,0.10638172357474984
21.3399,8.135744425177602,0.10626293450190985
21.342288,8.131836563199125,0.10612949349961992
21.344672,8.126717996407146,0.10601479420844477
21.347068,8.124392926294504,0.10588003197194185
21.349456,8.127003223234473,0.10570018921347836
21.351836,8.130404916107363,0.10552014914196438
21.354236,8.136879644913305,0.10530890565591651
21.356624,8.140560877039915,0.10511730560679329
21.359004,8.149457015472855,0.10487050385229606
21.361408,8.158772462786375,0.10460709366223286
21.363796,8.165853491928003,0.10434143232202168
21.366176,8.171631268457515,0.10406579323220169
21.368572,8.17619834017353,0.10380809079334699
21.37096,8.186631944501931,0.10350195722512802
21.37334,8.192921577710642,0.10323922038977741
21.37574,8.200933772412048,0.10297042526190942
21.378128,8.209737363046372,0.10270060534966435
21.380508,8.225338651852866,0.10237782879119005
21.382912,8.245455998831389,0.10203069546716405
21.3853,8.270508712862524,0.10164149819437365
21.38768,8.294350722080162,0.10127109109472787
21.390084,8.323687176857852,0.10083929839110142
21.392468,8.358238537941876,0.10035877974591234
21.394848,8.389716863092842,0.09990931083882547
21.397252,8.418401691564473,0.09948093925226015
21.39964,8.446574663356907,0.0990431432226723
21.402024,8.474887404776203,0.09860418126847267
21.40442,8.50813551324811,0.09812845655158718
21.406804,8.532583822801431,0.09772002664467092
21.409188,8.554890261981475,0.09733513868859597
21.411584,8.572773190788107,0.09700008405054078
21.413972,8.592238911460573,0.09666748241118737
21.416356,8.61663999918565,0.09629933112094796
21.418752,8.635034784671477,0.09598030387705028
21.42114,8.655571440530583,0.09564031462867346
21.42352,8.67666717489713,0.09528028793422735
21.425916,8.698833844450313,0.0949095939562969
21.428304,8.713923276577606,0.094598393764852
21.430688,8.732505053518539,0.09424877680494997
21.433084,8.749504038593635,0.09390020331824016
21.435468,8.767993267735948,0.09352610962022265
21.437852,8.779917116131571,0.09322094361470937
21.440248,8.78620674934028,0.09297901755852746
21.442636,8.79249638254899,0.09273666285726996
21.445032,8.799577411690617,0.09249558053778895
21.447428,8.804097261578388,0.09229060006780053
21.449816,8.80540430590624,0.09211644671262678
21.4522,8.8025673791144,0.09197758936181105
21.454596,8.807319546427646,0.09179570098872863
21.456984,8.811792174487174,0.09162421073816572
21.459368,8.821339939226172,0.09141319637245858
21.461764,8.829025372845617,0.09121236711410588
21.464152,8.827911007546472,0.09106915443215086
21.466532,8.833734110046358,0.09087798781333276
21.468928,8.837555111799828,0.09070159730371305
21.471316,8.840817035045855,0.09054712079041739
21.4737,8.847012224598078,0.0903747873164911
21.476096,8.855209514896718,0.09018741290527277
21.478484,8.856050028515748,0.09006370695160633
21.480868,8.861406600306811,0.08992445018792752
21.483264,8.864341762470877,0.0898148741950499
21.485652,8.872771370194995,0.08965300143998449
21.488032,8.885904027546244,0.08943850657778946
21.490428,8.90439136083069,0.08917896436114885
21.492812,8.923949629301774,0.08891194928663515
21.495196,8.94700024258649,0.08860699785596657
21.497592,8.97098202143099,0.08829787323951747
21.49998,8.997897066581682,0.08797233289899649
21.502376,9.023880946172595,0.08765388500805109
21.504772,9.052286235390508,0.08730784306906522
21.50716,9.079480819794922,0.08697816451454878
21.50954,9.102671202706503,0.08667313038151435
21.51194,9.133730218976888,0.08632072874313412
21.514328,9.16185596894108,0.08598870263718793
21.516708,9.191844050024827,0.08564973468947479
21.519104,9.218247238496321,0.08532093746221228
21.521492,9.240925764728702,0.08500950886488615
21.523872,9.269610593200337,0.08466293277910511
21.526268,9.301368457605026,0.0842949667933074
21.528656,9.326328623837542,0.08396545425636824
21.53104,9.354501595629978,0.08361090112403595
21.533436,9.378390826675858,0.08329293149684223
21.535824,9.397484460295988,0.08299981311607744
21.538208,9.410943878729203,0.08276054840913519
21.540604,9.41839699492317,0.08255691922712961
21.542992,9.423568471116996,0.08237535147701142
21.545372,9.426877616191268,0.08220048434406615
21.547772,9.427393264586204,0.08203638005392164
21.55016,9.429259387421498,0.08185529444746904
21.552544,9.429914805443294,0.08168767618744655
21.55494,9.430989532345668,0.08150603028012204
21.557328,9.440212431860576,0.08127406575743214
21.559708,9.449714870629201,0.08103472917459002
21.562104,9.460567783838183,0.08077932304021274
