Time,Force,Position
4.532355999999999,0.07271865831238153,0.0
4.534743999999999,0.07486052868565761,0.0
4.537124,0.07420890237959873,0.0
4.539528,0.07220680163318287,0.0
4.541916,0.06792306088662972,0.0
4.544296,0.062056528274240345,0.0
4.546691999999999,0.05632976528871022,0.0
4.549079999999999,0.05353626860937526,0.0
4.55146,0.05047953153630167,0.0
4.553864,0.05060300230318008,0.0
4.556247999999999,0.050726473070058495,0.0
4.558628,0.0507264730700585,0.0
4.561032,0.05164133976985503,0.0
4.563415999999999,0.052556206469651555,0.0
4.565796,0.052556206469651555,0.0
4.568191999999999,0.052556206469651555,0.0
4.570576,0.052556206469651555,0.0
4.572971999999999,0.05243273570277313,0.0
4.575375999999999,0.04830506344306101,0.0
4.577759999999999,0.041104355250294475,0.0
4.580139999999999,0.03283271187088943,0.0
4.582544,0.02470083811834459,0.0
4.584927999999999,0.019502230671994913,0.0
4.587312,0.014443392852504466,0.0
4.589707999999999,0.009524324659874232,0.0
4.592092,0.007398753146578965,0.0
4.594471999999999,0.005676191653882535,0.0
4.596868,0.0026031557208271517,0.0
4.599256,0.006730827980539273,0.0
4.601636,0.013808065406427383,0.0
4.60404,0.019814367645676963,0.0
4.606428,0.025804371024945726,0.0
4.608807999999999,0.029017176584861318,0.0
4.611199999999999,0.031298816584998584,0.0
4.613584,0.03235345291165533,0.0
4.61598,0.03235345291165533,0.0
4.618384,0.03235345291165533,0.0
4.620767999999999,0.03235345291165533,0.0
4.623148,0.036341355544507244,0.0
4.625543999999999,0.038187387804082096,0.0
4.627928,0.03910225450387862,0.0
4.630308,0.04015689083053536,0.0
4.632704,0.04015689083053536,0.0
4.635087999999999,0.04135129678405231,0.0
4.637484,0.04135129678405232,0.0
4.639888,0.04135129678405232,0.0
4.642276,0.040948286763453474,0.0
4.644656,0.04082481599657505,0.0
4.647059999999999,0.03669714373686293,0.0
4.6494480000000005,0.029496435544096398,0.0
4.651824,0.0233666625379684,0.0
4.65422,0.017376659158699636,0.0
4.656603999999999,0.013248986898987514,0.0
4.658983999999999,0.010052480199053715,0.0
4.66138,0.009820162773575473,0.0
4.663768,0.012784352048031028,0.0
4.666147999999999,0.018030181322623857,0.0
4.668551999999999,0.021134140223939623,0.0
4.670936,0.01931903093262516,0.0
4.673315999999999,0.019645792014587757,0.0
4.675712,0.022766049775885318,0.0
4.6781,0.023604667537045605,0.0
4.680495999999999,0.02549792162486263,0.0
4.682896,0.026848396065220603,0.0
4.685284,0.032326542765290706,0.0
4.687663999999999,0.036733754278722275,0.0
4.69006,0.04300329691171048,0.0
4.692443999999999,0.04633957323850352,0.0
4.694824,0.048465144751798785,0.0
4.697228,0.052453047384650696,0.0
4.699616,0.054438849271085755,0.0
4.701996,0.05842675190393767,0.0
4.704392,0.06334582009656789,0.0
4.706775999999999,0.06919605384897645,0.0
4.709155999999999,0.07208209832692944,0.0
4.71156,0.07482837317802221,0.0
4.713947999999999,0.07422207284233921,0.0
4.716328,0.08083277955940549,0.0
4.718732,0.08730371664961155,0.0
4.72112,0.09377465373981762,0.0
4.7235000000000005,0.09945419489710561,0.0
4.725896,0.11221097348028165,0.0
4.728279999999999,0.12832032725023354,0.0
4.730664,0.14405759396784792,0.0
4.733059999999999,0.15993463031232252,0.0
4.735444,0.1787449329629923,0.0
4.737823999999999,0.19369080374768857,0.0
4.740232,0.2114301712117198,0.0
4.742615999999999,0.23252211386252586,0.0
4.744996,0.24881845908758013,0.0
4.747391999999999,0.2692587754323283,0.0
4.74978,0.28555512065738253,0.0
4.752176,0.2987784299493814,0.0
4.75458,0.31107057368160196,0.0
4.756968,0.328577623720155,0.0
4.759348,0.341940702639014,0.0
4.761748,0.35651448637137184,0.0
4.764136,0.3610777663716455,0.0
4.766516,0.36377871525236233,0.0
4.768919999999999,0.36647966413307925,0.0
4.771308,0.36396570670746375,0.0
4.773684,0.35544544704259873,0.0
4.776079999999999,0.34129097219082144,0.0
4.778467999999999,0.32671718845846365,0.0
4.780848,0.305997332859995,0.0
4.783243999999999,0.28555701651524684,0.0
4.785628,0.26711880091691553,0.0
4.788007999999999,0.252684786811418,0.0
4.790404,0.23717983751928184,0.0
4.792792,0.22661025527975773,0.0
4.795172,0.2148299682267349,0.0
4.797567999999999,0.2051915515469891,0.0
4.799955999999999,0.1981143141211,0.0
4.802352,0.19117684632207113,0.0
4.804747999999999,0.17916424184356997,0.0
4.807132,0.16729140699192907,0.0
4.809511999999999,0.15499926325970853,0.0
4.811915999999999,0.14950481769965665,0.0
4.814303999999999,0.15001667437885433,0.0
4.816684,0.14945759587141347,0.0
4.8190800000000005,0.15597575478986167,0.0
4.821468,0.16063158258875326,0.0
4.823847999999999,0.16770882001464146,0.0
4.826251999999999,0.17399466150761142,0.0
4.828639999999999,0.18656634449355244,0.0
4.83102,0.19299195561338262,0.0
4.833415999999999,0.1994175667332128,0.0
4.835804,0.20011641486751286,0.0
4.83818,0.19774222706875758,0.0
4.840588,0.19043267221739027,0.0
4.842971999999999,0.17978684103922993,0.0
4.845351999999999,0.16968378950852764,0.0
4.847756,0.15861864944978762,0.0
4.850143999999999,0.1474137397641874,0.0
4.852524,0.13847417121874264,0.0
4.854919999999999,0.13367857379299083,0.0
4.857307999999999,0.130233450807597,0.0
4.859687999999999,0.12199273039645134,0.0
4.862092,0.11254130517180792,0.0
4.86448,0.10444035438752347,0.0
4.86686,0.09368567655076424,0.0
4.869255999999999,0.0850728690872821,0.0
4.871643999999999,0.07739122718357826,0.0
4.874024,0.07264285158606959,0.0
4.87642,0.06160863449558996,0.0
4.878808,0.05550978445772233,0.0
4.881187999999999,0.04955070404671494,0.0
4.883591999999999,0.04452278919548585,0.0
4.885976,0.03918441212227597,0.0
4.88836,0.03788115951016017,0.0
4.890755999999999,0.039914183224837405,0.0
4.893144,0.039371403577379324,0.0
4.895523999999999,0.041124888038336145,0.0
4.89792,0.04166766768579422,0.0
4.900308,0.04140442729205559,0.0
4.902703999999999,0.03899931652504087,0.0
4.9051,0.03552327057138762,0.0
4.907488,0.034980490923929554,0.0
4.909868,0.032575380156914836,0.0
4.912264,0.029890730136179704,0.0
4.914651999999999,0.02692654086172415,0.0
4.917032,0.0247537475201867,0.0
4.919436,0.021510018992010722,0.0
4.921824,0.016264189717417894,0.0
4.9242040000000005,0.015844880836837258,0.0
4.926604,0.014354636769618099,0.0
4.928992,0.011793457515760409,0.0
4.931371999999999,0.01137414863517978,0.0
4.933775999999999,0.017411373842690717,0.0
4.936163999999999,0.02234674089530274,0.0
4.938543999999999,0.029423978321191827,0.0
4.940948,0.03946540502153646,0.0
4.943331999999999,0.045891016141367647,0.0
4.945711999999999,0.05366710170155778,0.0
4.948116,0.06370852840190243,0.0
4.950504,0.07281878954246873,0.0
4.952884,0.07778507956334116,0.0
4.955284,0.08382230477085209,0.0
4.957667999999999,0.09172186109791967,0.0
4.960048,0.1024149141043222,0.0
4.962447999999999,0.11096609673744769,0.0
4.964832,0.11844634418393464,0.0
4.967216,0.12378472125714453,0.0
4.969611999999999,0.12378472125714453,0.0
4.971996,0.12308587312284444,0.0
4.974376,0.1226665642422648,0.0
4.976772,0.12247957278716243,0.0
4.979159999999999,0.1205863186993454,0.0
4.981544,0.11732439545331838,0.0
4.98394,0.11797223004363877,0.0
4.986327999999999,0.1171751465371139,0.0
4.988708,0.1224296912402135,0.0
4.991103999999999,0.1300112019138243,0.0
4.993491999999999,0.1389885129981679,0.0
4.995888,0.1456369622541311,0.0
4.998292,0.15912843565263687,0.0
5.000676,0.1857487746866562,0.0
5.003059999999999,0.2093414037579941,0.0
5.005463999999999,0.23446960286692503,0.0
5.007848,0.26299570313300563,0.0
5.010227999999999,0.29650249642207216,0.009850768334248144
5.012631999999999,0.3407167457196548,0.01874716820233003
5.015019999999999,0.39219332804036067,0.02741764588574299
5.017399999999999,0.45440828933784294,0.03580651794511572
5.019804,0.5116097387862086,0.04512877087178095
5.022192,0.5753746731233966,0.054114072456370954
5.024572,0.6461696230582306,0.06274373125941288
5.026976,0.721556880103731,0.0711431943979118
5.02936,0.7932376696279693,0.0796177126341611
5.03174,0.8571442694498865,0.08845383134029504
5.034135999999999,0.9197022906893143,0.09720687747784687
5.036523999999999,0.9740668133458403,0.10612905511783616
5.038904,1.0322032200697229,0.11476017971123598
5.041299999999999,1.0874535823156533,0.12359185484264293
5.043688,1.1461037415766029,0.1321849807035479
5.046067999999999,1.19805064632187,0.14081645572902762
5.048464,1.2424556787902934,0.1494102512056166
5.050852,1.2924023786470131,0.15775061522112005
5.053235999999999,1.337600702906224,0.166271949351204
5.055632,1.3727431974629765,0.17513898445579354
5.05802,1.4104015453032133,0.17359252184082213
5.0604000000000005,1.435490106015377,0.17325267735935881
5.062796,1.4531765640775576,0.17340966442686168
5.065179999999999,1.4663941857959495,0.17376889022751724
5.067559999999999,1.486643718969857,0.17289409827432517
5.069968,1.4943234650156911,0.17290109968098466
5.072352,1.4984655402775158,0.17301953873797105
5.074735999999999,1.5019559892332826,0.173142647932259
5.077132,1.5086120219207217,0.17312278092777852
5.079515999999999,1.522996918340108,0.17244182846850156
5.081896,1.535891570692275,0.17197595855320297
5.084291999999999,1.5498571582310805,0.17137524070733232
5.08668,1.5575841261051586,0.17123590750458265
5.089059999999999,1.5726678706588457,0.1704083785062326
5.091463999999999,1.582164621853863,0.17000399571556254
5.093848,1.5925925386086583,0.1695276869369398
5.096227999999999,1.6006462675647,0.169152842625597
5.098631999999999,1.606837665401185,0.168938353279833
5.101019999999999,1.616241868797585,0.16842116528280598
5.1034,1.6313728351795154,0.1674416140885878
5.105804,1.6407298167476725,0.1671194716874778
5.108192,1.6546028564878612,0.16649267575786905
5.110572,1.6726198673477433,0.16548362102954614
5.112963999999999,1.692359439700322,0.16442427051740682
5.115351999999999,1.7098173720527636,0.16364322386505722
5.117731999999999,1.736075103323791,0.1621404094274607
5.120128,1.7566060716092875,0.16105872588855596
5.122516,1.775833787282669,0.16004588017503024
5.124911999999999,1.7931066240378764,0.15904488323375654
5.127316,1.8085171296735274,0.15822218326048962
5.129699999999999,1.8291425416155105,0.1570390427335119
5.132079999999999,1.847765852811077,0.15596017565254436
5.134484,1.8721159269921732,0.15454070619222254
5.136871999999999,1.8861759581874653,0.15388618360411646
5.139252,1.9044725083010678,0.15303723610888262
5.141647999999999,1.925003476586565,0.1521687792455587
5.144032,1.9473967759916184,0.1511937696389468
5.146411999999999,1.9694179883443346,0.15019423758196243
5.148808,1.9886457040177157,0.1493576366228955
5.151196,2.0046606141311814,0.14875686209605718
5.153576,2.0192325020056705,0.14814924921049996
5.155971999999999,2.0335720724546826,0.14747163250646866
5.158359999999999,2.0448386069706395,0.14700137753764156
5.16074,2.052380479247483,0.1467322956462522
5.163135999999999,2.060993286710966,0.14639612015743195
5.16552,2.0663932886145324,0.14628928334779331
5.167915999999999,2.0764491183169906,0.1459438112685628
5.170319999999999,2.0792879409666996,0.14606327616885567
5.172707999999999,2.084500951415163,0.14612454338080197
5.175088,2.085290451490212,0.14651026269350073
5.177483999999999,2.0827273763784846,0.14713051128193214
5.179871999999999,2.0844480420133116,0.14746316126056305
5.182251999999999,2.0787193831699127,0.14815844291694633
5.184656,2.0800679617524023,0.148430848509135
5.187039999999999,2.08397771958875,0.1484794787284716
5.189419999999999,2.0855132896263426,0.1485811951392762
5.191816,2.084115593357741,0.1488402547849425
5.194204,2.0821588185816977,0.14919805187458254
5.196583999999999,2.0839267060447684,0.149383849083971
5.198987999999999,2.0896987950006722,0.1493506784152056
5.201375999999999,2.1019890428750245,0.14903467611359622
5.203755999999999,2.111578341868659,0.1489495208740325
5.20616,2.124380446422209,0.14866892744178062
5.208543999999999,2.138253486162397,0.1483168236067949
5.210924,2.150124425156169,0.14807730310082015
5.213323999999999,2.164277004150078,0.14768879616982897
5.215708,2.1767070216512905,0.1473619987409592
5.218092,2.1962142765783916,0.14663358894032547
5.2204880000000005,2.2090636029601853,0.1462093857642126
5.222876,2.226336439715393,0.14548534499094698
5.225255999999999,2.241886714977904,0.14481455200737142
5.227652,2.255295119867138,0.14429280061572072
5.23004,2.2741507484881818,0.14352851744168674
5.232423999999999,2.2920752115494474,0.14283890676235173
5.23482,2.3015719627444646,0.14264270091074163
5.237208,2.312931045059039,0.14237108823699893
5.239588,2.3293652640530853,0.14183187561571733
5.241991999999999,2.3408641159945196,0.14152503905496197
5.244379999999999,2.347427600883341,0.1414733541714334
5.246759999999999,2.35026642353305,0.14158540062567174
5.249156,2.3463075480105897,0.14202396139760215
5.251544,2.3421163550626525,0.14239016262399995
5.253923999999999,2.3349918958085203,0.14289947282660329
5.25632,2.3285190628604457,0.1434152590590865
5.258708,2.3228376258452896,0.14391428842074933
5.261091999999999,2.3150143184568557,0.14453492627096037
5.263488,2.3062598455086443,0.14519984731627741
5.265876,2.298436538120212,0.14580296745929244
5.268271999999999,2.299273260023504,0.1460134638163361
5.270668,2.2988992771132972,0.14630498036615763
5.273056,2.3008069342032273,0.14645327466715924
5.275436,2.3047166920395754,0.14650542243121525
5.27784,2.307043658010086,0.14658549038292154
5.280224,2.305226652860904,0.14687764711332832
5.282604,2.3109061940181905,0.1467552000361105
5.284999999999999,2.311790137749725,0.14684017251664847
5.287387999999999,2.307319405548068,0.1472242497074968
5.289768,2.3089947452125217,0.1472943648725069
5.292172,2.315325912675866,0.14717344274692923
5.294555999999999,2.323798950512488,0.14693014006279428
5.296936,2.3365557290956636,0.14644141905382843
5.299331999999999,2.3523383217836518,0.1459124876349259
5.30172,2.3706348718972543,0.14531480324305882
5.304104,2.3861379253315227,0.144821296079195
5.306499999999999,2.3999184172730943,0.1443781429194841
5.308887999999999,2.4149096140281645,0.14385320094638318
5.311267999999999,2.4328340770894297,0.14319435524660734
5.313664,2.4447522379114446,0.14283704791295246
5.316052,2.4482899086954544,0.14282881475534404
5.318447999999999,2.4499652483599075,0.14289697824401115
5.320852,2.4504298832108624,0.1430490174943901
5.323235999999999,2.4476817125019017,0.14338230312802655
5.325615999999999,2.4455851680989986,0.14372153656738818
5.32802,2.446841198882871,0.14385791604270823
5.330407999999999,2.4490283952265224,0.14395650168318813
5.332788,2.4569423545557028,0.1438183117530027
5.335192,2.468208889071659,0.1434791549180199
5.337575999999999,2.4796151932144763,0.14313337642623328
5.339956,2.4861333521329247,0.1428899007900744
5.34236,2.492651511051373,0.14265139575010471
5.344748,2.4948859292232672,0.1426346521018326
5.347127999999999,2.4960966340367663,0.14255878477171566
5.349524,2.494933151051511,0.1425201632030647
5.351907999999999,2.4977738695590888,0.14230503285773263
5.354288,2.503687623999722,0.14194878108431355
5.356692,2.508530443253717,0.14164928314904168
5.35908,2.511231392134435,0.1414598000212753
5.36146,2.5197988736275434,0.14103133887636898
5.363864,2.5359554492257383,0.1403196913114488
5.366248,2.5542538951972107,0.13949994258998605
5.368628,2.5724125715418227,0.13869920613332704
5.371031999999999,2.5939238230732102,0.13772063728833886
5.37342,2.6135727434850415,0.1368043803258066
5.375799999999999,2.6324302679639544,0.1359121903426031
5.378203999999999,2.6475631302037534,0.1351751470047974
5.380588,2.6621841357643556,0.1344347436617823
5.382967999999999,2.6766653716980975,0.1337236235501425
5.385371999999999,2.6897961331914804,0.1331123120575296
5.387759999999999,2.7087462054690103,0.13240196343013183
5.39014,2.7246232418134846,0.13181206632529918
5.392535999999999,2.7469258892777906,0.13094773058255452
5.39492,2.7686694582346556,0.13016384956317462
5.397303999999999,2.7944172286843543,0.12924853395565744
5.399708,2.8196531424548548,0.12832730732837733
5.402091999999999,2.844097660292438,0.12743627082328696
5.404471999999999,2.8716152140630764,0.12645125111962577
5.406871999999999,2.901693947087572,0.12534343054297473
5.409259999999999,2.9292587226864533,0.12429702340419459
5.411639999999999,2.9510967352998048,0.12342580387583854
5.414044,2.970932647166739,0.12262137587762824
5.416432,2.9909083286605336,0.12179793561461426
5.418812,3.0118151757141067,0.12097822413414763
5.421216,3.0390078642606504,0.11996154450405273
5.4236,3.0667124094863922,0.11898005237918285
5.425983999999999,3.0929267106449148,0.11808323582555127
5.42838,3.113646566243384,0.11739426122828388
5.430763999999999,3.134506191468714,0.11669721527980315
5.433148,3.1516411544549308,0.1160786132021468
5.435543999999999,3.165610533709475,0.11549234646380026
5.437928,3.183444344829992,0.11480202189150876
5.440307999999999,3.190848343337845,0.11445619730897044
5.442707999999999,3.201325377778752,0.11401818593570875
5.445092,3.207239132219386,0.11376641040943258
5.447475999999999,3.2116626425928003,0.11360231150607898
5.449872,3.2139442825929376,0.1135124802111844
5.452255999999999,3.2128733474062994,0.11354876194722197
5.454636,3.2070993625925257,0.1137779180830766
5.457031999999999,3.197833032965116,0.11415374889790675
5.459419999999999,3.1912204303901817,0.11448564418681564
5.461799999999999,3.1863303893079435,0.11479251582765485
5.464196,3.1845133841587607,0.11500155256704696
5.466584,3.179343803822802,0.11533218535480107
5.468963999999999,3.167748612367012,0.11586820866104303
5.471367999999999,3.155362024978304,0.11640664462294541
5.473755999999999,3.1441861424030955,0.11689785452575346
5.476136,3.1391563316939974,0.11720881279206158
5.478532,3.133986751358039,0.11753259944658488
5.480916,3.1368255740077484,0.1176382582189905
5.483299999999999,3.1371032174035998,0.1178608486935591
5.485699999999999,3.136449695239673,0.11810063061963863
5.488088,3.1445959719943315,0.1181194135045539
5.490467999999999,3.147667112069517,0.11828310495089249
5.492864,3.1502263954655056,0.11842002828178844
5.495252,3.152645909234634,0.1185726205445139
5.497647999999999,3.156648214869598,0.11871615597671324
5.500044,3.1578570238252275,0.11892250658400585
5.502432,3.1621388687139125,0.11903307407297284
5.504812,3.1737774902822067,0.11889792343408472
5.507207999999999,3.1854161118505013,0.11876381966182642
5.509595999999999,3.1962633374858775,0.11863520583828649
5.511976,3.2017558871880607,0.11869194740134756
5.514371999999999,3.207667745770825,0.11870034728135298
5.516759999999999,3.2158612443537264,0.11861819415386662
5.519139999999999,3.2261966133099054,0.11846520515493887
5.521536,3.2354610470794456,0.11834740258671667
5.523924,3.2397901137963734,0.11836618143892508
5.5263160000000005,3.243048245326663,0.11842152894576634
5.528716,3.2369474994309257,0.11877322241688555
5.531104,3.2363411990952415,0.11892626791467427
5.533483999999999,3.23480373319978,0.11909921056554397
5.53588,3.230752309878703,0.11929936536129242
5.538263999999999,3.231915792863958,0.11933708226594034
5.540648,3.236012542155409,0.11929940372367118
5.543043999999999,3.243881175514216,0.11909740624411029
5.545431999999999,3.2541712185000202,0.11880064705788812
5.547812,3.2678138366726013,0.11837984057906827
5.550207999999999,3.281875763725762,0.1179181142419383
5.552596,3.2925851155921477,0.11758388776418842
5.554992,3.304505172272032,0.11720630839146631
5.557388,3.319358495258111,0.11676587531753457
5.559776,3.3406374293640213,0.11613481914823758
5.562155999999999,3.3597744930966553,0.11556365560787119
5.564552,3.376769686456011,0.11505791778418901
5.56694,3.3902725350017318,0.11468039164546524
5.569323999999999,3.406057023547589,0.11422404701997538
5.57172,3.4270564183997787,0.11362446243578898
5.574103999999999,3.450477222878966,0.11293947313824292
5.576488,3.4812548040377633,0.11203606205731144
5.578891999999999,3.5097507451964227,0.11123152724844838
5.581276,3.5405283263552194,0.11036141764404182
5.583659999999999,3.5743789434470727,0.10943029479520353
5.586056,3.6051565246058694,0.10859168759830037
5.588444,3.6356545665109463,0.10778790791937001
5.590823999999999,3.661589328415748,0.10714210342522068
