Time,Force,Position
3.502936,0.08401662160720971,0.0
3.505292,0.06903579132289825,0.0
3.507632,0.05312379547880849,0.0
3.509976,0.038282734821357224,0.0
3.5123159999999998,0.03037914196293485,0.0
3.5146599999999992,0.02247554910451247,0.0
3.5169999999999995,0.01578266105958883,0.0
3.51934,0.00829837708174708,0.0
3.521684,0.0058892297833775635,0.0
3.524032,0.002409147298369516,0.0
3.526376,0.0,0.0
3.5287159999999997,0.0,0.0
3.5310559999999995,0.0,0.0
3.533392,0.0,0.0
3.5357319999999994,0.0,0.0
3.5380759999999998,0.0,0.0
3.540412,0.0,0.0
3.542756,0.0,0.0
3.5451,0.0,0.0
3.547444,0.0,0.0
3.549776,0.0,0.0
3.5521199999999995,0.0,0.0
3.5544639999999994,0.0,0.0
3.556804,0.0,0.0
3.5591479999999995,0.0,0.0
3.561488,0.0,0.0
3.563832,0.0,0.0
3.566176,0.0,0.0
3.5685199999999995,0.0,0.0
3.570864,0.0,0.0
3.5732159999999995,0.00012750729823224425,0.0
3.5755599999999994,0.00012750729823224422,0.0
3.5779,0.00012750729823224422,0.0
3.5802439999999995,0.00012750729823224425,0.0
3.582584,0.0003947842233246988,0.0
3.584932,0.0005222915215569431,0.0
3.587272,0.000522291521556943,0.0
3.5896159999999995,0.0025121299393458286,0.0
3.59196,0.0025121299393458278,0.0
3.5943039999999997,0.0025121299393458278,0.0
3.596652,0.0025121299393458286,0.0
3.5989879999999994,0.002919176491298493,0.0
3.6013399999999995,0.00840135972272339,0.0
3.603684,0.012952377394369967,0.0
3.60602,0.016432459879378015,0.0
3.6083599999999993,0.01791044161796921,0.0
3.6107039999999992,0.019388423356560405,0.0
3.613044,0.019388423356560405,0.0
3.615384,0.02379967140134677,0.0
3.6177319999999993,0.028210919446133135,0.0
3.620084,0.02808341214790089,0.0
3.62242,0.030352789819410194,0.0
3.624764,0.03062006674450266,0.0
3.627116,0.03181850922937343,0.0
3.62946,0.03155123230428098,0.0
3.631812,0.03142372500604873,0.0
3.634152,0.03142372500604873,0.0
3.6365,0.02943388658825985,0.0
3.63884,0.02943388658825985,0.0
3.64118,0.02943388658825985,0.0
3.643528,0.02943388658825985,0.0
3.645872,0.029026840036307185,0.0
3.648216,0.023544656804882283,0.0
3.650556,0.018993639133235707,0.0
3.652892,0.015513556648227662,0.0
3.655232,0.014035574909636467,0.0
3.657572,0.01255759317104527,0.0
3.659916,0.012917417894754785,0.0
3.6622559999999993,0.008506169849968418,0.0
3.6646,0.004094921805182049,0.0
3.66694,0.004094921805182049,0.0
3.6692839999999993,0.0031165344171605767,0.0
3.67162,0.004000478148695745,0.0
3.673964,0.004093025947312803,0.0
3.676304,0.004093025947312804,0.0
3.678652,0.004093025947312804,0.0
3.680996,0.004093025947312804,0.0
3.683336,0.004093025947312804,0.0
3.68568,0.004093025947312804,0.0
3.6880159999999993,0.005523785857660848,0.0
3.69036,0.005523785857660848,0.0
3.692704,0.005523785857660848,0.0
3.6950439999999993,0.005523785857660848,0.0
3.697384,0.005523785857660848,0.0
3.699728,0.005523785857660848,0.0
3.702072,0.005523785857660848,0.0
3.7044159999999993,0.005523785857660848,0.0
3.706764,0.005163961133951335,0.0
3.709104,0.005163961133951335,0.0
3.71146,0.005163961133951335,0.0
3.7138,0.005163961133951335,0.0
3.716144,0.0038729708504635016,0.0
3.718488,0.002721750193835878,0.0
3.720824,0.0014307599103480443,0.0
3.723172,0.0014307599103480445,0.0
3.725516,0.0014307599103480445,0.0
3.727856,0.0014307599103480445,0.0
3.7302,0.0014307599103480445,0.0
3.732544,0.0014307599103480445,0.0
3.734892,0.0,0.0
3.7372359999999993,0.0,0.0
3.739584,0.0,0.0
3.741936,0.0,0.0
3.744268,0.0,0.0
3.746612,0.0,0.0
3.74896,0.0,0.0
3.7513,0.0,0.0
3.75364,0.0,0.0
3.755984,0.0,0.0
3.758336,0.0,0.0
3.760672,0.0,0.0
3.763016,0.0,0.0
3.765364,0.0,0.0
3.7677,0.0,0.0
3.77004,0.0,0.0
3.772384,0.0,0.0
3.7747319999999993,0.0,0.0
3.777068,0.0,0.0
3.779412,0.0,0.0
3.7817599999999993,0.0,0.0
3.784096,0.0,0.0
3.78644,0.0,0.0
3.788784,0.0,0.0
3.791124,0.0,0.0
3.79346,0.0,0.0
3.795804,0.0,0.0
3.798156,0.0,0.0
3.800496,0.0,0.0
3.802835999999999,0.0,0.0
3.80518,0.0014779817385911953,0.0
3.8075199999999993,0.0020247979174040703,0.0
3.80986,0.004573714842633796,0.0
3.812204,0.004573714842633796,0.0
3.814544,0.004573714842633796,0.0
3.8168919999999993,0.004573714842633796,0.0
3.819236,0.004573714842633796,0.0
3.82158,0.004573714842633796,0.0
3.823916,0.004573714842633796,0.0
3.8262519999999993,0.004573714842633796,0.0
3.828595999999999,0.004573714842633796,0.0
3.830936,0.004573714842633796,0.0
3.833284,0.004573714842633796,0.0
3.8356239999999993,0.004573714842633796,0.0
3.837968,0.004573714842633796,0.0
3.840308,0.005260300648306881,0.0
3.8426519999999993,0.009159692013895559,0.0
3.845,0.009986047446428854,0.0
3.84734,0.009986047446428854,0.0
3.8496919999999992,0.010952172505822358,0.0
3.852036,0.010580085453484876,0.0
3.85438,0.015143365453759418,0.0
3.856724,0.01663360952097858,0.0
3.85906,0.023606036819622638,0.0
3.861408,0.029647298558488376,0.0
3.8637479999999993,0.03368645955093726,0.0
3.8661,0.03944818203608258,0.0
3.8684439999999993,0.044418508588309785,0.0
3.870784,0.04724696476725993,0.0
3.873128,0.05007542094621008,0.0
3.875468,0.051972711565381906,0.0
3.8778159999999993,0.058805369237165755,0.0
3.88016,0.06284453022961464,0.0
3.882504,0.065812756035425,0.0
3.884848,0.06584771553504018,0.0
3.887188,0.0651611297293671,0.0
3.889532,0.06126173836377842,0.0
3.891868,0.06140150799063863,0.0
3.894212,0.06222786342317192,0.0
3.89656,0.06301925935609004,0.0
3.898896,0.06191336466983632,0.0
3.90124,0.0568032684907489,0.0
3.903588,0.053078606251635616,0.0
3.905924,0.04735184326610548,0.0
3.908268,0.04348741140013199,0.0
3.910608,0.04656044733318737,0.0
3.912956,0.04670021696004758,0.0
3.9152999999999993,0.04735184326610548,0.0
3.91764,0.052426979945577726,0.0
3.919992,0.05643118143841143,0.0
3.922328,0.0641600451703584,0.0
3.92468,0.06308910998371987,0.0
3.927024,0.06560306740933441,0.0
3.929364,0.07226099595464287,0.0
3.9316999999999993,0.08278335636592482,0.0
3.934043999999999,0.0953427770232388,0.0
3.9363959999999993,0.1040377658145793,0.0
3.9387279999999993,0.11190639917338649,0.0
3.941068,0.12005457178591411,0.0
3.943412,0.12699203958494298,0.0
3.945756,0.13340538837614618,0.0
3.948092,0.13846826272699045,0.0
3.95044,0.14028337201830396,0.0
3.95278,0.14130708537669934,0.0
3.95512,0.1413996331753164,0.0
3.957464,0.1354858787346829,0.0
3.959808,0.13213330354790712,0.0
3.962152,0.1312021379881288,0.0
3.964492,0.12677862761471445,0.0
3.9668319999999992,0.1255679228012157,0.0
3.969176,0.11662835425576998,0.0
3.971524,0.11086663177062468,0.0
3.973864,0.10431351335256124,0.0
3.976208,0.09468735900144243,0.0
3.978544,0.0841300390905453,0.0
3.98088,0.0715706184332313,0.0
3.9832199999999993,0.0628756296418908,0.0
3.985563999999999,0.054040871223690126,0.0
3.987904,0.04506634317862922,0.0
3.990248,0.036371354387288723,0.0
3.9925919999999993,0.0299580055960855,0.0
3.994928,0.024930090744856418,0.0
3.997264,0.023766607759600825,0.0
3.999608,0.024325686267041666,0.0
4.001948,0.02502453440134272,0.0
4.004303999999999,0.02572338253564377,0.0
4.006644,0.02493198660272566,0.0
4.008988,0.020241199304218874,0.0
4.011336,0.016761116819210827,0.0
4.013672,0.011139163960925716,0.0
4.016019999999999,0.01045257815525263,0.0
4.018364,0.01045257815525263,0.0
4.020703999999999,0.010952172505822354,0.0
4.023047999999999,0.010985236147568297,0.0
4.025392,0.01679038874521828,0.0
4.027731999999999,0.026365529552355448,0.0
4.030068,0.04120090263619896,0.0
4.032416,0.05929440725033199,0.0
4.034751999999999,0.08092558264847492,0.0
4.037096,0.10525581106946653,0.0
4.03944,0.1330764884462249,0.0
4.041784,0.16649452565241196,0.0
4.044128,0.20396209032180657,0.0
4.046468,0.23975241946887865,0.0
4.048816,0.27917296719857776,0.009340430511802429
4.051151999999999,0.3263677046305978,0.018232519678896553
4.053496,0.37547009915254825,0.02746148685002111
4.05584,0.433173038809353,0.036269999648780665
4.058184,0.49506527555622554,0.044974839750460655
4.060536,0.5660821764457779,0.05309958831687807
4.062875999999999,0.6388669647984005,0.06147837566076452
4.06522,0.718634546920426,0.06958984316296755
4.067568,0.801579975102752,0.0776209752110309
4.069912,0.8856435602999596,0.0856570669711215
4.072255999999999,0.963143660608345,0.09372218503424232
4.074611999999999,1.0376651686401615,0.10175827679433293
4.076956,1.1091608625671656,0.10974314454085621
4.079295999999999,1.1788414472028563,0.11770602102710283
4.081639999999999,1.247917627360732,0.12546641120203497
4.08398,1.315645228936118,0.1330815302712026
4.086316,1.3798823815557375,0.1406966493403702
4.08866,1.4394183804060912,0.1482595261521488
4.091019999999999,1.4955564780992954,0.155779186203727
4.093368,1.5544427465014607,0.16312380993309525
4.095712,1.6107697315076375,0.1610259262342626
4.098052,1.6594622964383534,0.15942251618430942
4.100403999999999,1.7101116361451125,0.15730277708856158
4.10274,1.7536384124556088,0.1556568830001231
4.105087999999999,1.7987026546615674,0.1538404431993407
4.107431999999999,1.8345024630979856,0.15262910501329807
4.109783999999999,1.8693257800042518,0.15114951389711345
4.112127999999999,1.8979576990740334,0.14992323601743723
4.114471999999999,1.926636839972058,0.14862823491442878
4.11682,1.9621136790422513,0.14705801542301256
4.119155999999999,2.0002442451649194,0.1453963857943698
4.121508,2.0369317890486114,0.14375154816455826
4.123856,2.070593518827491,0.14216723782096194
4.126212,2.104534787860091,0.14056506604040453
4.128556,2.134192316146137,0.13926078300865466
4.1309,2.1592865644319086,0.13826539931909718
4.133248,2.183589416784762,0.1372811632509664
4.135587999999999,2.206681564324116,0.13639457735442218
4.137931999999999,2.228190919997635,0.1355512082180784
4.140283999999999,2.248489570857655,0.13483766754505774
4.142624,2.2683689128370936,0.13421519047224234
4.144968,2.2881084851896727,0.13360244525973153
4.147316,2.301190128996943,0.13329649150298556
4.14966,2.31613410392377,0.1329123153822771
4.152004,2.3221385103051517,0.13298122479847474
4.154348,2.326140815940116,0.13315013068686332
4.1567,2.3304226608288006,0.13327014921286295
4.159036,2.330979843478372,0.13354734120742923
4.161379999999999,2.323668392769137,0.13422045975803934
4.163732,2.3067657472083973,0.13530819247099596
4.16608,2.28879216646102,0.13643862835518897
4.168424,2.2730530038855363,0.13754282684737132
4.170763999999999,2.2568945324294716,0.1387365257088208
4.173115999999999,2.2408758306002676,0.1398785222746208
4.175459999999999,2.2276506254503987,0.14091359419275365
4.177808,2.2193607873531422,0.14172322260974213
4.180148,2.2106516403753043,0.1426162603050643
4.182492,2.2003597015316303,0.14355412678453794
4.184836,2.187786122687819,0.14466621162977297
4.18718,2.1712083423511745,0.14600557648997756
4.189532,2.153559626827891,0.1474118800327225
4.191868,2.136981846491246,0.14876231941099174
4.194216,2.125199663580353,0.14988346396909213
4.19656,2.110903523243845,0.15107995152528295
4.198912,2.1007513540270315,0.15204706068491886
4.201256,2.094323847049331,0.15284453004456683
4.2036,2.0844039952579942,0.15391544735400448
4.205947999999999,2.0791399712655494,0.15476835082840543
4.208291999999999,2.0829552854454105,0.15508154416692663
4.210636,2.089843635558327,0.15520512893644478
4.212984,2.093798719365048,0.15549171382929963
4.215319999999999,2.097241946492572,0.15574440330353845
4.217663999999999,2.1028270439933725,0.1558527595454747
4.22002,2.1045477096281995,0.15617056748551142
4.222364,2.1057565185838287,0.1564532960875448
4.224708,2.1081760323529575,0.1566377714675788
4.227052,2.1156706828015577,0.15653489205753604
4.229404,2.1247481251159943,0.15638958689346263
4.231736,2.1368986033634867,0.15605303789427255
4.23408,2.1521221175440344,0.15551762268144662
4.236427999999999,2.1673456317245816,0.15497359034676947
4.238767999999999,2.1832207722111874,0.1544361895115071
4.241111999999999,2.197885207884294,0.15400730101166465
4.243455999999999,2.2134808091171787,0.15352790124274995
4.245807999999999,2.226143144043869,0.15320509603357094
4.248148,2.236431291171804,0.1529450109715385
4.250488,2.2484892216206793,0.1524685704720401
4.25284,2.260686921696415,0.1519831627977926
4.255179999999999,2.2640848228535644,0.15198586893614957
4.257528,2.2656203928911576,0.15207847842714395
4.259872,2.2702289988618056,0.15198311818816124
4.262224,2.273487130392095,0.15201003175842465
4.264568,2.2758140963626063,0.15208247491907553
4.266915999999999,2.2792119975197567,0.1520822036368883
4.269267999999999,2.279816401997571,0.15222121532803282
4.271611999999999,2.27734777054233,0.15254616270803684
4.273952,2.2708749375942556,0.15308984171841658
4.276295999999999,2.266683744646319,0.15346654230760226
4.278644,2.264913961325379,0.153652754378935
4.280992,2.2604904509519645,0.1539428706477519
4.283332,2.2544841487127143,0.1542757340303688
4.285679999999999,2.249036924980904,0.15450637533061168
4.288016,2.2462906501298123,0.1545036900272971
4.29036,2.2427529793458025,0.15451845425137312
4.292707999999999,2.2420088052411273,0.1544096856573952
4.295044,2.2485741859878186,0.15400893289769205
4.297383999999999,2.2601674815857398,0.15347878314718055
4.299723999999999,2.269107050131185,0.15304577927673765
4.302072,2.2819110505426043,0.15241750385099798
4.304411999999999,2.295226907633221,0.15180970039264455
4.306752,2.3093341606567566,0.15119769162359226
4.309107999999999,2.324000492187732,0.15049301296042147
4.311448,2.3397377589053465,0.14973305160891975
4.313796,2.3553352559961005,0.14898319068337398
4.316135999999999,2.37372624976619,0.14810648328454962
4.318476,2.3911860779765006,0.14725943166458405
4.320824,2.408785675813672,0.14638644630455924
4.323163999999999,2.4234520073446477,0.14566749786064995
4.325507999999999,2.431832497382653,0.14530834088478775
4.327859999999999,2.441795779286494,0.1449067674243091
4.330203999999999,2.4572062849221448,0.14429080086474383
4.332544,2.474339352050492,0.14364492981137042
4.334892,2.485977973618786,0.1433374282049096
4.337228,2.50306381891889,0.1428423611469263
4.339572,2.520149664218994,0.142352528287661
4.341924,2.525781983548038,0.14234793804024506
4.344268,2.5263863880258532,0.14247123291949562
4.346616,2.529644519556143,0.14251127890726273
4.348955999999999,2.5338338166462107,0.1425171232317993
4.351296,2.5376510266839407,0.14247094212696343
4.35364,2.538023113736278,0.1425216996589948
4.355988,2.5379758919080344,0.14263666612231535
4.358339999999999,2.536717965266293,0.14282840849923337
4.360684,2.5423975064235793,0.1427203522472259
4.363023999999999,2.5467265731405075,0.14270756302754717
4.365367999999999,2.5541286757904915,0.14255468499556967
4.367719999999999,2.5593889080671977,0.14250682669377557
4.37006,2.565440536276822,0.1424445963672624
4.372412,2.5764275315390583,0.14216487380669163
4.374752,2.588765001241653,0.14178855896825465
4.377091999999999,2.598868052772355,0.14144610803785018
4.379432,2.6057582987431407,0.14126854838467257
4.38178,2.61679251583362,0.1408989686124934
4.384128,2.6200978691921533,0.14083100174313953
4.386472,2.6246139273641846,0.14069344900204178
4.388815999999999,2.6380695540816617,0.1401879507569222
4.391164,2.6540391382247535,0.13963351473623167
4.393503999999999,2.664142189755455,0.1393018496762034
4.395843999999999,2.675316176472795,0.138926867924592
4.398204,2.690354595056108,0.13841738574902684
4.400536,2.7096295325577318,0.13781528989346126
4.402888,2.7289044700593563,0.1372097779546787
4.405232,2.7472482420012025,0.13662788809329102
4.407579999999999,2.754650344651185,0.13648825491082683
4.40992,2.763682460995249,0.1362203957259505
4.41226,2.7716436421526733,0.1360084545721877
4.414604,2.7838885640566517,0.13559857530599226
4.416951999999999,2.798275356333907,0.13509600313655112
4.419292,2.810939587118466,0.13464065061139613
4.421636,2.824534983462803,0.13416726730536294
4.423988,2.8337068694337257,0.13389904912418196
4.426323999999999,2.842227129098591,0.13361854789069363
4.428672,2.845672252083984,0.13353951192815605
4.431019999999999,2.8543322813757093,0.13323539934585749
4.433363999999999,2.8580569436148227,0.13311659047506785
4.435708,2.855775303614685,0.13323225291018045
4.438052,2.8517711021218517,0.13338510671303347
4.440391999999999,2.8577774043611015,0.13315900944358247
4.442728,2.860570901040437,0.13307442141518275
4.445075999999999,2.8600118225329956,0.1331481968221058
4.447428,2.8590806569732177,0.1331749636018375
4.449771999999999,2.8593601962269384,0.1331389388445308
4.452115999999999,2.8648546417869905,0.13290245477088442
4.454459999999999,2.87956819514621,0.132321234947237
4.456804,2.894141978878569,0.13176746901931874
4.45914,2.9068534314913714,0.1312652985550739
4.461487999999999,2.9183541792906746,0.13083309880958757
4.463832,2.926921660783783,0.13049604221631686
4.466171999999999,2.9364203078366695,0.13013746151386163
4.468515999999999,2.945779185262696,0.129803967049191
4.47086,2.9580713289949174,0.12937211656631767
4.473208,2.9714344079137778,0.12889681766140085
4.475555999999999,2.990943558698748,0.12820326238426205
4.477895999999999,3.0071001342969432,0.12765670356017597
4.480244,3.0272609113879714,0.12696916255775043
4.48258,3.049423789225417,0.12620375040849363
4.484924,3.072378062995781,0.1254364503975129
4.487272,3.0893260345268945,0.12489524765598317
4.489616,3.1094868116179235,0.12423285832466481
4.491952,3.130998063149311,0.12349769876628569
4.494295999999999,3.1494362787476438,0.1228743050804776
4.496644,3.1666637895324774,0.12231125706946414
4.49898,3.1786763940109783,0.12193983672110238
4.501323999999999,3.1873364233027037,0.12171037554963869
4.503679999999999,3.198510410020044,0.12145502979783737
4.506016,3.209265087856803,0.12124289936842862
4.50836,3.218948830506924,0.1210691691126982
4.510704,3.229423969089962,0.12088796991109778
4.513051999999999,3.2425528347254757,0.12066572959547313
4.515388,3.254750534801211,0.12046874564015152
4.517732,3.270021270810001,0.12018325429877494
4.520076,3.287805964244406,0.11987312512405376
4.522424,3.3043799528653124,0.11962407926841027
4.524772,3.324306516672995,0.11925816808856493
4.527112,3.3458158723465137,0.11889231707499029
4.529456,3.371189659886005,0.11844683813132151
4.531791999999999,3.3974946129852754,0.11799056732428533
4.534135999999999,3.4236597964576854,0.11754758383524842
4.536487999999999,3.4519668503033727,0.11706057312962573
4.538828,3.4801341345222,0.11659438935186354
4.541172,3.5109551457935018,0.11609116956766416
4.543515999999999,3.5448491929978587,0.11551638221828091
4.545864,3.5806055713217724,0.11490360990069193
4.548208,3.615570553712768,0.11429587341787693
4.550555999999999,3.6432259812523973,0.11381137673616393
4.552899999999999,3.676375854352079,0.11316574525783649
4.555243999999999,3.7118073674518985,0.11245252984623022
4.557588,3.7492409812981347,0.1116969784705105
4.559927999999999,3.7810876017857007,0.11104884467342488
4.56228,3.8110718911537105,0.1104339143740192
4.56462,3.838262683842385,0.10987886445339388
4.566967999999999,3.861868583918807,0.10937846478363127
4.569319999999999,3.8805391169426167,0.10898115235764293
4.571656,3.897859175526067,0.10864561152486771
4.574,3.914527607803459,0.10830694243851544
4.576347999999999,3.9253295074684615,0.1080884490368106
4.578679999999999,3.9333379104541293,0.10791618076036434
4.581023999999999,3.938692586387322,0.10777428762928787
4.583367999999999,3.9388323560141822,0.10776136154410386
4.585716,3.9381807297081237,0.10775051169957613
4.588051999999999,3.9391591170961457,0.10766180832373197
4.590396,3.9382751733646106,0.10760242583754581
4.592744,3.9348772722074608,0.10756035481984358
4.595079999999999,3.932690075863809,0.10747904722362081
4.597427999999999,3.9359501032519684,0.10732488257943255
4.599767999999999,3.9350661595204333,0.1072656897459755
4.602115999999999,3.9339026765351774,0.10723142920216629
4.604455999999999,3.93408966799028,0.10714799140766049
4.606795999999999,3.9372099257515787,0.10701288501351447
4.609143999999999,3.941401118699516,0.10685221679100616
4.61148,3.9483858083267878,0.10665461999464583
4.613832,3.957512368327337,0.10640782350526917
4.616175999999999,3.9698517338878014,0.10608243283792965
4.618523999999999,3.9847522787021235,0.10567760702440507
4.620863999999999,3.996999096463971,0.10530194182512369
4.623208,4.012458719785735,0.10485168378024125
