Time,Force,Position
6.683363999999999,0.11382863200783602,0.0
6.685748,0.10712348163428442,0.0
6.688132,0.10055810088759304,0.0
6.690527999999999,0.0962743601410389,0.0
6.692916,0.09295503962666968,0.0
6.695295999999999,0.09160456518631073,0.0
6.697692,0.09267550037294926,0.0
6.70008,0.08684222243296548,0.0
6.70246,0.08114871411984191,0.0
6.704856,0.07652614099335686,0.0
6.707243999999999,0.07362612935956825,0.0
6.70964,0.07072611772577964,0.0
6.712036,0.06768633646513082,0.0
6.714419999999999,0.06264445445806514,0.0
6.716804,0.05746280282413927,0.0
6.719199999999999,0.05134998563043506,0.0
6.721584,0.043235067690314,0.0
6.723963999999999,0.035120149750192946,0.0
6.72636,0.024863361436794823,0.0
6.728752,0.015677508310035237,0.0
6.731131999999999,0.010775395929829776,0.0
6.733528,0.009332373690853765,0.0
6.735911999999999,0.008168890705598175,0.0
6.738308,0.010078443653397967,0.0
6.740712,0.01824058342176217,0.0
6.7431,0.024573646742976296,0.0
6.745479999999999,0.028764839690913355,0.0
6.74788,0.03585604427263903,0.0
6.750264,0.04294724885436471,0.0
6.752647999999999,0.05204055418250723,0.0
6.755051999999999,0.05927152839109312,0.0
6.757436,0.06543156741304047,0.0
6.759815999999999,0.0777376783010986,0.0
6.762212,0.08790191881587964,0.0
6.7646,0.09713499377088237,0.0
6.76698,0.10343480241968996,0.0
6.769383999999999,0.10759274069522046,0.0
6.771772,0.11282161415738949,0.0
6.774148,0.11683978280605979,0.0
6.776555999999999,0.12393098738778546,0.0
6.77894,0.13209312715614968,0.0
6.781319999999999,0.14266270939567477,0.0
6.783716,0.15588601868767465,0.0
6.786104,0.16002998980736854,0.0
6.788484,0.1586795153670096,0.0
6.79088,0.1563978753668723,0.0
6.793267999999999,0.1539764657398748,0.0
6.795648,0.15262599129951587,0.0
6.798043999999999,0.1503443512993786,0.0
6.800431999999999,0.14699177611260278,0.0
6.802816,0.14843479835157877,0.0
6.805211999999999,0.1530906261504704,0.0
6.807596,0.146525245403779,0.0
6.80998,0.14424360540364176,0.0
6.812376,0.1438242965230611,0.0
6.814764,0.1484801243219527,0.0
6.817159999999999,0.15928202398695507,0.0
6.819556,0.16486901734562504,0.0
6.821944,0.1708753195848756,0.0
6.824323999999999,0.16873344921159852,0.0
6.82672,0.16645180921146124,0.0
6.829108,0.15630153585251677,0.0
6.831488,0.1422728634717622,0.0
6.833883999999999,0.13705795716542976,0.0
6.836271999999999,0.13291398604573584,0.0
6.838652,0.12956141085896003,0.0
6.841059999999999,0.12727977085882275,0.0
6.843444,0.12406696529890715,0.0
6.845824,0.1208541597389916,0.0
6.848227999999999,0.11577902305951937,0.0
6.850615999999999,0.10710502661195746,0.0
6.852995999999999,0.0962891597911185,0.0
6.855395999999999,0.09054842964975181,0.0
6.857783999999999,0.08266582913510802,0.0
6.860163999999999,0.0738520630606859,0.0
6.86256,0.06289642661298672,0.0
6.864948,0.047936588672453845,0.0
6.867327999999999,0.0371207218516149,0.0
6.869724,0.027096250963694047,0.0
6.872112,0.022146916755245438,0.0
6.874492,0.0162664169870185,0.0
6.876887999999999,0.01532128427140359,0.0
6.879275999999999,0.01532128427140359,0.0
6.881672,0.01251382043623204,0.0
6.884076,0.009846126227920698,0.0
6.886464,0.007318201646469566,0.0
6.888843999999999,0.004790277065018434,0.0
6.89124,0.002262352483567302,0.0
6.893628,0.0006655934618944906,0.0
6.896008,0.0,0.0
6.898412,0.0,0.0
6.900796,0.0,0.0
6.903176,0.0,0.0
6.905571999999999,0.0,0.0
6.907959999999999,0.0,0.0
6.91034,0.0,0.0
6.912744,0.0,0.0
6.915132,0.0,0.0
6.917512,0.0,0.0
6.919915999999999,0.0,0.0
6.922303999999999,0.0,0.0
6.92468,0.0,0.0
6.92708,0.0,0.0
6.929463999999999,0.0,0.0
6.9318480000000005,0.0033646464847441244,0.0
6.934239999999999,0.005518588155989507,0.0
6.936627999999999,0.009814400200511953,0.0
6.939007999999999,0.014249981871894607,0.0
6.941404,0.01961672910305558,0.0
6.943792,0.027357664132970885,0.0
6.946171999999999,0.04026628364097549,0.0
6.948568,0.05531677352225714,0.0
6.950956,0.06743399709734363,0.0
6.953351999999999,0.07983075992615055,0.0
6.955748,0.08626844234395004,0.0
6.958136,0.09163518957511102,0.0
6.960516,0.10072659904538528,0.0
6.96292,0.10516218071676793,0.0
6.965304,0.111320323880847,0.0
6.967684,0.11882894148528506,0.0
6.970079999999999,0.12563871095542203,0.0
6.972464,0.13468289859745314,0.0
6.974843999999999,0.14530987810532048,0.0
6.977248,0.15700779279982632,0.0
6.979635999999999,0.1609175506361737,0.0
6.982011999999999,0.16841220108477417,0.0
6.984408,0.178281039332129,0.0
6.986796,0.1878703383257634,0.0
6.989191999999999,0.1993219684389544,0.0
6.991584,0.20667684926069466,0.0
6.993971999999999,0.20462752668603468,0.0
6.996352,0.20001702485751696,0.0
6.998747999999999,0.20099351638766919,0.0
7.001132,0.20262163422387933,0.0
7.003527999999999,0.2115593069114558,0.0
7.005924,0.22021744034531188,0.0
7.008312,0.22338112821911507,0.0
7.010691999999999,0.2367876372504798,0.0
7.013088,0.2492629807220662,0.0
7.015471999999999,0.26169110236540943,0.0
7.017856,0.2746783025161935,0.0
7.02026,0.2824052703902713,0.0
7.022644,0.2826829137861225,0.0
7.025024,0.2833326442343112,0.0
7.027427999999999,0.2934810217353864,0.0
7.029816,0.29981218919873126,0.0
7.032192,0.2974833273703509,0.0
7.034592,0.2984598189005031,0.0
7.03698,0.30008793673671325,0.0
7.03936,0.3053009471851764,0.0
7.041756,0.3111183621114544,0.0
7.044139999999999,0.3198690433439275,0.0
7.046519999999999,0.3250348319641475,0.0
7.048919999999999,0.33178341245020376,0.0
7.051307999999999,0.3384847711080169,0.0
7.053704,0.3489580138331865,0.0
7.056108,0.35989778726717975,0.0
7.058496,0.36282915771550567,0.0
7.060876,0.3694851904029449,0.0
7.063279999999999,0.37218424342579354,0.0
7.065667999999999,0.3762337708890012,0.0
7.068047999999999,0.38647469618869346,0.0
7.070444,0.40788960820572556,0.0
7.072832,0.42879266354356,0.0
7.075211999999999,0.44219917257492475,0.0
7.077608,0.45742079089760296,0.0
7.079996,0.47878848108639194,0.0
7.082376,0.4955475653045325,0.0
7.084771999999999,0.5090012961641404,0.0
7.087159999999999,0.519521760717553,0.0
7.08954,0.5408913467642111,0.0
7.091944,0.5558825435192815,0.0
7.094332,0.5724565321401879,0.0
7.096712,0.5883788944550363,0.0
7.099116,0.6020668385979907,0.0
7.101504,0.6107721938600899,0.0
7.103883999999999,0.6242259247196977,0.0
7.10628,0.6390301300196646,0.0
7.108668,0.6442431404681278,0.0
7.111048,0.6547636050215405,0.0
7.113451999999999,0.6650045303212329,0.0
7.11584,0.6702175407696961,0.0
7.118219999999999,0.6684005356205133,0.0
7.120616,0.6656523649115522,0.0
7.123004,0.6673277045760054,0.0
7.125384,0.6689104964418418,0.0
7.127792,0.6702137490539575,0.0
7.130179999999999,0.6725407150244688,0.0
7.13256,0.6693732354349271,0.0
7.134955999999999,0.6662057558453854,0.0
7.137343999999999,0.6566126651360127,0.0
7.139723999999999,0.6516754022255313,0.0
7.142123999999999,0.6470176785687705,0.0
7.144511999999999,0.6380762141654556,0.0
7.146891999999999,0.6317884768146151,0.0
7.149288,0.6292726235311314,0.0
7.151676,0.6261051439415897,0.0
7.154055999999999,0.627081635471742,0.0
7.156452,0.6352751340546434,0.0
7.15884,0.6396042007715715,0.0
7.161223999999999,0.6453762897274755,0.0
7.16362,0.6559439761091314,0.006469967121283308
7.166008,0.6688858502895416,0.012972950952766371
7.168388,0.6801977107758723,0.01988035291094712
7.170779999999999,0.6884365353291477,0.01988035291094712
7.173168,0.6970474469347608,0.026981556897434148
7.175547999999999,0.7025853226073183,0.026981556897434148
7.177944,0.7113360038397913,0.034067468041114726
7.180332,0.7254413610054572,0.0411533791847953
7.182727999999999,0.7454132507835134,0.04772442429665172
7.185131999999999,0.7624518742553743,0.054581801569993496
7.187515999999999,0.778559332167457,0.06149798892277748
7.189895999999999,0.795737725266178,0.06817999103077362
7.1923,0.8184105639249522,0.07451986628757959
7.194687999999999,0.8442962081436417,0.08043450629375909
7.197068,0.8696227738548903,0.08638121419232651
7.199463999999999,0.8901537421403872,0.09249730361963479
7.201851999999999,0.9094740056123857,0.09848946835387012
7.204231999999999,0.9271642553903044,0.10455775032656729
7.206628,0.9502091811014161,0.11027346519484602
7.209016,0.9710196886406333,0.11594784846918886
7.211395999999999,0.9887571602467953,0.11519359621618427
7.213796,1.0107783725995116,0.1140937715230426
7.21618,1.0347091379000275,0.11251457556739539
7.21856,1.0637150398800155,0.1176159594841661
7.220964,1.0940714163003626,0.11551222199053754
7.223352,1.125126640855011,0.12047601876308826
7.225728,1.1521776639168253,0.11845684059844842
7.228128,1.1821619532848349,0.11630210196588817
7.230511999999999,1.2052087748538156,0.11479682627126442
7.232892,1.2302576971692132,0.11303947869519168
7.235296,1.2563775546712495,0.11118811853653182
7.237684,1.2810071681060664,0.10963716176247781
7.240064,1.2993509400479124,0.10864517074836048
7.242467999999999,1.3066132730710354,0.10849846217678198
7.244856,1.3152260805345173,0.10818366327424708
7.247235999999999,1.3257012191175561,0.10773818624379695
7.249639999999999,1.3321721562077615,0.10759462893779334
7.252027999999999,1.3382710062456291,0.10733452616661418
7.254408,1.339015180350304,0.10756108265439716
7.256803999999999,1.3396195848281185,0.107828970736116
7.259188,1.339292823746155,0.10815252345020801
7.261571999999999,1.333099530051801,0.10884583526098666
7.263968,1.3295599634099218,0.1094068465896197
7.266356,1.3189431593421534,0.11044523983133302
7.268735999999999,1.30539308896819,0.1116474144902119
7.271139999999999,1.2960795375125378,0.1126957671443064
7.273524,1.2889078564301621,0.11358752507817929
7.275903999999999,1.2835985064673439,0.11433166381239153
7.278307999999999,1.280431026877802,0.11494120564049144
7.280695999999999,1.2786140217286193,0.1153992707120677
7.283075999999999,1.2761453902733786,0.11582049655698816
7.285472,1.2734444413926607,0.11610404387379829
7.287856,1.2771691036317743,0.11595248803619712
7.290236,1.291044039229832,0.11518098090891361
7.292639999999999,1.3027771044546126,0.11457701863508783
7.295028,1.3146499393062538,0.11393435296043646
7.297407999999999,1.3285248749043115,0.11314533027830534
7.299804,1.3430514368084272,0.11239592493340317
7.302192,1.3595800994589595,0.11151163304085268
7.304572,1.3750378269228534,0.11069110179892679
7.306967999999999,1.3912869503196654,0.10983700104444155
7.309355999999999,1.4083274696493957,0.1089575845324335
7.311752,1.4224347226729306,0.10828542163837895
7.314147999999999,1.4405461771892991,0.10732871621815865
7.316531999999999,1.4583780924519476,0.10641025642991575
7.318911999999999,1.4715541799157041,0.10574774307010115
7.321315999999999,1.4859409721929597,0.10500388041322481
7.323703999999999,1.492598900738268,0.10468214199595272
7.326084,1.5003277644702149,0.10429117283453891
7.328488,1.5054954489483043,0.10415315311328462
7.330876,1.510104054918953,0.10415418242226754
7.333255999999999,1.5121514816357442,0.1044114422361879
7.335652,1.5129882035390358,0.10476971433649966
7.338039999999999,1.5099604935763544,0.10529406723434305
7.34042,1.5081434884271718,0.10571461575911364
7.342815999999999,1.5093995192110443,0.1059617223252177
7.345203999999999,1.510795319621777,0.10617719086742791
7.347583999999999,1.5136813640997289,0.1062345681066468
7.349988,1.5156362430179025,0.10632312902713612
7.352371999999999,1.5226662586155486,0.10616773733741512
7.354751999999999,1.532257453467052,0.1058095530419915
7.357147999999999,1.5429195835051943,0.10539347666421753
7.359536,1.5554440446628932,0.10492702676600886
7.361915999999999,1.565966405074175,0.10454655343795137
7.364312,1.5797015710453726,0.10399157363760617
7.3667,1.594647441830069,0.10334178688051442
7.369095999999999,1.6083826078012664,0.10280341292861221
7.371487999999999,1.6229091697053821,0.1022271950504408
7.373875999999999,1.6352938612362207,0.10177261165322375
7.376256,1.6471666960878617,0.10123509871397678
7.37866,1.6602502357530013,0.10060389319185753
7.381048,1.6785486817244735,0.09968467673270118
7.383424,1.6939138613897504,0.09890743117719103
7.385828,1.7110016025477235,0.09811507936939468
7.388216,1.7278098044519765,0.09739719482287357
7.390596,1.7403342656096752,0.09692943028543469
7.392992,1.7548608275137911,0.09638713546235796
7.395379999999999,1.7688283109104657,0.09598267220369718
7.397763999999999,1.7852172039341383,0.09542914153998137
7.400167999999999,1.7935976939721427,0.09519555158080063
7.402555999999999,1.800767479196649,0.09505257709885793
7.404935999999999,1.807937264421155,0.09491299717026247
7.407335999999999,1.8103114522199095,0.09491898581405682
7.40972,1.8166898415114974,0.09477778553459312
7.412103999999999,1.8239993963628638,0.09462353979278464
7.4145,1.8321003471471482,0.0944749924631471
7.416888,1.8411324634912112,0.09430988786984552
7.419267999999999,1.8555192557684668,0.09391834235410915
7.421671999999999,1.874189788792276,0.09335662958509572
7.424056,1.8976559192418374,0.09267318500100535
7.426439999999999,1.9211220496913988,0.09200120176823452
7.428835999999999,1.9417946834616253,0.09141166643850732
7.431224,1.9631189435379097,0.09083905082896992
7.433603999999999,1.98043900212136,0.09038912691179826
7.436,1.9949655640254755,0.08999188029621091
7.438388,2.012704931489507,0.08946309302553189
7.440768,2.029093824513179,0.08903521001164796
7.443168,2.04082688973796,0.08870071988734592
7.445556,2.0501385453357432,0.0885069118363989
7.447936,2.0653167335459166,0.08813862919539436
7.450331999999999,2.079004677688871,0.0878841678698272
7.452719999999999,2.0917614562720472,0.08765231646403665
7.455104,2.1094536019078354,0.0872691548837142
7.4575,2.125003877170346,0.08698556932709021
7.459887999999999,2.1356187853802457,0.08684721027884176
7.462268,2.1466530024707255,0.08664806417033205
7.464663999999999,2.1528916221354533,0.08656235072376853
7.467051999999999,2.1567088321731838,0.08660608801456782
7.469436,2.1581046325839166,0.08677163886997186
7.471831999999999,2.159500432994649,0.08693366981351774
7.474219999999999,2.159965067845604,0.08711092468817988
7.476611999999999,2.1612210986294764,0.08729258656334066
7.479011999999999,2.1618255031072913,0.08744899569078857
7.481399999999999,2.165642713145021,0.08749452237898836
7.483779999999999,2.1717415631828887,0.08744387298171823
7.486176,2.17583831247434,0.08744808618912404
7.488564,2.179423205086593,0.08740534593996631
7.490943999999999,2.1888746303112363,0.08722499218931988
7.49334,2.1995367603493783,0.08698844356292942
7.495723999999999,2.2094074944546023,0.08675305475809768
7.498104,2.2207684726270456,0.08641963694835066
7.500511999999999,2.2302671196799326,0.08611338735372258
7.502896,2.2397657667328197,0.08581681798020996
7.505276,2.2495439530394257,0.08548371165112062
7.507679999999999,2.259322139346033,0.08514028465137607
7.510068,2.2684014775183385,0.08490356997623526
7.512447999999999,2.2793431468102012,0.08462674906004668
7.514844,2.2896331897960063,0.08432628935449252
7.517232,2.2980609016622537,0.08405534562434738
7.519612,2.300482311289251,0.08394097801399271
7.522008,2.3049058216626657,0.08377667350841864
7.524395999999999,2.310540036849579,0.08356099797686657
7.526792,2.320178453529326,0.08325071486207897
7.529187999999999,2.332750136515268,0.08289140038259703
7.531571999999999,2.347044380993906,0.08253237253093271
7.533956,2.3574741936065706,0.08223820725091502
7.53636,2.3677642365923757,0.08196462145630364
7.538743999999999,2.375121013271985,0.08175632690165917
7.541124,2.379544523645399,0.08160679547859122
7.543528,2.3842475732725337,0.08142263386351921
7.545916,2.3910924932729465,0.08118269502365652
7.548295999999999,2.40273301069911,0.0808662209084875
7.550699999999999,2.412371427378857,0.0805961816947798
7.553087999999999,2.423080779245242,0.0803037199698243
7.555463999999999,2.4368631670446823,0.07993917345151931
7.557867999999999,2.451064863724704,0.07952316515034959
7.560255999999999,2.4706212363379176,0.07897332762716314
7.562635999999999,2.4881755082047152,0.07845961376961362
7.565032,2.509873751191206,0.0778555300815718
7.56742,2.5369266701108897,0.07710465267043777
7.569799999999999,2.563188193097655,0.07636537878210635
7.572196,2.5833036442183097,0.07575453091869915
7.574584,2.599554663472991,0.07521342681604912
7.576964,2.609799380488422,0.07479021570215262
7.579367999999999,2.620183867130713,0.07436019661999951
7.581756,2.6395079223184497,0.07378282004846312
7.584135999999999,2.6580405815732684,0.07319663046392323
7.586532,2.677504406387865,0.07260384909341157
7.588915999999999,2.6969682312024617,0.07199976676389212
7.5913,2.718946013442673,0.07142251914769583
7.593696,2.732635853443497,0.07101363834494068
7.596083999999999,2.744603131951624,0.07061585462014558
7.598464,2.7557790145268335,0.07020913670830385
7.600868,2.763090465236069,0.0698546860763642
7.603251999999999,2.7724040166917217,0.06947592010568779
7.605635999999999,2.7797154674009574,0.06912967164071807
7.608032,2.781672242177,0.06890621058716645
7.610419999999999,2.784420412885961,0.06868863131345222
7.6128,2.7819536772885898,0.06857387714281422
7.615195999999999,2.779207402437498,0.06849166526240531
7.617583999999999,2.775250422772908,0.0684477867544132
7.619963999999999,2.775437414228011,0.06832734148655666
7.622359999999999,2.7764158016160327,0.06821537412432882
7.624748,2.7815381601237483,0.06802705597962588
7.627143999999999,2.782237008258049,0.06794707979174652
7.629539999999999,2.7787918852726565,0.06794275954706949
7.631924,2.7812132948996537,0.06786876872884366
7.634307999999999,2.7819121430339546,0.06779219780313754
7.636711999999999,2.7863356534073684,0.0676904781523977
7.639096,2.7858237967281707,0.06765116936908351
7.64148,2.7925289471017223,0.06749044022838142
7.643875999999999,2.7958815222884983,0.06740976994283694
7.646264,2.8008168893411103,0.06734710503018115
7.648643999999999,2.8073350482595587,0.06730185545803681
7.65104,2.8098490056851735,0.0673137543007511
7.653428,2.815156459790123,0.06730698218893083
7.655808,2.8215348490817105,0.0672780777360786
7.658204,2.834059310239409,0.0671537404371392
7.660591999999999,2.8510072817705225,0.06693000695327674
7.662975999999999,2.866092922182079,0.06672223560526
7.665372,2.8793162314740792,0.06652445593088449
7.667755999999999,2.894401871885636,0.06631844672318755
7.67014,2.908556346737414,0.06611731127564355
7.672535999999999,2.919498016029276,0.06598003873685865
7.674923999999999,2.934863195694553,0.06574402218778226
7.67732,2.9483660442402733,0.06551962732790695
7.679715999999999,2.954931424986965,0.06538345971188807
7.6821,2.9613570361067953,0.06526142715968442
7.684479999999999,2.9691331216669856,0.06509411960749892
7.68688,2.9770489768540362,0.06491032975742468
7.689264,2.98282296166781,0.06476832878028078
7.691647999999999,2.995022557601414,0.06451142601162656
7.694044,3.0056393616691826,0.06423568948623289
7.696432,3.016535704990671,0.06393105593128583
7.698812,3.0343695161111888,0.06355784900531201
7.701215999999999,3.0475474994328144,0.0632073651142868
7.7036,3.0607254827544406,0.06285688122326162
7.70598,3.0677573942099556,0.06259644419248328
7.708375999999999,3.071576500105555,0.0623930500065753
7.710763999999999,3.075116066747434,0.06221747516913299
7.71316,3.08023842525515,0.062059297952785863
7.715555999999999,3.085500553389725,0.061890398376495036
7.717943999999999,3.094766883017135,0.061679289137011845
7.720324,3.10738578783132,0.06140314052193676
7.722719999999999,3.1180025918990886,0.06115225190071105
7.725107999999999,3.1318322015267723,0.06085227359915608
7.727487999999999,3.1476639119008727,0.060529812630139505
7.729884,3.1634956222749735,0.06020505324386893
7.732267999999999,3.174112426342742,0.059955831700555615
7.734663999999999,3.1867313311569267,0.05968635275121804
7.73706,3.2004211711577497,0.05940138718163141
7.739447999999999,3.2098272704120197,0.05918953453062479
7.741828,3.221235470412706,0.058959482830381604
7.74422,3.231572735226754,0.05874566739597478
7.746608,3.234181136308855,0.058586307825539946
7.748987999999999,3.241864674070428,0.058373696343217596
7.751384,3.2507589166455,0.05813381671993449
7.753772,3.2622143384744295,0.057825162142397885
7.756155999999999,3.2756718610497764,0.0574988522945925
7.758552,3.2935528939985366,0.0571046584880783
