Time,Force,Position
9.301227999999998,0.02508511224202542,0.0
9.303616,0.01773998630838761,0.0
9.305996,0.011326025934528118,0.0
9.308392,0.00519160481438905,0.0
9.31078,0.0019904500004451547,0.0
9.31316,0.0,0.0
9.315556,0.0,0.0
9.317948,0.0,0.0
9.320328,0.0,0.0
9.322724,0.0,0.0
9.325112,0.0,0.0
9.327496,0.0,0.0
9.329892,0.0,0.0
9.33228,0.0,0.0
9.334663999999998,0.0,0.0
9.337064,0.0,0.0
9.339452,0.0,0.0
9.341831999999998,0.0,0.0
9.344232,0.0,0.0
9.34662,0.0,0.0
9.348999999999998,0.0,0.0
9.3514,0.0,0.0
9.353788,0.0,0.0
9.356172,0.0,0.0
9.358568,0.0,0.0
9.360956,0.0,0.0
9.363336,0.0,0.0
9.365735999999998,0.0,0.0
9.368124,0.0,0.0
9.370504,0.0,0.0
9.372903999999998,0.0,0.0
9.375292,0.0,0.0
9.377676,0.0,0.0
9.380071999999998,0.0,0.0
9.38246,0.0,0.0
9.384844,0.0,0.0
9.387244,0.0,0.0
9.389627999999998,0.0,0.0
9.392012,0.0,0.0
9.394412,0.0,0.0
9.3968,0.0,0.0
9.399184,0.0,0.0
9.401576,0.0,0.0
9.40396,0.0,0.0
9.406339999999998,0.0,0.0
9.408736,0.0,0.0
9.411124,0.0,0.0
9.413504,0.0,0.0
9.4159,0.0,0.0
9.418284,0.0,0.0
9.420668,0.0,0.0
9.423072,0.0,0.0
9.425464,0.0,0.0
9.427844,0.0,0.0
9.43026,0.0,0.0
9.432648,0.0,0.0
9.435028,0.0,0.0
9.437444,0.0,0.0
9.439828,0.0,0.0
9.442208,0.0,0.0
9.444608,0.0,0.0
9.446992,0.0,0.0
9.449376,0.0,0.0
9.451771999999998,0.0,0.0
9.454156,0.0,0.0
9.45654,0.0,0.0
9.458952,0.0,0.0
9.46134,0.0,0.0
9.46372,0.0,0.0
9.466124,0.0,0.0
9.468512,0.0,0.0
9.470892,0.0,0.0
9.473287999999998,0.0,0.0
9.475676,0.00045298410498284303,0.0
9.478056,0.0011855074636861077,0.0
9.480455999999998,0.0029889660090279017,0.0
9.48284,0.004140798248311794,0.0
9.485236,0.008365666420651069,0.0
9.487632,0.012730304219850556,0.0
9.49002,0.01616377645927172,0.0
9.4924,0.021599349445109734,0.0
9.494796,0.02582421761744901,0.0
9.497184,0.032003964707961984,0.0
9.499568,0.04214069146306551,0.0
9.501964,0.05227741821816904,0.0
9.504347999999998,0.06534741127946773,0.0
9.506732,0.08023440948994916,0.0
9.509128,0.09060534952839919,0.0
9.511516,0.10376978624618419,0.0
9.513908,0.11199885591135716,0.0
9.516304,0.1267460844949784,0.0
9.518692,0.13949121233218276,0.0
9.521076,0.15195680091566668,0.0
9.523472,0.15861472946097518,0.0
9.52586,0.16643614099153922,0.0
9.528244,0.17197591252196595,0.0
9.530648,0.17825985815706769,0.0
9.533036,0.18184285491145155,0.0
9.535416,0.1860774779718933,0.0
9.53782,0.19031210103233503,0.0
9.540208,0.19519835039883465,0.0
9.542588,0.20301786607152947,0.0
9.544988,0.20827809834823582,0.0
9.547372,0.20548460166890087,0.0
9.549756,0.20040946498942863,0.0
9.552148,0.19491501942937575,0.0
9.55454,0.18769611651875723,0.0
9.55692,0.18392233659353155,0.0
9.55932,0.17958947816086504,0.0
9.561708,0.18671014569925878,0.0
9.564088,0.1854503231996476,0.0
9.566484,0.1888463284989281,0.0
9.568872,0.19624653529104225,0.0
9.571252,0.21193468432254425,0.0
9.573652,0.2243174799955136,0.0
9.576035999999998,0.23991308122839852,0.0
9.57842,0.25741823540908326,0.0
9.580816,0.2738996762313726,0.0
9.583204,0.2883790163072451,0.0
9.585584,0.3070948753014286,0.0
9.58798,0.3219463024296386,0.0
9.590368,0.3380084343713473,0.0
9.592752,0.3561179930298468,0.0
9.595152,0.3796275535919128,0.0
9.597536,0.4085843378857885,0.0
9.59992,0.43423576882113163,0.0
9.602315999999998,0.4630074575177733,0.0
9.604704,0.4933619380802511,0.0
9.607088,0.5217615397245553,0.0
9.60948,0.5391269242783798,0.0
9.611868,0.5599374318175971,0.0
9.614252,0.5822381834240337,0.0
9.616648,0.5997433376047184,0.0
9.619036,0.6152463910389863,0.0
9.621432,0.6349859633915651,0.0
9.623828,0.6535148309306453,0.004714555571408534
9.626216,0.6697620584695881,0.009544078985341358
9.628596,0.6873125386206469,0.014433434148279287
9.630992,0.7105897817572356,0.01912417359359401
9.63338,0.7319121459756507,0.023621482520805204
9.63576,0.7543054453807042,0.02816792876185138
9.63816,0.7714838384794254,0.0329580214290993
9.640543999999998,0.788290144525809,0.03764876087441402
9.642928,0.8004878446015442,0.04237310061842611
9.645324,0.8108704353859658,0.046888588275121906
9.647712,0.8237669835960021,0.05136930979653938
9.650092,0.8280960503129302,0.05136930979653938
9.652488,0.8349862962837158,0.05609827670368282
9.654876,0.8410379244933402,0.061046237829726346
9.657272,0.8531884027408324,0.06599535309209005
9.659676,0.8616142187492112,0.07116803991048397
9.662064,0.8624037188242598,0.07116803991048397
9.664444,0.8661264852055042,0.07669947002313214
9.66684,0.8691976252806904,0.08211092740647084
9.669228,0.8678924768107054,0.08211092740647084
9.671608,0.8667270979675805,0.07739637183506232
9.674003999999998,0.8661207976318964,0.07256684842112948
9.676392,0.8630005398705979,0.06767749325819157
9.678772,0.8502890872577957,0.06298675381287684
9.681168,0.8319434194580807,0.05848944488566565
9.683556,0.812666586098587,0.05394299864461947
9.685936,0.7933897527390935,0.04915290597737155
9.688332,0.7754161719917158,0.044462166532056834
9.69072,0.7629823627747647,0.03973782678804474
9.6931,0.747987374303956,0.03522233913134895
9.695504,0.7328526162062873,0.030741617609931483
9.697892,0.7281476707212833,0.030741617609931483
9.700276,0.7185073581836673,0.026012650702788038
9.702672,0.711567994526769,0.02106468957674451
9.70506,0.7039770045638131,0.016115574314380807
9.707444,0.6986676546009942,0.010942887495986884
9.70984,0.69792158463845,0.010942887495986884
9.712228,0.6922401476232939,0.005411457383338704
9.714612,0.6887931287800317,0.0
9.717008,0.6864170451234081,0.0
9.719396,0.6837614222130641,0.0
9.72178,0.6804069511684191,0.0
9.724176,0.6806373727360272,0.0
9.72656,0.6848719957964688,0.0
9.728943999999998,0.6991171225889948,0.006382099772621244
9.731348,0.7153643501279376,0.012680902181719154
9.733732,0.7363146272940152,0.018604460621628474
9.736116,0.7500951192355867,0.02497748681768664
9.738511999999998,0.7639228330054013,0.031008487793050682
9.7409,0.7809633523351316,0.03683888345987661
9.743284,0.7967006190527459,0.04256126151029619
9.745679999999998,0.8060122746505292,0.048517709603733805
9.748068,0.8209109236069823,0.054204223465045304
9.750452,0.8356698029365752,0.05972190516547932
9.752847999999998,0.8493577470795295,0.06528824827235336
9.755236,0.8616952167821249,0.07101385434980198
9.75762,0.8728219816712218,0.07679003220509022
9.760015999999998,0.8919571495459858,0.08218562285157457
9.762403999999998,0.9056450936889403,0.08779116480757132
9.764784,0.9222663041380897,0.09323881439118496
9.76718,0.9383756579080417,0.09864051340440025
9.769568,0.9570461909318513,0.10385399099170906
9.771952,0.9741339320898246,0.10902397301327571
9.774348,0.9981591410468267,0.11386523127306392
9.776736,1.0175285222049373,0.1122503860165912
9.779115999999998,1.0358269681764094,0.1107566356557538
9.781512,1.05328679638672,0.10964244444873869
9.7839,1.077125013888619,0.10808289370237599
9.786295999999998,1.096260181763383,0.1070859461888721
9.788692,1.1140448751977885,0.10632650304227947
9.791076,1.1304790941918346,0.10575275904172778
9.79346,1.1494744924397384,0.10482970817299335
9.795856,1.1615324228886137,0.10441529229479729
9.79824,1.170377547777573,0.10429594219540239
9.800624,1.177500111173836,0.10422412603229435
9.803028,1.1866247753165158,0.103986139909191
9.805416,1.1977515402056125,0.10360285181858553
9.807796,1.2047343339750152,0.10359484908516091
9.810192,1.2174438907299479,0.10324706327885859
9.81258,1.2288029730445218,0.10309140281773198
9.81496,1.2378804153589587,0.10314539864437766
9.817364,1.2456073832330363,0.10338170739332182
9.819752,1.2538462077863117,0.10369417010459213
9.822132,1.2582206004736136,0.10421134751896928
9.824528,1.2604531227876385,0.10488249258476551
9.826916,1.2629651843553837,0.10547806009325422
9.829296,1.2649653892439316,0.10599012595195018
9.831692,1.2665935070801417,0.10638530500226653
9.834079999999998,1.2707828041702096,0.1065239497481388
9.83646,1.275391410140858,0.10655284007385978
9.838864,1.2810709512981453,0.1065040488699462
9.841252,1.2872623491346298,0.10653350416621016
9.843632,1.2988084229043073,0.10618952897040486
9.846028,1.3104942663008443,0.10578567790231647
9.848416,1.326975707123134,0.10515608411518118
9.8508,1.3455990183187005,0.10441365633633362
9.853196,1.361568602461792,0.10376352927446872
9.855584,1.3748844595524088,0.10317704553518604
9.857964,1.3864777551503291,0.10265957196362893
9.86036,1.3984903596288305,0.10204873593186217
9.862748,1.4158576400405243,0.10110628051914995
9.865144,1.4322937548924397,0.10019895531505627
9.86754,1.448078243438297,0.09925897171437865
9.869924,1.4629315664243765,0.09838949906564404
9.872308,1.4796472205300122,0.09744481255670678
9.8747,1.4979456665014843,0.09651918395064178
9.877088,1.513962472472819,0.09575283287124253
9.879472,1.5275578688171563,0.09518173906564041
9.881868,1.5470197977738838,0.09442210722305565
9.884256,1.5634086907975566,0.09380664646566966
9.88664,1.5805889797541468,0.0931957516776959
9.889036,1.5943241457253448,0.0926403272438119
9.891424,1.6047067365097663,0.09229956813343329
9.893804,1.615229096921048,0.0919172653155632
9.8962,1.6198849247199396,0.0917722888293977
9.898587999999998,1.6205365510259977,0.09180502398643622
9.900972,1.6218398036381134,0.09187065218684215
9.903368,1.6247258481160654,0.09193919471567776
9.905755999999998,1.6242593174072417,0.09222456752106198
9.90814,1.6236530170715575,0.09253703679191352
9.910536,1.6196941415490977,0.09304898586051154
9.912924,1.6178771363999152,0.09343836835602407
9.915304,1.6161999008775927,0.09379715743607228
9.917704,1.612380794981993,0.09427055536981391
9.920088,1.606839127593697,0.09477046465837821
9.922488,1.5995748987127045,0.09528909606926575
9.924884,1.5936611442720712,0.09569618559821769
9.927268,1.59296229613777,0.09584253000557086
9.929652,1.585977606510498,0.09627262021718684
9.932048,1.581926183189421,0.09660334745556548
9.934436,1.5781542991220645,0.09687318659629299
9.936816,1.577827538040101,0.09710045833338635
9.93922,1.5796426473314145,0.09722216717263957
9.941608,1.5854619581155616,0.09719187107279942
9.943988,1.5979391974450172,0.09696509298191126
9.946392,1.6114873719611114,0.0966803442289521
9.94878,1.6241043809174271,0.09641244172191832
9.951164,1.6362095331945454,0.09607940570777185
9.95356,1.6498049295388826,0.0955864143786935
9.955948,1.6604670595770248,0.09519803553569627
9.958328,1.6712689592420276,0.09477809055852404
9.960728,1.6768559526006976,0.09460922355834786
9.963116,1.6832343418922855,0.0944449697687211
9.965496,1.689892270437594,0.0942173086337252
9.967892,1.693616932676707,0.0940966236594914
9.97028,1.6974813645426807,0.09394615787468324
9.972664,1.701066257154934,0.09385692372087837
9.97506,1.7006469482743531,0.0939459560064535
9.977443999999998,1.6987846171547965,0.09400404964189739
9.979828,1.6989243867816566,0.09397476043710377
9.982224,1.6989243867816566,0.09397476043710377
9.984611999999998,1.6970620556620999,0.0940277588399111
9.986992,1.6951997245425434,0.09407958820017731
9.989392,1.6879827174897941,0.09440129182415861
9.99178,1.67797221375771,0.09478313815566938
9.99416,1.667961710025626,0.09516498448718015
9.996556,1.6599533070399586,0.0954716044478834
9.998944,1.6536674655469876,0.09575480781182925
10.001328,1.6500353511064914,0.09598915454613541
10.003723999999998,1.651338603718607,0.09604913378115887
10.006112,1.653573021890501,0.09608546656262336
10.008496,1.6603707200626694,0.0958629783313177
10.010891999999998,1.6680995837946164,0.09562333174256951
10.01328,1.6772714697655393,0.09541518213117622
10.015664,1.6951033850281878,0.0949437027628594
10.018068,1.7158685665970315,0.09440058677605491
10.020456,1.735842352232957,0.09384538648234524
10.022836,1.7568870730555208,0.09324965531694472
10.025232,1.779654355370781,0.09262561132667467
10.02762,1.7984174361932077,0.09215752829814966
10.03,1.8162493514558558,0.09171647819306998
10.0324,1.8343608059722245,0.0912234458523595
10.034788,1.8507496989958967,0.09075174959914241
10.037168,1.8767770086993159,0.08989224170466516
10.039567999999996,1.9032236272833152,0.08898403423111022
10.041952,1.9328830514272306,0.08797549510021802
10.044332,1.9637531803846446,0.08693114063377325
10.046724,1.9946233093420584,0.08590264895807757
10.049112,2.025772977553193,0.08486628999883201
10.051488,2.0570624153911874,0.08386332110486926
10.053888,2.0875604572962643,0.08286545928824816
10.056271999999998,2.1177789599476204,0.08194073349967347
10.058652,2.145483505173362,0.08103173872316324
10.061051999999998,2.1717450281601276,0.08008431543760099
10.063435999999998,2.1933507233480016,0.07924350613203257
10.065816,2.2138854833492374,0.07846814829962162
10.068232,2.2385642144701667,0.07759693284184802
10.070616,2.2638945718971546,0.07676812855533659
10.073012,2.2912270300705586,0.0759070493859849
10.075407999999998,2.321632524177018,0.07497415487885664
10.077795999999998,2.351246622350559,0.07403152257288867
10.080176,2.379650015710602,0.07313598700207866
10.082579999999998,2.4108469057499797,0.07221492121242697
10.084967999999998,2.430543047990054,0.07161924580310848
10.087348,2.448888715789769,0.07110083030100166
10.08974,2.4640215780295684,0.07068274645623211
10.092128,2.4760814043363126,0.07033618462194123
10.094512,2.487349834710139,0.06998361635317311
10.096908,2.4963366250838277,0.06970915657982692
10.099292,2.501319213964683,0.06951100131412233
10.101672,2.505091098032039,0.06935716929078795
10.104075999999996,2.5096543780323137,0.06921507555663012
10.106464,2.516871385085063,0.06906744617862204
10.108844,2.5258109536305087,0.06892148006087545
10.11124,2.5347505221759548,0.06877695840000848
10.113628,2.5396858892285668,0.06870067757788634
10.116023999999998,2.5435503210945405,0.06865328625749499
10.118428,2.545831961094678,0.06858705479962339
10.120812,2.543969629975121,0.06860202857107241
10.123191999999998,2.5382428669895907,0.06866370762042703
10.125588,2.536240766243174,0.06869503329771035
10.127976,2.538382636616452,0.06864737576871768
10.130352,2.5383826366164506,0.06864737576871768
10.13276,2.542386838109285,0.06858381641979168
10.135144,2.5471824355350363,0.0685298774621768
10.137524,2.5510468674010096,0.06848305668683687
10.139928,2.557844565573178,0.06839782158713975
10.142316,2.563431558931848,0.06835353045700263
10.144695999999998,2.5692980915442383,0.06827518897837558
10.1471,2.5740936889699904,0.06821989216041655
10.149488,2.581031156769019,0.068114852286833
10.151868,2.585175127888713,0.06803311851821767
10.154264,2.585966523821631,0.06804262454611068
10.156648,2.588760020500966,0.0680205745266227
10.159031999999998,2.594347013859636,0.06797814916359116
10.161436,2.602867273524501,0.0678967194212166
10.163824,2.6060328572561735,0.06793470833444595
10.166204,2.60733610986829,0.06798770408807024
10.1686,2.611852168040321,0.06796771405402179
10.170988,2.6222347588247423,0.06787203850113867
10.173367999999998,2.627821752183413,0.06782976769729923
10.175764,2.6296840833029695,0.06781637990673972
10.178147999999998,2.6338280544226635,0.06774105370213071
10.180531999999998,2.6385311040497976,0.06760089332751397
10.182936,2.6425825273708745,0.06743513503720981
10.18532,2.649846756251867,0.06720392784483085
10.187699999999998,2.6551088843864425,0.06700334485607749
10.190096,2.6634440484540733,0.0667535406794215
10.192484,2.6765748099474562,0.06646657733238033
10.194864,2.6946409384934515,0.06612102423446502
10.197259999999998,2.7114963622259474,0.0658139331045432
10.199647999999998,2.728351785958443,0.06550407235197339
10.202028,2.7488393241314357,0.06508418146601447
10.204423999999998,2.7637398689457577,0.06470090562143857
10.206811999999998,2.773565277080608,0.06439282089144317
10.209208,2.7836702244691787,0.0640577250450179
10.211604,2.7991298477909416,0.06361550158920573
10.213988,2.8201764644713743,0.0631464423966276
10.216371999999998,2.8392209804053907,0.06270496074525456
10.218768,2.854401064473434,0.062309615622942634
10.221151999999998,2.8714434796610337,0.0619009569224981
10.223532,2.891279391527968,0.06148373016260168
10.225927999999998,2.907111101902069,0.061118239810741506
10.228315999999998,2.925317000074924,0.06079124218235387
10.230712,2.943522898247779,0.06046643682930103
10.233104,2.9571655164203596,0.0602481319550532
10.235492,2.9698769690331615,0.060033258948005715
10.237871999999998,2.980586320899547,0.059844101107510206
10.240268,2.9855689097804023,0.05969799649330612
10.242655999999998,2.989760102728339,0.0595448583091949
10.245039999999998,2.996372705303274,0.05932980062223477
10.247436,3.005918574184404,0.05909134960649467
10.249819999999998,3.0121118678787577,0.058920909122122646
10.252204,3.02496309011842,0.058715608167886006
10.254599999999998,3.042377592358357,0.05841547141924226
10.256987999999998,3.0576502242250165,0.058151208591700414
10.259368,3.0738540216514543,0.05789196935642893
10.261772,3.0844708257192224,0.05765247703079089
10.26416,3.098160665720046,0.05738022323194712
10.266539999999996,3.1137128368404268,0.05710616284016338
10.268944,3.130335943147445,0.05681804166208361
10.271332,3.1466795102007437,0.056561591878328106
10.273716,3.1668875091200155,0.05628358911689731
10.276112,3.184441780986813,0.0560030635163146
10.2785,3.202927218413388,0.05572295289866921
10.280879999999998,3.2267673317731562,0.055367364358673295
10.283284,3.2547514162526188,0.054970380152427084
10.285672,3.2850171407322177,0.054537414630114724
10.288052,3.3132807644654,0.05411712336828702
10.290448,3.337540186705749,0.05373284268029148
10.292836,3.3593781993191003,0.053407707029975424
10.29522,3.380145276745813,0.053100906734161166
10.297624,3.4041251597324416,0.05275331373506545
10.300008,3.4230299060395977,0.052455271098349236
10.302388,3.437231602719619,0.05225086167271917
10.304792,3.4534354001460565,0.052031755646080924
10.30718,3.4665661616394394,0.051844606600917977
10.30956,3.481419484625518,0.05166649938040155
10.311956,3.4950621027980984,0.05151684229578212
10.314344,3.5049800587315656,0.05137295984620825
10.316724,3.5159689498516715,0.05121848533539304
10.319124,3.5229536394789434,0.05109163500243584
10.321508,3.5280759979866585,0.0509681442927032
10.323892,3.530125320561319,0.050870796143723564
10.326288,3.532174643135978,0.050774204324017816
10.328676,3.5340841960837786,0.050691233267468445
10.331055999999998,3.5326411738448025,0.050657873569845344
10.33346,3.5279853460459116,0.050661167937447585
10.335848,3.5249123101128563,0.05068678778723928
10.338228,3.5218392741798006,0.050712707453287424
10.340624,3.5201167126871047,0.05070234623108839
10.343016,3.515740424141933,0.050682151749496286
10.345396,3.5093620348503456,0.05067452736390614
10.347792,3.502983645558757,0.05066730871312689
10.35018,3.5013083058943044,0.05057482009134922
10.35256,3.4984222614163523,0.05050671844420842
10.35496,3.4936738858188434,0.05043950936347777
10.357348,3.4899964454079733,0.05035996387833789
10.359728,3.4824545731311294,0.05029445616042784
10.362124,3.476775031973842,0.05022702453025472
10.364512,3.46788268525664,0.050196793395175875
10.366891999999998,3.4603408129797963,0.050130159568670785
10.369296,3.451588235889454,0.05008794659144959
10.371684,3.446839860291945,0.05001906005031322
10.374064,3.44008938394802,0.04996319300777544
10.37646,3.424678878312369,0.04993625878898193
10.378848,3.4084769767438003,0.04989819008973526
10.381227999999998,3.3952083414814265,0.04984578759652652
10.383624,3.383150411032551,0.04976910370501804
10.386012,3.3729548117032326,0.049690781545761155
10.388395999999998,3.358755010881081,0.04963832907663562
10.390792,3.347488476365124,0.04957049129418589
10.39318,3.3331489059161115,0.04952846419249583
10.395576,3.3201598099074574,0.049447931058937064
10.397971999999998,3.3016762683387513,0.04944316646127415
10.400359999999996,3.282541100463987,0.04941369122523729
10.40274,3.263266162962363,0.049397414638675516
10.405136,3.2379849232214886,0.0494234037311744
10.407524,3.219780920906502,0.0493930971406642
10.409904,3.1983641130316007,0.049403478425913236
10.4123,3.176295678850642,0.04938837196844397
10.414692,3.1551584102294608,0.0493710559961666
10.417072,3.135371616048639,0.049313208195243666
10.419472,3.115584821867817,0.04925408604735623
10.42186,3.0957980276869947,0.049194645136087546
