Time,Force,Position
11.8373,0.16630344209723844,0.0
11.839688,0.16430134135082258,0.0
11.842067999999998,0.15922620467135135,0.0
11.844472,0.15412600963203038,0.0
11.84686,0.1471634834731528,0.0
11.849244,0.14141166212777298,0.0
11.85164,0.13379750966283652,0.0
11.854028,0.1251124220112625,0.0
11.856407999999998,0.11952542865259255,0.0
11.858812,0.11286750010728507,0.0
11.8612,0.10714073712175493,0.0
11.863584,0.09913233413608849,0.0
11.86598,0.08988816797707364,0.0
11.868368,0.0785021314447817,0.0
11.870748,0.0671160949124898,0.0
11.873144,0.055450519126477436,0.0
11.875532,0.04287883614053647,0.0
11.877911999999998,0.0336597283413713,0.0
11.880319999999998,0.02441556218235643,0.0
11.882704,0.019480195129744405,0.0
11.885088,0.01468459770399259,0.0
11.887484,0.014032971397933715,0.0
11.889872,0.021249978450682036,0.0
11.892252,0.027560878303501728,0.0
11.894648,0.031078281476986457,0.0
11.897036,0.033384979836972445,0.0
11.899416,0.03662284375673676,0.0
11.901819999999995,0.03662284375673676,0.0
11.904208,0.034595684650470214,0.0
11.906588,0.03256852554420367,0.0
11.908984,0.029470431251299573,0.0
11.911372,0.03030904901245986,0.0
11.913756,0.03303505625302648,0.0
11.916152,0.03361919312031604,0.0
11.918536,0.03361919312031604,0.0
11.92092,0.03361919312031604,0.0
11.923323999999996,0.03375896274717625,0.0
11.925711999999995,0.03359413476046635,0.0
11.928092,0.03359413476046635,0.0
11.930488,0.032358371587118885,0.0
11.932876,0.031122608413771433,0.0
11.935256,0.02788474449400712,0.0
11.937656,0.02064267908140911,0.0
11.940044,0.014331779228589416,0.0
11.942424,0.012981304788230464,0.0
11.94482,0.015914571094425636,0.0
11.947208,0.017125275907924377,0.0
11.949592,0.02343617576074407,0.0
11.951988,0.02802451412086733,0.0
11.954376,0.03168168692121227,0.0
11.956756,0.031681686921212274,0.0
11.959156,0.029886845240423968,0.0
11.961544,0.028676140426925227,0.0
11.963924,0.02960730598670355,0.0
11.96632,0.034335413973687015,0.0
11.968708,0.037852817147171744,0.0
11.971104,0.03827212602775141,0.0
11.973499999999998,0.03964765882795908,0.0
11.975884,0.04195435718794506,0.0
11.978264,0.04454059480165147,0.0
11.980667999999998,0.04454059480165148,0.0
11.983051999999995,0.04454059480165148,0.0
11.985432,0.04454059480165148,0.0
11.987835999999998,0.04454059480165148,0.0
11.990219999999995,0.042373666068525696,0.0
11.992604,0.03713370140234454,0.0
11.994999999999996,0.03268513266908149,0.0
11.997387999999996,0.0263742328162618,0.0
11.999768,0.021785894456138537,0.0
12.002171999999998,0.018128721655793593,0.0
12.004555999999996,0.018128721655793593,0.0
12.00694,0.018293549642503498,0.0
12.009335999999998,0.01677824721543562,0.0
12.011723999999996,0.015262944788367738,0.0
12.014104,0.010534836801384263,0.0
12.0165,0.007017433627899533,0.0
12.018888,0.006433296760609972,0.0
12.021268,0.005057763960402303,0.0
12.023675999999998,0.004963320303916973,0.0
12.026063999999998,0.0028667759010147934,0.0
12.028444,0.004799491350795034,0.0
12.030848,0.008082681240934225,0.0
12.033236,0.009084231130936146,0.0
12.035615999999996,0.009084231130936146,0.0
12.038011999999998,0.009084231130936146,0.0
12.040399999999998,0.009084231130936146,0.0
12.04278,0.011016946580716388,0.0
12.045175999999998,0.01509153240377369,0.0
12.047563999999998,0.015091532403773688,0.0
12.049944,0.015091532403773688,0.0
12.052348,0.01509153240377369,0.0
12.054735999999998,0.014926704417063785,0.0
12.057116,0.014926704417063785,0.0
12.059516,0.014926704417063789,0.0
12.061903999999998,0.014926704417063789,0.0
12.064284,0.014926704417063789,0.0
12.066688,0.015182184344521506,0.0
12.069076,0.015345116473362168,0.0
12.071455999999998,0.013132861769861505,0.0
12.073856,0.013504948822198987,0.0
12.076244,0.016997293635835,0.0
12.078623999999998,0.01993055994203017,0.0
12.08102,0.03129153811447338,0.0
12.083403999999998,0.04444546210983661,0.0
12.085787999999996,0.06081219166511545,0.0
12.088183999999998,0.07634030345923301,0.0
12.090567999999998,0.09137872204254636,0.0
12.092948,0.09892059431938999,0.0
12.095356,0.11239938353884754,0.0
12.097744,0.12625025981064258,0.0
12.100123999999996,0.14247532388119197,0.0
12.102519999999998,0.15762945276510282,0.0
12.104907999999998,0.1762287046344065,0.0
12.107288,0.19203445982437525,0.0
12.109683999999998,0.20681650165594864,0.0
12.112071999999998,0.22150599568890497,0.0
12.114452,0.24045606796643493,0.0
12.116851999999998,0.2604298536023603,0.0
12.119235999999995,0.2802870321134059,0.0
12.12162,0.29821149517467127,0.0
12.124015999999996,0.3107340604745008,0.0
12.126403999999996,0.32442010875958593,0.0
12.128799999999998,0.32953867555156285,0.0
12.131192,0.3366593430899566,0.0
12.133579999999998,0.33814579544143725,0.0
12.135963999999998,0.3411224918601371,0.0
12.13836,0.34265616603986093,0.0
12.140748,0.35555081839202796,0.0
12.143127999999995,0.368445470744195,0.0
12.145523999999998,0.38003687048424617,0.0
12.147911999999998,0.3886024561194852,0.0
12.150292,0.3931638402618905,0.0
12.152691999999998,0.39320916623226443,0.0
12.155075999999998,0.3979103200015299,0.0
12.157456,0.40642868380852576,0.0
12.159855999999998,0.4140612080261172,0.0
12.16224,0.41647882593737623,0.0
12.16462,0.4175459694082763,0.0
12.167016,0.4174024080656776,0.0
12.169408,0.4197728041486934,0.0
12.171788,0.4209797172464536,0.0
12.174184,0.42158222586639915,0.0
12.176575999999995,0.42367497855356384,0.0
12.178956,0.4216237601210346,0.0
12.181372,0.42199395131550277,0.0
12.18376,0.4229232210174118,0.0
12.186139999999998,0.4201278284802076,0.0
12.188536,0.4079735585169771,0.0
12.190924,0.39446881411338763,0.0
12.193307999999998,0.380265221575497,0.0
12.195704,0.3681562775826404,0.0
12.198092,0.36871156437434277,0.0
12.200471999999998,0.37112918228560177,0.0
12.202876,0.3732672609431403,0.0
12.205264,0.3723323036676235,0.0
12.207643999999998,0.3714445682203499,0.0
12.210044,0.36659985310848564,0.0
12.212432,0.3573788494514503,0.0
12.214811999999998,0.351650190608051,0.0
12.217208,0.3463408406452323,0.0
12.219596,0.344895922548387,0.0
12.221975999999998,0.3430316955709612,0.0
12.224372,0.3458232963924269,0.0
12.22676,0.35434166019942276,0.0
12.229139999999996,0.36551375105889333,0.0
12.231544,0.3762665330377833,0.0
12.233932,0.39446863949489985,0.0
12.236316,0.4188168178181272,0.0
12.238712,0.4454466361414917,0.0
12.2411,0.47799020890548977,0.0062244205667788275
12.243479999999998,0.5090907594305117,0.012448841133557653
12.245876,0.5299484887979723,0.01887045482741329
12.248264,0.548804117419016,0.01887045482741329
12.250647999999998,0.5647264797338645,0.018870454827413292
12.253052,0.583442338728048,0.025644957939648664
12.25544,0.6052312336552867,0.03210801808134489
12.257824,0.6332587482472535,0.038518712312860914
12.26022,0.6735311847431985,0.04435737859150411
12.262608,0.7143154779183414,0.05011275355047372
12.264992,0.7541686055337058,0.055812002800879765
12.267388,0.7912282364697354,0.061567377759849364
12.269776,0.8232127307262926,0.06771868725843722
12.27216,0.8524037283035147,0.0738022088030989
12.274556,0.875216336589149,0.08007587644084896
12.276944,0.8956547570760288,0.0862457763926784
12.279328,0.9151620120031303,0.0924674142590137
12.281736,0.9308048350642584,0.09874108189676378
12.284119999999998,0.9453767229387481,0.10492441432908076
12.2865,0.9562239485741242,0.11117775714472154
12.288895999999998,0.9637185990227247,0.11113666901025969
12.291283999999996,0.9702820839115469,0.11116559125912166
12.293664,0.976938116598986,0.11141782219588425
12.29606,0.9875983507792588,0.11785550872862274
12.298448,1.0033337216390041,0.12401611371859578
12.300828,1.0136218687669396,0.12365685049000882
12.303231999999998,1.0244218725740726,0.12344953119061962
12.305619999999998,1.035501415634926,0.12316602395330827
12.308,1.0351274327247195,0.12382115019790726
12.310403999999998,1.0302373916424812,0.12476494328598584
12.312791999999998,1.0233452498138262,0.12590111148768585
12.315172,1.0172445039180895,0.12703589346714178
12.317567999999998,1.0190123913811597,0.12745539428648936
12.319951999999995,1.016356768470816,0.12844967078179412
12.322336,1.0166344118666668,0.12916635494061182
12.324731999999996,1.0142111063818005,0.1303937911212778
12.327116,1.012718966456712,0.13152981186565188
12.3295,1.0110870569047634,0.13272803252714555
12.331896,1.0086637514198966,0.13391987938257824
12.33428,1.0088941729875047,0.13491261291164644
12.336664,1.0088450553013923,0.13599348483867357
12.33906,1.0086561679884196,0.13714899691723037
12.341444,1.015172431048999,0.1373886874464961
12.343827999999998,1.0187554278033824,0.13791392594362176
12.34622,1.0188933015723733,0.13861771984855992
12.348608,1.0219644416475595,0.13906687885982266
12.351004,1.0222420850434104,0.13972467317739956
12.353403999999998,1.0237304332527606,0.14019791695220152
12.355791999999996,1.0321562492611394,0.14006626525790516
12.358172,1.0444464971354916,0.13961049082993043
12.360567999999995,1.059670011316039,0.13890662718806268
12.362956,1.0775472525490615,0.1380684080021754
12.36534,1.0934223930356666,0.1374872786350291
12.367735999999995,1.1149317487091852,0.13623184812967293
12.370124,1.1344390036362866,0.13514622850932495
12.372504,1.1613030352429978,0.13336557829982928
12.3749,1.1893777716632075,0.131513327699882
12.377288,1.2138676154711643,0.12974090362985166
12.379672,1.2391488552120393,0.12801604825924798
12.382068,1.263638699019996,0.12637995259772705
12.384456,1.2845436502157,0.12488467654817374
12.386836,1.3110355947700734,0.12307280724561956
12.389239999999996,1.3301707626448376,0.1219797066543485
12.391627999999995,1.3473038297731847,0.12099737054146278
12.394008,1.3608047824610359,0.12041067258277466
12.396411999999998,1.3758885270147232,0.11979444654280019
12.398795999999995,1.3940453075014658,0.11894501363033788
12.40118,1.4099204479880711,0.11839697956985219
12.403575999999996,1.4208602214220645,0.11821861309528667
12.40596,1.4310085989231396,0.11807466960884644
12.408344,1.4414365156779354,0.11788119437191442
12.410736,1.4457655823948632,0.11791755417657783
12.413124,1.4442281164994006,0.11833722050948861
12.415519999999995,1.4404090106038008,0.11896331266837203
12.417911999999998,1.4407338758278956,0.11926968964118412
12.420299999999996,1.4330503380663222,0.12010146341167802
12.42268,1.425087261051029,0.12097230110646315
12.425075999999995,1.4276465444470174,0.12126853265869918
12.427464,1.4279714096711116,0.12155628731485953
12.429844,1.4282962748952062,0.12184066170619592
12.43224,1.4340683638511105,0.12190573531249138
12.434628,1.4326706675825083,0.12223675954578399
12.437023999999996,1.4383502087397952,0.12214607829986802
12.439419999999998,1.4512467569498313,0.12162157236928062
12.441807999999998,1.4694979810930602,0.12070520900406759
12.444188,1.483233147064258,0.11994731985524366
12.446579999999996,1.4898910756095665,0.11961297093051898
12.448967999999995,1.4929641115426215,0.11941227269316607
12.451348,1.4960371474756773,0.11920073555638938
12.453751999999998,1.4977597089683736,0.11914222682747079
12.456135999999995,1.4978522567669907,0.11930232469622547
12.45852,1.505254359416974,0.1191361399098653
12.460915999999996,1.522946505052762,0.11829551039231732
12.463303999999995,1.544642852181384,0.11725383475611967
12.465684,1.5631263937500903,0.11647746740836855
12.46808,1.5836120360652133,0.11552456921861208
12.470468,1.6015837209547217,0.11464860746792527
12.472863999999998,1.6121060813660035,0.11415800552156488
12.47526,1.6237919247625408,0.11374897011237083
12.477643999999998,1.6326842714797436,0.11345284096588626
12.480027999999995,1.6362691640919966,0.11332676814818725
12.482432,1.6422282445030039,0.11316841614315457
12.484816,1.6461852241675945,0.11313273546914658
12.487195999999996,1.6438563623392144,0.11346940692470485
12.4896,1.6405963349510553,0.1138323419395681
12.491988,1.6442737753619252,0.11386610955606799
12.494367999999998,1.6530263524522677,0.11362728035276455
12.496764,1.6702991892074754,0.1130554256717318
12.499152,1.6966513641349887,0.11207923310998856
12.501531999999996,1.7242142438760009,0.11101052646919782
12.503927999999998,1.7483320006316203,0.10998182456093533
12.506315999999998,1.766722994401709,0.10920565783195302
12.508696,1.7752432540665746,0.10889300690581934
12.511091999999998,1.774823945185994,0.1089771469679168
12.513479999999998,1.775475571492052,0.10900089683871159
12.51586,1.781202334477582,0.10878773032347144
12.518255999999996,1.786649558209392,0.10862579561476622
12.520643999999995,1.7924688689935389,0.10853970234734017
12.523039999999998,1.797496783844768,0.10845670837686053
12.525444,1.8090428576144453,0.1081564458218346
12.527832,1.8275263991831516,0.10756494359286607
12.530212,1.8493625159386335,0.1067909763374843
12.532608,1.867473970455002,0.10614040485957552
12.534996,1.8878670649715081,0.10534345718561439
12.53738,1.909051555420932,0.10456852563805925
12.539776,1.928094175497079,0.10394898266672695
12.542164,1.9502098315062817,0.10323414682121315
12.544548,1.9635256885968986,0.10283698076096962
12.546944,1.964409632328434,0.10295524724455613
12.549328,1.9631517056866918,0.10317083325570932
12.551711999999998,1.9658979805377836,0.1032395667196971
12.554108,1.9754419535610444,0.10308886374537858
12.556492,1.991364315875893,0.1027835046811968
12.558871999999996,2.016366016363047,0.10211651293606451
12.56128,2.038154911290286,0.10158744981843898
12.563668,2.054589130284332,0.10132190926118233
12.566048,2.0739566155845734,0.10095651633871187
12.568444,2.0978873808850893,0.1003646772859078
12.570832,2.120886980625827,0.09978647609331716
12.573211999999998,2.1382995870078942,0.09937666937800588
12.575612,2.1514284526434078,0.0991695474957148
12.578,2.1624154479056443,0.09906265567788024
12.580379999999998,2.1751250046605777,0.09892895542075575
12.582776,2.1866238566020115,0.09886400334426013
12.585164,2.19504967261039,0.09890908590204237
12.587547999999998,2.2016131574992124,0.09899900114686241
12.589952,2.202170340148784,0.09928285138764617
12.59234,2.207802659477828,0.0993945972538549
12.59472,2.2255873529122328,0.09909256636127668
12.597116,2.2448622904138573,0.09867721125233613
12.599504,2.263717919034901,0.09833259212135412
12.601883999999998,2.2767070150435544,0.09816960661869012
12.60428,2.286902614372873,0.09807118062971797
12.606668,2.2940251777691363,0.09808048469784154
12.609047999999998,2.3085045178450083,0.0978364480879777
12.611444,2.327407368294295,0.09741823052022941
12.613832,2.346449988370442,0.0969943525448998
12.616211999999996,2.3593465365804787,0.09676582789353301
12.618607999999998,2.3762472862833484,0.09643177705342103
12.620995999999998,2.394870597478915,0.09608009952399482
12.623392,2.4144250742342592,0.09570992363260539
12.625788,2.434910716549383,0.0953306120715806
12.628176,2.4583296251707005,0.09488734307278286
12.630556,2.4857527352848527,0.09435192233543044
12.632952,2.518250982078477,0.09368562335337563
12.63534,2.550749228872101,0.0930193243713208
12.637724,2.5883226123451974,0.09221986713035771
12.64012,2.625895995818294,0.09144747029171549
12.642508,2.654809349999665,0.09088012914410377
12.644887999999998,2.6853054960468725,0.09032969023642559
12.647284,2.7162209509746607,0.08973168914136186
12.649672,2.7482073410890866,0.08909501934822585
12.652051999999998,2.7821958319499305,0.08841645263079931
12.654448,2.815253157250995,0.08775693125785233
12.656835999999998,2.8410934754993105,0.08729754460528182
12.659219999999998,2.863860757814571,0.08692491303380537
12.661616,2.884486169756554,0.08661709103547591
12.664003999999998,2.9049718120716777,0.08631377682544865
12.6664,2.9235951232672437,0.08604807577074365
12.668796,2.9384937722236972,0.08583099436410607
12.671184,2.952880564500952,0.08557981069919664
12.673564,2.964194320845152,0.08540198935412278
12.675964,2.9719231845770993,0.08526358205331051
12.678352,2.974065054950376,0.08520520938431961
12.680732,2.9706199319649835,0.08522330016129287
12.683128,2.970247844912646,0.08517175247239324
12.685516,2.967733887487032,0.08517583428413106
12.6879,2.9630780596881396,0.0852342151881953
12.690296,2.9604243326356654,0.08525383917437639
12.692684,2.955908274463634,0.08529637550235629
12.695064,2.949529885172047,0.08536143718487008
12.69746,2.945153596626875,0.08538717627988776
12.699848,2.936261249909672,0.0854541738336297
12.702227999999998,2.92750867281933,0.08550522215691765
12.704624,2.92411077166218,0.085422626314469
12.707012,2.9199214745721123,0.0853355142774995
12.709395999999998,2.912938680802709,0.08528287975933174
12.711796,2.9122417285262774,0.08508456947910267
12.714184,2.9074008051301514,0.08497774762736361
12.716563999999998,2.909357579906194,0.08476006457127039
12.71896,2.910755276174797,0.08460458001396326
12.721348,2.9125722813239796,0.08440082865025669
12.723731999999998,2.9171827831524975,0.08416381813516356
12.726128,2.9233760768468513,0.08393312402759438
12.728516,2.9334338024071784,0.08364219401825763
12.730912,2.938416391288034,0.08345673119206413
12.733307999999996,2.9384636131162774,0.08335789469201614
12.735692,2.9357173382651855,0.08329386687478801
12.738076,2.933622689720152,0.08324989852438029
12.740472,2.9305968756153393,0.08321783335549869
12.74286,2.9322268893094185,0.08312731469433754
12.74524,2.9319945718839415,0.0830604849584307
12.747636,2.9362783126304954,0.08295223320877256
12.750024,2.9402825141233286,0.08287534725964843
12.752408,2.9418653059891646,0.08288423581478743
12.754804,2.9453104289745577,0.08287151862636503
12.757192,2.952619983825924,0.08279842278416523
12.759576,2.9547146323709574,0.08284282018065257
12.761972,2.962024187222324,0.08277155247332779
12.76436,2.9637467487150215,0.08276563138566716
12.76674,2.9698928205811317,0.08264378858616675
12.769136,2.9788323891265773,0.08249282190913396
12.771524,2.9848386913658285,0.08238810076734088
12.77392,2.9929868639783557,0.08223499261486104
12.776315999999998,2.9957803606576907,0.0822050181274935
12.778703999999998,2.9996447925236644,0.08214908521013528
12.781084,3.00872413069597,0.08197931042343097
12.783479999999996,3.0238097711075262,0.08170185974875889
12.785867999999995,3.0362416844666082,0.08143859658586534
12.788252,3.049604763385468,0.08116343024144568
12.790647999999996,3.058172244878577,0.08095999804401408
12.793035999999995,3.0656687911850464,0.08078167975295185
12.795416,3.074376042305015,0.08056852530216085
12.797819999999998,3.085504703051981,0.08027972346026715
12.800203999999995,3.092117305626916,0.0800214505810165
12.802584,3.0977987426420723,0.07977484315842401
12.80498,3.103899488537809,0.07948715157743222
12.807364,3.1112109392470444,0.07915931546426479
12.809759999999995,3.1165202892098627,0.07886864713627993
12.812151999999998,3.124623135852016,0.07854983506259325
12.814539999999996,3.1277906154415582,0.07831016000803907
12.81692,3.1283043679786253,0.07808383005241656
12.819316,3.1306804516352487,0.07784008536888745
12.821704,3.1313339737991757,0.07760127979333015
12.824084,3.1342691359632404,0.07729821094702402
12.82648,3.1392063988737213,0.07696342310832324
12.828864,3.1438641225304824,0.07666025603277837
12.831243999999998,3.1434467095077707,0.0764435689111646
12.833659999999998,3.147173267604753,0.07615115301686833
12.836047999999998,3.154112631261651,0.07579610193012996
12.838428,3.1610519949185494,0.07543860797403605
12.840832,3.171995560068282,0.07502430778547596
12.843215999999998,3.1781435277922614,0.07466664048998117
12.845596,3.181730316262384,0.0743962750238426
12.848,3.190252471785118,0.07405729150534349
12.850388,3.1974241528674936,0.07376643299688157
12.852767999999998,3.205387229882787,0.07348711706862035
12.855172,3.213490076524941,0.07319540927446526
12.85756,3.223595023913511,0.07287918035115024
12.859939999999998,3.233699971302082,0.07256629901632453
12.862336,3.2416630483173754,0.0722906591586483
12.864719999999998,3.2542819531315605,0.07198537225020721
12.867103999999998,3.2681115627592443,0.07165121818575138
12.8695,3.2816616331332082,0.07134525894538293
12.871883999999998,3.2973535738804483,0.0710008242676847
12.874264,3.31183480981419,0.07069084894958573
12.876659999999998,3.326595585001652,0.07035810979637869
