Time,Force,Position
18.955132,0.0005369150390473824,0.0
18.957516,0.0005369150390473824,0.0
18.9599,0.0005369150390473824,0.0
18.962296,0.0005369150390473824,0.0
18.96468,0.004566174891729803,0.0
18.96706,0.009806139557910962,0.0
18.969456,0.016117039410730654,0.0
18.971844,0.0244300400099672,0.0
18.97424,0.02887860874323025,0.0
18.97664,0.03318740784963309,0.0
18.979028,0.03563387583647929,0.0
18.981408,0.0356338758364793,0.0
18.983804,0.0356338758364793,0.0
18.986192,0.0356338758364793,0.0
18.988572,0.0356338758364793,0.0
18.99098,0.0356338758364793,0.0
18.993368,0.035096960797431916,0.0
18.995748,0.035096960797431916,0.0
18.998144,0.03675203285136001,0.0
19.000532,0.03947804009192663,0.0
19.002912,0.04234381695935346,0.0
19.005316,0.04814286013297546,0.0
19.007704,0.05422144256031788,0.0
19.010084,0.0561560538679664,0.0
19.012488,0.05212679401528397,0.0
19.014876,0.04688682934910281,0.0
19.017256,0.04057592949628312,0.0
19.019652,0.03226292889704658,0.0
19.02204,0.02781436016378352,0.0
19.024424,0.023505561057380674,0.0
19.02682,0.02105909307053448,0.0
19.029204,0.02105909307053448,0.0
19.031588,0.02105909307053448,0.0
19.033984,0.02105909307053448,0.0
19.036372,0.02105909307053448,0.0
19.038752,0.02105909307053448,0.0
19.041148,0.02105909307053448,0.0
19.043536,0.02105909307053448,0.0
19.045916,0.019404021016606387,0.0
19.048312,0.016678013776039766,0.0
19.050696,0.013812236908612937,0.0
19.05308,0.008013193734990934,0.0
19.055476,0.0019346113076485105,0.0
19.057864,0.0,0.0
19.060244,0.0,0.0
19.06264,0.0,0.0
19.065028,0.0,0.0
19.067424,0.0,0.0
19.06982,0.0,0.0
19.072204,0.0,0.0
19.074588,0.0,0.0
19.076984,0.001747619852546123,0.0
19.079372,0.004566174891730777,0.0
19.081752,0.009386830677332281,0.0
19.084156,0.01248492497023638,0.0
19.086544,0.013441148889864394,0.0
19.088924,0.015608077622990173,0.0
19.091324,0.018566402289035038,0.0
19.093708,0.018566402289035038,0.0
19.096092,0.01938285658180284,0.0
19.098488,0.021410015688069384,0.0
19.100876,0.02343717479433593,0.0
19.103256,0.028397600206796672,0.0
19.105652,0.03335802561925741,0.0
19.10804,0.035385184725523953,0.0
19.11042,0.035385184725523953,0.0
19.112816,0.0356897823390931,0.0
19.115204,0.03813625032593929,0.0
19.117584,0.04244504943234215,0.0
19.119984,0.045543143725246246,0.0
19.122368,0.05050356913770698,0.0
19.124764,0.051714273951205716,0.0
19.127164,0.04889571891202107,0.0
19.129552,0.04407506312641956,0.0
19.131932,0.043935293499560324,0.0
19.134328,0.04486645905933864,0.0
19.136716,0.04269953032621286,0.0
19.1391,0.04097696883351546,0.0
19.141496,0.04435460238013998,0.0
19.143884,0.0469157816339967,0.0
19.146264,0.04505345051444006,0.0
19.14866,0.04302629140817352,0.0
19.151048,0.038065865995712767,0.0
19.153428,0.03310544058325203,0.0
19.155832,0.031078281476985492,0.0
19.15822,0.031078281476985492,0.0
19.160604,0.030773683863416352,0.0
19.163,0.028327215876570153,0.0
19.165388,0.024018416770167313,0.0
19.167772,0.02092032247726321,0.0
19.170168,0.01595989706480247,0.0
19.172552,0.013001572398757601,0.0
19.174936,0.013001572398757601,0.0
19.17734,0.013001572398757601,0.0
19.179728,0.010043247732712738,0.0
19.182112,0.008155858253306404,0.0
19.184508,0.008739995120595962,0.0
19.186892,0.007948599187677853,0.0
19.189272,0.006226037694981422,0.0
19.191672,0.00450347620228499,0.0
19.19406,0.005853950642642968,0.0
19.19644,0.006298317883072317,0.0
19.198836,0.008605016243058308,0.0
19.201224,0.011051484229904509,0.0
19.203604,0.013358182589890497,0.0
19.206012,0.014733715390098165,0.0
19.208396,0.014733715390098167,0.0
19.210776,0.014733715390098167,0.0
19.213172,0.014733715390098167,0.0
19.21556,0.014733715390098167,0.0
19.217944,0.01582970893658639,0.0
19.220348,0.015829708936586393,0.0
19.222736,0.015829708936586393,0.0
19.225116,0.015829708936586393,0.0
19.22752,0.015829708936586393,0.0
19.229908,0.015829708936586393,0.0
19.232292,0.015245572069296833,0.0
19.234688,0.014801204828867483,0.0
19.237076,0.013146132774939394,0.0
19.23946,0.011491060721011304,0.0
19.241856,0.009975758293943423,0.0
19.244244,0.009531391053514074,0.0
19.246624,0.0072246926935280835,0.0
19.249028,0.0047782247066818825,0.0
19.251416,0.0024715263466958924,0.0
19.2538,0.0010959935464882233,0.0
19.256196,0.0010959935464882233,0.0
19.258584,0.0010959935464882233,0.0
19.260964,0.0010959935464882233,0.0
19.26336,0.0010959935464882233,0.0
19.265748,0.0,0.0
19.268132,0.0,0.0
19.270528,0.0,0.0
19.272916,0.0018873894794063334,0.0
19.275296,0.0018873894794063332,0.0
19.277692,0.0018873894794063332,0.0
19.28008,0.0019124478392560258,0.0
19.28246,0.002728902132023829,0.0
19.284856,0.0027289021320238286,0.0
19.287244,0.007409788290765123,0.0
19.289628,0.011950904822646206,0.0
19.292024,0.0166317909813875,0.0
19.294412,0.022243842699907115,0.0
19.296792,0.02413123217931345,0.0
19.299196,0.024131232179313445,0.0
19.301584,0.026949787218498104,0.0
19.303964,0.029768342257682757,0.0
19.30636,0.03258689729686741,0.0
19.308748,0.03605707864210997,0.0
19.311132,0.03966702961421273,0.0
19.313528,0.04141464946675885,0.0
19.315916,0.04488483081200141,0.0
19.3183,0.0462131417839669,0.0
19.320696,0.044722897716747735,0.0
19.323084,0.04805330943513009,0.0
19.325464,0.052454656340150965,0.0
19.327868,0.05655140563160173,0.0
19.330252,0.06306956455004997,0.0
19.332632,0.07040417776126602,0.0
19.335036,0.07105580406732391,0.0
19.337424,0.0741288400003793,0.0
19.339804,0.08316095634444208,0.0
19.342204,0.09377586455434109,0.0
19.344592,0.1043907727642401,0.0
19.346972,0.11675330082668522,0.0
19.349368,0.12378331642433114,0.0
19.351756,0.12652959127542296,0.0
19.35414,0.1312779668729316,0.0
19.356536,0.13458332023146427,0.0
19.35892,0.13788867358999696,0.0
19.3613,0.14226496213516812,0.0
19.3637,0.1489228906804766,0.0
19.366084,0.1585140855319802,0.0
19.368468,0.16903644594326217,0.0
19.370872,0.17089877706281884,0.0
19.37326,0.17355250411529358,0.0
19.37564,0.1729008778092357,0.0
19.378044,0.16875690668954174,0.0
19.380432,0.1628903740771514,0.0
19.382816,0.15939802926351537,0.0
19.385212,0.155718692994776,0.0
19.3876,0.1420056904919719,0.0
19.38998,0.12577873056355326,0.0
19.392376,0.11553590940599177,0.0
19.394764,0.10822635455462543,0.0
19.397148,0.10235982194223507,0.0
19.39954,0.10277913082281571,0.0
19.401928,0.09840284227764454,0.0
19.404308,0.09761144634472642,0.0
19.406716,0.09905446858370244,0.0
19.409104,0.10408238343493151,0.0
19.411484,0.09830839862115821,0.0
19.41388,0.09574721936730052,0.0
19.416268,0.08997323455352722,0.0
19.418648,0.09588509313629147,0.0
19.421048,0.1008657861592774,0.0
19.423432,0.11194532922013094,0.0
19.425816,0.11957974929559162,0.0
19.428212,0.13037975310272476,0.0
19.4306,0.1441602450442962,0.0
19.432984,0.1528202743360215,0.0
19.435388,0.16671837243605972,0.0
19.437776,0.17516924680428816,0.0
19.440156,0.18187250131997051,0.0
19.442552,0.18871552546251308,0.0
19.444944,0.19835204628439063,0.0
19.447324,0.20505530080007298,0.0
19.449724,0.21785740535362294,0.0
19.452112,0.22707461729491984,0.0
19.454492,0.22940158326543106,0.0
19.456888,0.22851574367602664,0.0
19.459276,0.23414806300507046,0.0
19.461656,0.233913849721724,0.0
19.46406,0.2426192049838232,0.0
19.466448,0.24685572390213417,0.0
19.468828,0.2482987461411102,0.0
19.471232,0.24815897651425,0.0
19.47362,0.25439759617897784,0.0
19.476,0.2611952943511464,0.0
19.478396,0.2618469206572044,0.0
19.480784,0.2697608799863855,0.0
19.483164,0.2780941481961472,0.0
19.48556,0.2945283671901934,0.0
19.487948,0.3093797943184034,0.0
19.490332,0.32115818551355796,0.0
19.492728,0.33521821670884977,0.0
19.495116,0.353002910143255,0.0
19.497496,0.3664113150324889,0.0
19.499896,0.38140251178755913,0.0
19.50228,0.4027720978342173,0.0
19.504664,0.42055679126862244,0.0
19.50706,0.4403435854494444,0.0
19.509448,0.46078200593632435,0.0
19.511828,0.47349156269125725,0.0
19.514224,0.48242923537883375,0.0
19.516608,0.49001643362605124,0.0
19.519008,0.4976036318732688,0.0
19.521404,0.5034682686277899,0.0
19.523792,0.5074705742627543,0.0
19.526176,0.5161287076966105,0.0
19.528572,0.5165461207193218,0.0
19.53096,0.5173828426226138,0.0
19.533344,0.5137035063538744,0.0
19.53574,0.5143079108316891,0.0
19.538128,0.514260689003446,0.0
19.540512,0.5099297264286488,0.0
19.542908,0.5046675982940733,0.0
19.5453,0.49954523978635773,0.0
19.54768,0.4925605501590858,0.0
19.55008,0.48636725646473183,0.0
19.552468,0.4891135313158237,0.0
19.554848,0.492139345420636,0.0
19.557244,0.49623609471208674,0.0
19.559636,0.5060596069890676,0.0
19.562016,0.518304528893046,0.0
19.564416,0.5357643571033568,0.0
19.566804,0.5518737108733087,0.0
19.569184,0.5661207335237038,0.0
19.57158,0.576875411360463,0.0
19.573972,0.5873505499435019,0.0
19.576352,0.6049029259524297,0.0
19.578748,0.6181715612148034,0.0
19.581136,0.6367476505821268,0.0
19.58352,0.6549044310688694,0.004508654341569152
19.585916,0.6719902763689735,0.004508654341569152
19.588304,0.6890761216690777,0.004508654341569152
19.590684,0.7069533629020999,0.009134543325976473
19.59308,0.7248306041351221,0.013809642037329078
19.595468,0.7464325076072575,0.018395501577475902
19.597852,0.7653806840269182,0.022981361117622726
19.600248,0.7778107015281307,0.027552764116604133
19.602636,0.7870279134694276,0.03228408253413659
19.605016,0.8011804924633364,0.03673270987213309
19.607412,0.808023516605879,0.041304112871114504
19.6098,0.8145870014947012,0.045930001855521825
19.612184,0.8248751486226368,0.0502526541267682
19.61458,0.83786424463129,0.054369361299809627
19.616968,0.8545780028790566,0.05839697692833198
19.619348,0.8805108689259894,0.06219620137375963
19.621744,0.9022072160546112,0.06602474979228536
19.624132,0.9194800528098187,0.06999793110856709
19.626512,0.9407570910578598,0.07392019722716085
19.628912,0.9579373800144502,0.07778813707680897
19.6313,0.9701823019184287,0.07727941890271875
19.633684,0.9848014116211614,0.08137535180973204
19.63608,0.9967667942714193,0.08560533769310871
19.638468,1.0039365794959254,0.08536884584197196
19.640848,1.0166933580791016,0.08491430626670216
19.643248,1.0240029129304677,0.0846466889021419
19.645636,1.0290308277816969,0.0845900128875037
19.648032,1.0401575926707936,0.08440832842119168
19.650428,1.0526348320002494,0.08402411328125256
19.652816,1.0612476394637314,0.08388984403171389
19.655196,1.072374404352828,0.08370815956540188
19.657592,1.083640938868785,0.08347198911366398
19.65998,1.0851765089063783,0.08377863657948217
19.662364,1.0824283381974171,0.08442590158184245
19.66476,1.074093174129786,0.08530734319503018
19.667148,1.059891477449765,0.08641717599131263
19.669532,1.0512767741284137,0.08730362674543822
19.671928,1.0422899837547246,0.08808708306223553
19.674316,1.0353052941274525,0.08870105786491755
19.6767,1.0309743315526552,0.08924918769388496
19.679096,1.0306475704706917,0.0895963548039993
19.681484,1.0319508230828076,0.08970163792344768
19.683864,1.0403313131208123,0.08944904355432563
19.686264,1.0519246087187328,0.08897664609610906
19.688652,1.0539267094651494,0.08887662439096353
19.691032,1.0605846380104578,0.0886243433904592
19.693428,1.0735284080487375,0.08798963069255011
19.695816,1.078091688049012,0.08762722570232312
19.6982,1.0854484647286216,0.08719712209978384
19.7006,1.0888010399153973,0.08694872518640821
19.702988,1.096949212527925,0.08652557236914
19.705372,1.1072392555137298,0.08598721407878755
19.707772,1.1224646655521464,0.08518863754821704
19.71016,1.144487773762732,0.08412871051621856
19.71254,1.1719581057051272,0.08290422715321888
19.71494,1.199428437647522,0.08167974379021918
19.717328,1.2218236329104448,0.08074586329835494
19.719708,1.2468725552258424,0.07975241088228947
19.722108,1.2680570456752662,0.0789793551780273
19.724496,1.2869598961245532,0.07838894963598719
19.726876,1.3022778539615867,0.07787345899287626
19.729272,1.314383006238705,0.07755592288416624
19.731664,1.3223441873961292,0.07746221128766327
19.734044,1.3293742029937752,0.07739620401497727
19.73644,1.3464147223235055,0.0769440419675161
19.738828,1.3645261768398742,0.0764714115658814
19.741212,1.377842033930491,0.07615584341226465
19.743608,1.3979555891932767,0.07563774260998748
19.746,1.415135878149867,0.07522995567509876
19.74838,1.4375310734127897,0.07459352839644243
19.75078,1.4591348727427944,0.07399622127645815
19.753168,1.482601003192356,0.07342358866979616
19.755552,1.503133867335722,0.07291580610689402
19.757948,1.5179399684935584,0.07254481266921273
19.760336,1.5291611770391413,0.07220362507356926
19.76272,1.5385200544651678,0.07188380749460808
19.765116,1.5520229030108879,0.07142028849059753
19.767504,1.5636634204370514,0.07098496311966326
19.769884,1.57237067155702,0.070608892734852
19.77228,1.5822886274904875,0.0701590363619842
19.774668,1.5950000801032895,0.06966577528866394
19.777052,1.6105050293954268,0.06912548165397919
19.779448,1.6278723098071206,0.06856474237981947
19.781836,1.6452395902188144,0.06801149395456042
19.78422,1.6583231298839538,0.06765616449408954
19.786616,1.670475503989315,0.067332351486594
19.789004,1.683698813281315,0.06697447419890949
19.791384,1.692917921080481,0.06671943408352414
19.793784,1.7030681944394255,0.06645545491938451
19.796172,1.711216367051953,0.0662469464092569
19.798552,1.717502208544924,0.06606635140111208
19.800952,1.7176419781717842,0.06604179639023701
19.80334,1.7239278196647552,0.0658682659012938
19.80572,1.7310050570906441,0.06570791764864875
19.80812,1.7391532297031722,0.06551394152023055
19.810508,1.7522367693683119,0.06523159067712325
19.812888,1.764528913100533,0.06494554369720341
19.815284,1.7805457190718679,0.06463144553643765
19.817676,1.802429057655593,0.06422049697901135
19.820056,1.824591935493039,0.06377464891411425
19.822456,1.844473173330347,0.0634124636277282
19.82484,1.8598383529956242,0.06306145640194152
19.827224,1.8713391007949274,0.06276402496962855
19.82962,1.881629143780732,0.06251992273867406
19.832012,1.8880547549005633,0.06232580978079543
19.834392,1.890615934154421,0.06218988098177824
19.836788,1.893549200460616,0.06214155904855685
19.839176,1.8964824667668112,0.0620916032644166
19.84156,1.8974136323265895,0.06208284895761791
19.843956,1.8999275897522039,0.0621048323406043
19.846344,1.8973664104983465,0.062244240865728134
19.848728,1.8989492023641825,0.06227466077629217
19.851124,1.896108483856604,0.06245825679399127
19.853512,1.8926161390429683,0.06260386892341366
19.855896,1.8888442549756117,0.06279728870159637
19.858292,1.8790660686690048,0.0631139070783881
19.86068,1.867937407922039,0.06350690501800185
19.863064,1.854015250495738,0.06391769396915872
19.86546,1.834366330083907,0.06440072902369323
19.867848,1.8135067048585773,0.06492997065419329
19.870228,1.797070590006662,0.06530202362060926
19.872628,1.787292403700055,0.06559423709867297
19.875016,1.7804474836996431,0.06584422517354704
19.877396,1.7796088659384819,0.06597811444567575
19.879796,1.7850560896702916,0.06595907798237971
19.882188,1.7922258748947977,0.06594707158020267
19.884572,1.7968817026936892,0.06590985494623941
19.886968,1.8058212712391348,0.06575622013824065
19.889356,1.8159715445980795,0.06554902791492113
19.89174,1.8245390260911876,0.06531407049428324
19.89414,1.8361795435173511,0.06499976006720083
19.896528,1.8448867946373195,0.06473474747516719
19.898912,1.8530821890780906,0.06440544369996098
19.901308,1.8670043465043915,0.06402191132802168
19.903696,1.882137208744191,0.06358862538155105
19.90608,1.9028570643426603,0.0631055972307104
19.908476,1.9237166895679902,0.06259704227683298
19.910868,1.947789120353236,0.0620173724193229
19.913252,1.9774485444971512,0.06139194815401354
19.915648,2.0091100693874835,0.06074103593250641
19.91804,2.0375587887178996,0.06020110579911781
19.920424,2.0602807450627862,0.05973159020824202
19.92282,2.0831424710345328,0.059249251444341525
19.925208,2.0982753332743322,0.05886483758569098
19.927592,2.1103351595810764,0.05854913001995868
19.929988,2.1205326547682644,0.058237587367975234
19.93238,2.1355257473812035,0.05788307634569232
19.93476,2.148237199994006,0.057610310003664164
19.93716,2.1630905229800854,0.05729804647332194
19.939548,2.1758019755928877,0.05703073373012528
19.941928,2.1947992696986605,0.05665595855580321
19.944328,2.2136567941775733,0.05629497297027642
19.946716,2.2334454842162645,0.05593216585969038
19.9491,2.246436476082787,0.05564218767912516
19.951496,2.261289799068866,0.05535411404724512
19.953888,2.272837768696413,0.05502616810280224
19.956272,2.2865276086972366,0.05466079682932326
19.958672,2.296864873511284,0.05438375646649892
19.96106,2.301754914593522,0.05410423722200264
19.96344,2.3045030853024837,0.05386783674658931
19.965832,2.305249155265028,0.05365220618737294
19.96822,2.3061349948544323,0.05341472563865945
19.9706,2.306089668884058,0.05318094750316288
19.972992,2.3068357388466025,0.05295842352214328
19.97538,2.3082334351152047,0.05277173109472491
19.97776,2.313775102503501,0.052519759685682114
19.980152,2.3174544387722404,0.0522776863749374
19.98254,2.317129573548146,0.05207895307028499
19.98492,2.3142435290701933,0.05197788605166569
19.987324,2.3133595853386586,0.05185310394316146
19.989712,2.3048393256737936,0.05189036450639707
19.992088,2.297529770822427,0.05188909809296562
19.994484,2.290220215971061,0.05188665960021517
19.996872,2.283841826679473,0.051882359544420054
19.999252,2.2717366744023546,0.051907753594894364
20.001656,2.2632164147374896,0.05194122269808572
20.00404,2.2517628887664287,0.05199493241697368
20.00642,2.236724470183116,0.052038749219399875
20.008824,2.2251311745851954,0.0521138839988768
20.011212,2.213026022308077,0.05213391395909259
20.013588,2.2081378770837086,0.05204986815594098
20.015984,2.2046927540983154,0.05201832857953183
20.018372,2.202178796672701,0.051985175505525165
20.020768,2.2047399759265587,0.051891544807786974
20.023164,2.2069290681280793,0.05172716121497593
20.025548,2.206184894023404,0.05158448404977563
20.027928,2.203298849545452,0.051479273903021414
20.030332,2.20669864656047,0.05127999540177517
20.03272,2.2083758820827915,0.05106146552422472
20.0351,2.2111240527917513,0.050825165142907594
20.037496,2.2162936331277088,0.050510841790150474
20.039884,2.220252508650168,0.0502330197793366
20.04226,2.2239318449189063,0.04999198960492696
20.044664,2.2274714115607854,0.049767019076751996
20.047052,2.2358065756284153,0.049517586345884615
20.049432,2.2393461422702936,0.049293488985922986
20.051836,2.2423266304047322,0.049141499358785014
20.054224,2.2501027159649225,0.04896353447955461
20.0566,2.2590895063386114,0.04874939243521766
20.059008,2.265794656712163,0.04859146313484446
20.061396,2.260859289659551,0.04863544887145447
20.063776,2.259556037047435,0.048562006142928556
20.066172,2.255039978875404,0.04854825651046843
20.06856,2.246519719210539,0.0485747805365389
20.07094,2.236648985105314,0.048656180900692084
20.073336,2.230363143612343,0.04875227589577683
20.075724,2.2252880069328707,0.0488109311008824
20.078104,2.2160688991337056,0.04892429776931809
20.0805,2.2091314313346784,0.04898157881274083
20.082888,2.201262797975872,0.049037474201700064
20.085268,2.1932543949902055,0.04911110198481812
20.087672,2.187387862377816,0.049147882988939635
20.09006,2.183663200138703,0.049147861915811705
20.092444,2.181149242713087,0.049111207322900134
20.09484,2.1724892134213625,0.049149656036331216
20.097224,2.1647603496894163,0.04918844964495174
20.099604,2.1585217300246886,0.04915287549098178
20.102,2.1500014703598236,0.04917541010153095
20.104388,2.1377565484558456,0.0491974152483989
20.106768,2.1290965191641193,0.04924008048633827
20.109168,2.1290039713655027,0.04912369709429321
20.111552,2.1254190787532496,0.04910679455120576
20.113952,2.123976056514274,0.04905002841864874
20.116344,2.1206707031557412,0.04899382781024588
20.118732,2.117085810543488,0.04897774149489144
20.121112,2.11084719087876,0.04894435560169784
20.123508,2.100604369721199,0.048954274387887034
20.125896,2.0903615485636373,0.048964376341712995
20.128276,2.0806305840852737,0.0490331040831721
20.13068,2.0738328859131046,0.04907639610716485
20.133068,2.0650330869945193,0.04914212381744713
20.135448,2.0533000217697386,0.04922910938676316
