Time,Force,Position
4.924643999999999,9.724971968972977,0.1556183272202678
4.953327999999999,9.811073501597637,0.155489212510479
4.955715999999999,9.806931426335812,0.1554631747946854
4.958095999999999,9.805907712977415,0.1554494770727504
4.960492,9.8140086637617,0.1553743334178893
4.96288,9.83565778906208,0.1551701324788112
4.965259999999999,9.864803460668927,0.1548637113456128
4.967663999999999,9.896650081156492,0.1545087098401341
4.970048,9.918765737165696,0.1542638773679537
4.972427999999999,9.93929860130906,0.1540221715051695
4.974836,9.95941215657185,0.1537910976917302
4.977219999999999,9.983669682954329,0.1535021243164245
4.9796,10.0137937419492,0.1531414413737852
4.9819960000000005,10.04899293762354,0.1527143247350388
4.98438,10.068966723259466,0.1524879336482268
4.98676,10.0931770278137,0.1522281053461641
4.989151999999999,10.118178728300856,0.1519657807898283
4.9915400000000005,10.147324399907705,0.1516517683581995
4.993919999999999,10.181637755992645,0.1512982649004686
4.996316,10.21567157282386,0.1509538135614533
4.9987,10.250636555214854,0.1505987889076686
5.00108,10.28122524906068,0.1502922389479589
5.00348,10.298125998763547,0.1501218440881588
5.005863999999999,10.313351408801966,0.1499362033437344
5.008244,10.320895176936675,0.1498056525415529
5.013024,10.316660553876234,0.1497557015509193
5.015404,10.313542191972806,0.1497425133174229
5.017796000000001,10.318572002681904,0.149631848243992
5.02018,10.332633929735064,0.1494414854700611
5.02256,10.357357986826369,0.1491349416959957
5.024956,10.39172046059742,0.148709249456438
5.027343999999999,10.423848516196577,0.1482919313298903
5.029724,10.448107938436925,0.1479589300063629
5.032136,10.48023599403608,0.1475343316659765
5.034523999999999,10.513714524075594,0.1470886653793665
5.036904,10.550825168555605,0.1465923496590073
5.039316,10.581976732624607,0.1461411451895805
5.041703999999999,10.605446654789906,0.1457418841370302
5.044084,10.629288664007545,0.1453522730332729
5.046479999999999,10.6551327739716,0.1449417038780741
5.048864,10.675250120950125,0.1445912315115494
5.0512440000000005,10.698859812742285,0.1441933603910127
5.05364,10.72419206602714,0.1437842516388907
5.056023999999999,10.758928522708397,0.1433123640546256
5.058404,10.800462677561825,0.1427745866543515
5.0608,10.84446546387049,0.1421767588674611
5.063191999999999,10.879715673088812,0.1416461157149145
5.065572,10.911101450441164,0.1411544594753172
5.067983999999999,10.939274422233598,0.140702881724363
5.070371999999999,10.96493343660042,0.1402691428899522
5.072752,10.976624967570563,0.1399589756797064
5.075163999999999,10.988223950742093,0.1396281986171779
5.077551999999999,11.00582923615287,0.139233996800154
5.079932,11.02259590380249,0.1388684001513075
5.082343999999999,11.040573276265604,0.1384891922963111
5.084731999999999,11.049146445332322,0.13816716703678
5.087111999999999,11.053203556227004,0.1378772170612375
5.089508,11.0607983379057,0.1375865766144917
5.091896,11.075051048129705,0.1372382825665472
5.094287999999999,11.092144476861286,0.1368445148636111
5.096684,11.104908838875938,0.1364515687616311
5.099067999999999,11.108221775665948,0.1361386743492675
5.101452,11.108414454694657,0.1358837370528268
5.103856,11.106372715551474,0.1356330060445853
5.106244,11.097440730437503,0.1354232603579231
5.108623999999999,11.083992687151502,0.1352454859269612
5.11102,11.065282515730924,0.1351499264091063
5.113408,11.05011001509436,0.1350555675360756
5.115788,11.036008449644434,0.1349489517506791
5.118183999999999,11.022885271582528,0.1348082168706547
5.120571999999999,11.0106932590804,0.1346595899622886
5.122952,10.996963780682812,0.1345637703854414
5.125347999999999,10.985561268255733,0.134486538438256
5.1277360000000005,10.979001575082648,0.1343414496990889
5.130132,10.96368930481922,0.134249988598348
5.132527999999999,10.949540517541047,0.1341676433678317
5.1349160000000005,10.943864768099498,0.1340408235923193
5.137295999999999,10.940051349777503,0.1338993984383487
5.139692,10.932560491044644,0.1337609446118368
5.142075999999999,10.916549372646914,0.1336914648277607
5.144456,10.903936155406338,0.133629026039245
5.146851999999999,10.902449703054858,0.133506883102305
5.149236,10.909390962569622,0.1332947134125527
5.151615999999999,10.915680595778332,0.1330806603859965
5.154007999999999,10.925043264920095,0.1328361921088161
5.156395999999999,10.934638251487335,0.1326081771120396
5.158771999999999,10.95624584253308,0.132265595570927
5.161168,10.978040425033926,0.1318938027554119
5.163556,11.000673625295931,0.1314943400342482
5.165932,11.02260797742364,0.1311217188828141
5.168327999999999,11.04719605660382,0.1307336612459567
5.1707160000000005,11.07341414947808,0.1303150849176155
5.173095999999999,11.09702573712811,0.1298876435522806
5.175507999999999,11.118215915151142,0.129495423135218
5.1778960000000005,11.145225403958325,0.1290783931161014
5.180275999999999,11.175959555004615,0.1286348904304329
5.182668,11.202317417505736,0.1282181066096844
5.185055999999999,11.224950617767744,0.1278275913813166
5.187436,11.245534495455091,0.1274815638211238
5.189828,11.271425827247388,0.1271045557149464
5.192216,11.300157877547264,0.1266832967904831
5.194595999999999,11.31785571075666,0.1263375158901239
5.196987999999999,11.327545140980387,0.1260646100440219
5.199375999999999,11.338817363069952,0.1257888532116496
5.201756,11.347528405905658,0.1255496378540345
5.2041520000000006,11.356239448741366,0.1253100555244722
5.20654,11.362017225270876,0.1250961206947619
5.208919999999999,11.365885448852586,0.1249211321033315
5.211335999999999,11.366912953926724,0.1247909214412218
5.213723999999999,11.364076027134884,0.1246909584499867
5.216104,11.361099330716184,0.1245956986349541
5.21852,11.362778462096376,0.1244693956080034
5.220903999999999,11.365481306834964,0.1243578589803735
5.223284,11.366741129334574,0.1242453299641824
5.2257,11.36897933922221,0.1241018307314737
5.228083999999999,11.370426153176922,0.1239604740608329
5.230464,11.373595528624334,0.1238115373443073
5.2328600000000005,11.382631436684136,0.1236173693032877
5.235244,11.392226423251376,0.1234049959392237
5.237624,11.40089024425884,0.1231995764402143
5.2400400000000005,11.41085731787842,0.1230017045931799
5.242424,11.429484420789723,0.1227409778239647
5.244804,11.450905020380365,0.1224615971780112
5.247204,11.46967189291853,0.1221965426088809
5.249587999999999,11.49258273657639,0.1218954728347063
5.251984,11.52070848654058,0.1215492500025496
5.254379999999999,11.545621430944855,0.1212338759744391
5.256767999999999,11.572443928296932,0.1208829119443228
5.259148,11.60662320232862,0.1204668976112533
5.261543999999999,11.64387551229336,0.1200249425121992
5.2639320000000005,11.678194555951904,0.1196047871857212
5.266311999999999,11.706507297371198,0.1192349972895621
5.268704,11.733656555805236,0.1188552829904786
5.271092,11.761317670918476,0.1184832424981728
5.273472,11.785206901964354,0.1181600640564638
5.275867999999999,11.806023097077178,0.1178626565500272
5.278255999999999,11.828049997003504,0.1175526826536024
5.280635999999999,11.846212465063855,0.1172705366968392
5.283032,11.86809959536332,0.1169675487378589
5.28542,11.889195329729862,0.1166666767480502
5.287799999999999,11.901910574058402,0.1164152031926598
5.290215999999999,11.909830220961194,0.116195862531663
5.2926,11.916958471931062,0.1159776359078767
5.294979999999999,11.922084622154516,0.1157740416184455
5.297376,11.920832383086385,0.115604296417702
5.299764,11.9123631369655,0.11549395622926
5.302144,11.90696692677767,0.115358767551558
5.304539999999999,11.898869767709126,0.1152599544489526
5.306924,11.88462653677447,0.1152101306082622
5.309303999999999,11.868381205093398,0.1151749301778447
5.3117,11.85320680859896,0.1151301321329327
5.314088,11.836030311358108,0.1151003767795005
5.316468,11.820436605983094,0.115068159120361
5.318864,11.80405150467516,0.1150368792563384
5.321247999999999,11.788737338553863,0.1149960031261807
5.323627999999999,11.777427373925402,0.1149251776144265
5.326039999999999,11.760902502990607,0.1148977603970478
5.328427999999999,11.749312999108426,0.1148351149222842
5.330807999999999,11.73479022892005,0.1147921340478091
5.333219999999999,11.717846049104674,0.1147764884453862
5.335608000000001,11.706209323394248,0.1147380487665874
5.338004,11.699368195109576,0.1146691165818904
5.340396,11.697602203504374,0.1145616950727921
5.342784,11.699560874138283,0.1144335143487585
5.3451640000000005,11.707478625183208,0.1142861556102751
5.347564,11.71968011697468,0.1141011474156723
5.349952,11.732161148019877,0.1139084951234085
5.3523320000000005,11.746923819065204,0.1136931971896342
5.354735999999999,11.763828360483814,0.1134596126769877
5.357123999999999,11.7816640674622,0.1132210399069982
5.359503999999999,11.802572810373643,0.1129597195772958
5.361908,11.82683412847186,0.1126659117471876
5.364296,11.85058358989088,0.1123657149228186
5.366676,11.87540398649654,0.1120565633012385
5.369071999999999,11.899712526423002,0.1117401030098515
5.371459999999999,11.922158735229903,0.1114350130736873
5.373835999999999,11.947817749596728,0.1111017552981122
5.376239999999999,11.965468360977878,0.1108254641211923
5.378627999999999,11.982187806799253,0.1105542132857031
5.381008,12.000397496687846,0.1102605455758812
5.3834040000000005,12.021168365830295,0.1099378770094136
5.385788,12.039005968666553,0.1096355613706815
5.388168,12.04976633407692,0.1093846351370898
5.390564,12.062528800233704,0.1091212790376418
5.392951999999999,12.070123581912398,0.108874456293177
5.395332,12.075576493217817,0.1086457142009127
5.397739999999999,12.08317127489651,0.1084006453431913
5.400124,12.08811232952273,0.10816565992151
5.402504,12.091191053029394,0.1079402353073702
5.4049,12.09426977653606,0.1077149567655845
5.407287999999999,12.095206629669445,0.1075075983385678
5.409684,12.09572417392225,0.1073125677755707
5.41208,12.095682639667617,0.1071339166143184
5.414467999999999,12.099645306905812,0.1069299028931685
5.416848,12.10332843489029,0.106733843678238
5.419243999999999,12.107151332501626,0.1065339958875442
5.421631999999999,12.11297633085938,0.1063218543580555
5.424016,12.125226940336969,0.1060589511079218
5.426411999999999,12.137617319441414,0.1057918866678996
5.428796,12.15214956891914,0.1055085793180073
5.431175999999999,12.16067551615761,0.1052640563750499
5.433579999999999,12.16761867153025,0.1050201261396606
5.435967999999999,12.175772531716383,0.1047629151924957
5.438348,12.17712869373035,0.1045443174891267
5.4407440000000005,12.183420222796927,0.104296023614724
5.443132,12.191713852609924,0.1040353058091628
5.445511999999999,12.195723741676366,0.1038086504478373
5.4479120000000005,12.203318523355057,0.1035692235865654
5.450296,12.211844470593531,0.10332565517639
5.452679999999999,12.220649957085724,0.1030744461192653
5.455076,12.229595213204778,0.102819541568205
5.457464,12.24110164857769,0.1025373016506178
5.459847999999999,12.250885522457905,0.1022591347968195
5.462251999999999,12.253871698165952,0.1020186104236479
5.4646360000000005,12.256718104247138,0.1017817780141546
5.467015999999999,12.257422639955047,0.1015609797842848
5.46942,12.25612507491654,0.1013528542643054
5.471807999999999,12.253477035437673,0.1011612173701792
5.474188,12.25362249263814,0.1009577507463605
5.476588,12.253488410584886,0.1007626089417942
5.478975999999999,12.255216659651191,0.1005589908956143
5.481356,12.258527700583333,0.1003551189420222
5.48376,12.26649456931436,0.1001318484305711
5.486148,12.279536574724863,0.0998766974550828
5.4885280000000005,12.288434609015676,0.0996495211295652
5.490931999999999,12.298543348119988,0.099411689997119
5.493319999999999,12.309862792037794,0.0991623324480545
5.495699999999999,12.31838873927627,0.0989251209053923
5.498096,12.327985621701378,0.0986807934376745
5.500484,12.33744273449963,0.0984407432022352
5.502863999999999,12.343966580991683,0.0982156057118707
5.505267999999999,12.35035065785688,0.097995582192463
5.507652,12.361949641028406,0.0977422042127448
5.510036,12.374060480879134,0.0974957530574349
5.51244,12.389663665543496,0.0972196457053615
5.514823999999999,12.40820011651405,0.0969287796493599
5.517208,12.426736567484609,0.0966384551340906
5.519603999999999,12.442199982522109,0.0963668784434858
5.521991999999999,12.458082706440193,0.0960855250945409
5.524367999999999,12.472103099238716,0.0958118228179779
5.526771999999999,12.48733419685074,0.09552711350069
5.529159999999999,12.504707164836043,0.0952286919979919
5.53154,12.519566175395733,0.0949346915585732
5.533935999999999,12.533494020395642,0.0946450392911097
5.53632,12.555430268381215,0.0943145519848454
5.538703999999999,12.577086977113073,0.0939935699613231
5.541108,12.59753298103143,0.0936837365656843
5.5434920000000005,12.616768280136288,0.0933842923011751
5.545871999999999,12.633861708867869,0.0930995659575766
5.548276,12.65109490722631,0.0928116797499687
5.550663999999999,12.673263472637364,0.0924999988448177
5.553044,12.6922192324885,0.0922103370202126
5.555448,12.707962186779724,0.0919430951818196
5.557831999999999,12.729059817004138,0.0916418470872978
5.560212,12.751880008721251,0.0913406076173703
5.562604,12.777773236371416,0.0910248620314243
5.564992,12.800872967342247,0.0907182323332407
5.567371999999999,12.82732527349986,0.0903879972537274
5.569768,12.85042500447069,0.0900827539347006
5.572156,12.87366450506838,0.089774003919489
5.574539999999999,12.899837271972268,0.0894542886059806
5.576936,12.924287477383457,0.0891384849134526
5.579324,12.950600013914205,0.0888183744177411
5.581704,12.97705232007181,0.0884956367713499
5.584099999999999,12.993773661751051,0.0882140585811728
5.586487999999999,13.006258484511983,0.0879365008057247
5.588884,13.023027048019472,0.0876343235237623
5.591279999999999,13.043427725967454,0.0873027018244756
5.593667999999999,13.06359608648996,0.0869560349930779
5.596048,13.084835382199104,0.0866041630273681
5.598443999999999,13.104631655669271,0.0862487727916278
5.6008320000000005,13.124055842087104,0.0858817787599022
5.603211999999999,13.140034905519542,0.0855180685475112
5.605611999999999,13.15149791077995,0.0851654052472199
5.607996,13.15551159156213,0.0848345995563538
5.610379999999999,13.152215717492943,0.0845216832140226
5.612784,13.155065915289867,0.0841794552976603
5.615171999999999,13.15540215566118,0.0838381629846365
5.617552,13.152572812300816,0.0834918548540025
5.619952,13.152956274500369,0.0831280342463144
5.62234,13.14882367852789,0.0827738464935993
5.62472,13.142828751435855,0.0824243669884183
5.627115999999999,13.131898457291207,0.0820940230016432
5.6295,13.118966062400144,0.0817716448571512
5.631879999999999,13.109106703442135,0.0814339803499414
5.634283999999999,13.09975920116332,0.0811033816679861
5.636668,13.084545166272122,0.0807941938759695
5.639047999999999,13.06583878656728,0.0805092927320679
5.641456,13.050297990594116,0.0802287868877482
5.643839999999999,13.031823928314754,0.0799584320152864
5.646224,13.013861722714587,0.0796961407127465
5.648628,12.994129733793484,0.079456104289158
5.651012,12.976771932671134,0.0792188139002439
5.653392,12.95578201710829,0.0790082847170332
5.655787999999999,12.938097454903977,0.0787984594720872
5.658175999999999,12.924369872364256,0.078594291247093
5.66056,12.907289714637756,0.0784110222385758
5.662955999999999,12.88923116952324,0.0782516611937251
5.6653400000000005,12.87485006481959,0.0781051417353323
5.667719999999999,12.857628241608364,0.0779875305520031
5.670124,12.84357200212881,0.0778748891995421
5.6725080000000005,12.828816914514952,0.0777793924893447
5.674892,12.817646719513348,0.0776784605271744
5.677287999999999,12.80978187787028,0.0775792812043604
5.679675999999999,12.803220288839324,0.0774897243149877
5.682055999999999,12.800243592420625,0.0773950903347757
5.68446,12.7987099182409,0.0773064446637419
5.686848,12.801180445554008,0.0772023885547447
5.689228,12.800577936934063,0.0771117589418358
5.691632,12.800487284993316,0.0770293562294215
5.69402,12.79704405786579,0.0769671567170621
5.696399999999999,12.802680168910577,0.0768690808478993
5.698796,12.816184913314164,0.076745050942623
5.701184,12.84249365812917,0.0765782343155617
5.703564,12.8678712373844,0.0764136120846444
5.705959999999999,12.892457420706712,0.0762479509974975
5.708347999999999,12.915041503282607,0.0760898050225396
5.710728,12.942980261791694,0.0759051553399099
5.7131240000000005,12.97375973880836,0.0756934079667231
5.715512,13.001373632093356,0.0754753457906849
5.717903999999999,13.027404733512512,0.0752552602197172
5.720307999999999,13.057719575678224,0.0750141602424213
5.722695999999999,13.085380690791464,0.0747756792136677
5.725076,13.110667618105944,0.0745333288741039
5.727471999999999,13.131438487248394,0.0742966686662732
5.72986,13.149555629338373,0.0740628184617827
5.732239999999999,13.171165116241983,0.0738070608847971
5.734643999999999,13.19305414239932,0.0735462020456855
5.7370280000000005,13.215502247064087,0.0732718521457837
5.739407999999999,13.239580365422944,0.0729791463650706
5.741812,13.266219663035658,0.072665893794652
5.744199999999999,13.28634080172992,0.0723671882525003
5.74658,13.294868644826265,0.0721002856880815
5.748975999999999,13.294224601951685,0.0718485505280134
5.751363999999999,13.293999867957682,0.0715866306509019
5.753748,13.293542816538205,0.0713097534043
5.756143999999999,13.295227635492,0.0710227270650322
5.758531999999999,13.295189892953102,0.0707367673554813
5.760911999999999,13.29328981929465,0.0704546872447201
5.763311999999999,13.299118609368142,0.0701539707905808
5.765696,13.305226938695355,0.0698471363283131
5.768079999999999,13.31189434653001,0.0695286634326831
5.770476,13.322845495111222,0.0691918176865208
5.772864,13.338080384438983,0.0688375070845511
5.775243999999999,13.35988065451344,0.0684523274053643
5.777644,13.383031399028251,0.0680565694101626
5.780032,13.401107006863594,0.0676779326714402
5.782411999999999,13.413036542832824,0.0673204380108993
5.784815999999999,13.42789934510825,0.0669567420984059
5.787203999999999,13.441691212197036,0.0665981061647102
5.789584,13.455483079285822,0.0662401708331805
5.791988,13.467272845628194,0.0658875577857221
5.794371999999999,13.48334635271712,0.0655160180853827
5.796752,13.49914032055232,0.0651506305454857
5.799156,13.519869655440138,0.0647745226198314
5.801544,13.540319451074232,0.0644053546623733
5.803924,13.55997785077541,0.0640346406201147
5.806327999999999,13.575492279356892,0.0636783261468301
5.808716,13.589935772751735,0.0633268827313112
5.811095999999999,13.595439697601131,0.0629983834622633
5.8135,13.598522212823536,0.0626847504458032
5.815887999999999,13.600114483978718,0.0623860369859562
5.818268,13.598354179947124,0.0621036323139218
5.820663999999999,13.592310135168978,0.0618385090724243
5.823051999999999,13.583425371883251,0.0615978679364776
5.825436,13.573190134157167,0.0613674897835444
5.827831999999999,13.566819328297058,0.0611299657873603
5.830216,13.562730162437084,0.0608802479670843
5.832595999999999,13.555707730270916,0.060636695826134
5.834999999999999,13.548405758851027,0.0603991848471554
5.837387999999999,13.541895183364057,0.0601641876491143
5.839767999999999,13.53589646455628,0.0599370450827474
5.842164,13.53241170317412,0.059713956549748
5.844548,13.5287871721651,0.0594935107670366
5.846931999999999,13.516874698916697,0.0592983666332738
5.849328,13.503332211974207,0.0591192991392103
5.851711999999999,13.489510185778002,0.0589461796601097
5.854096,13.47755049070135,0.0587710061108086
5.856491999999999,13.46503171711726,0.0586081338900091
5.858879999999999,13.45931064170534,0.0584333931236707
5.86126,13.45773353741311,0.0582463508870119
5.863664,13.448008260508356,0.0580801552912235
5.866047999999999,13.436141113230322,0.0579212578441191
5.868432,13.42278372188507,0.0577753833450528
5.870828,13.410497265726455,0.0576256603406587
5.873215999999999,13.4000731406874,0.057474485827719
5.875596,13.386436210088426,0.0573346642966077
5.878,13.376104632847987,0.0572015397831211
5.880383999999999,13.366145142659882,0.0570802213135841
5.882768,13.358979149151114,0.0569570190355463
5.885168,13.34887988933615,0.0568387033940696
