Time,Force,Position
5.746059999999999,9.81048940383288,0.1573742351425063
5.748456,9.817611967229142,0.1573348895604347
5.750839999999999,9.836839682902523,0.1571650944356508
5.753236,9.859512521561298,0.1569681775302474
5.755631999999999,9.884280008765105,0.1567723089995081
5.758019999999999,9.915053798208165,0.1565035256014315
5.7604,9.956489717689363,0.1561064983730008
5.762804,9.993968657505974,0.1557347309167216
5.765187999999999,10.036662503628916,0.1552926534204121
5.767568,10.089925931991385,0.1547056332900084
5.769972,10.146541935540627,0.1540752901854712
5.77236,10.203437478343591,0.1534356065466948
5.774739999999999,10.262474891519831,0.1527696135553138
5.777136,10.313783440964126,0.1522000849361307
5.779523999999999,10.353870781862836,0.1517784939709967
5.781904,10.39889348981416,0.1513035059760048
5.784299999999999,10.457651363736682,0.1506650527181765
5.786687999999999,10.517992029525038,0.1500110892247261
5.789067999999999,10.575771516059534,0.1494123461928505
5.791467999999999,10.633411232967177,0.1488213768415642
5.793852,10.682949999090528,0.1483068112573249
5.796243999999999,10.724667353683325,0.14785404868677
5.79864,10.760285858238245,0.1474521522305324
5.801028,10.79529995831535,0.1470271207455808
5.803408,10.831199897981865,0.1465520505984818
5.805803999999999,10.862583779476344,0.1461194058607333
5.808188,10.887729041306098,0.1457362877388935
5.810584,10.917018274255543,0.1453078359306715
5.812988,10.951010556832127,0.1448194635328335
5.815376,10.97862445011712,0.1443889149319615
5.817756,10.995995522244552,0.1440478044483787
5.820159999999999,11.008990305826812,0.1437363752241577
5.822548,11.01677018310274,0.1434854641277199
5.824927999999999,11.028554261871504,0.1431938912712488
5.827331999999999,11.047323030267538,0.142807227832509
5.829719999999999,11.058782243812209,0.1424799068194692
5.8321,11.066237255864042,0.1421947632675172
5.834504,11.076765303848932,0.1418755794882672
5.836887999999999,11.08319660254237,0.1415771578615168
5.839268,11.089814892690914,0.1412484901904323
5.841672,11.09857505321273,0.1408933574062072
5.84406,11.107707300786888,0.1405471629529355
5.84644,11.11814280097316,0.1402045338012878
5.848852,11.127227826719071,0.1398872338694195
5.85124,11.126721657613484,0.139658707571766
5.85362,11.12249082626878,0.1394605949338569
5.856015999999999,11.124638384215665,0.1392124017593672
5.858403999999999,11.11970870473666,0.1390386897744376
5.860784,11.10546736965987,0.1389420429233658
5.863179999999999,11.089271155664914,0.1388387209106561
5.865564,11.076939373535922,0.1386994800002292
5.867947999999999,11.070426902191084,0.1385305128713612
5.870344,11.073692617152847,0.1382451711218388
5.872728,11.073420661330609,0.1379606444032117
5.875108,11.059413539537164,0.137804583935215
5.877512,11.0456387351692,0.1376645598333133
5.8799,11.031025313040075,0.1375536403279349
5.882279999999999,11.018693530911088,0.1374128883183436
5.884676,11.009342236916538,0.1372181439643771
5.887064,10.996358828481492,0.137074475411297
5.889444,10.983979824524262,0.1369589984380103
5.891847999999999,10.97797920985862,0.1367957479340938
5.894236,10.972305356274942,0.1365965753336834
5.896615999999999,10.960951961533974,0.1364205395895066
5.899028,10.951832984964902,0.1362406648863084
5.901412,10.95039565029953,0.1360174329605478
5.903795999999999,10.946397136380304,0.1358337103279538
5.906192,10.94188676578188,0.1356422715412321
5.908575999999999,10.935653833690756,0.1354605062067183
5.910956,10.932818802756788,0.1352849441799085
5.913367999999999,10.937385874472795,0.135076895466637
5.915755999999999,10.942232485442531,0.1348601207439558
5.91814,10.940281398240096,0.1347054996075191
5.920543999999999,10.938283089209415,0.134577243058253
5.922932,10.948250162828996,0.1343595774909995
5.925311999999999,10.967017035367162,0.13406357885959
5.927723999999999,10.990906266413042,0.1336917179962141
5.930112,11.012141770406448,0.1333388474551126
5.932491999999999,11.030536555892274,0.1330344201324167
5.934907999999999,11.057591370669826,0.1326594570969857
5.937292,11.089069695820791,0.1322356878517605
5.939676,11.119524307613364,0.1318009327642628
5.942087999999999,11.149419840898494,0.1313862420395436
5.944475999999999,11.18634538978127,0.1309327510934939
5.946872,11.228857932022718,0.1304407402451268
5.949264,11.267925351278771,0.1299698456253313
5.951652,11.305689517922708,0.1294930844266828
5.954031999999999,11.3470385771789,0.1289934926156371
5.956428,11.390761824233843,0.1284867979065538
5.958816,11.434252753863314,0.1279669306028485
5.961196,11.4691308760293,0.1274924802408092
5.963599999999999,11.500563875209895,0.1270364355338869
5.965984,11.53050663032327,0.1266055189492895
5.968364,11.558587054317089,0.1261881018394558
5.970764,11.584293290512148,0.1257801293069635
5.973147999999999,11.605203929281458,0.125412123083273
5.975544,11.623553388796912,0.1250812870425081
5.977939999999999,11.643625409805065,0.1247438888527973
5.980327999999999,11.667981171559765,0.1243651028274401
5.982708,11.679952241783631,0.1240765385243959
5.985112,11.686056779395106,0.1238349739400982
5.9875,11.688529202566087,0.1236386633193625
5.98988,11.691141395363926,0.1234380717211556
5.992276,11.688026825176236,0.1232789499478751
5.994663999999999,11.680675736070231,0.1231371064214547
5.997044,11.673324646964232,0.1229951981316161
5.999439999999999,11.669558450470484,0.1228337182422827
6.001827999999999,11.666351332484176,0.1226549437909958
6.004207999999999,11.665425854498006,0.1224515580553606
6.006607999999999,11.665012233191035,0.1222560056799249
6.008992,11.669114670056093,0.1220353100746308
6.011375999999999,11.67866433065296,0.1217848768249802
6.01378,11.687841904197493,0.1215223668046995
6.016168,11.69836995218238,0.1212410834742299
6.018548,11.70633682091341,0.1209934354457156
6.020943999999999,11.713232754457804,0.1207559515972447
6.023331999999999,11.72199101912175,0.1205076721745023
6.025716,11.730889053412564,0.120256465117927
6.028111999999999,11.7364345125166,0.1200403397182081
6.030499999999999,11.752502332031916,0.1197535448236519
6.03288,11.768570151547232,0.1194659088336054
6.035279999999999,11.786919611062686,0.1191537128355211
6.037664,11.80620023613792,0.1188368626276904
6.040048,11.824409926026512,0.1185285881045613
6.042452,11.84406263815408,0.11822275191139
6.04484,11.859711148788817,0.1179471900302077
6.047223999999999,11.875778968304132,0.1176605162861304
6.04962,11.894500514871924,0.1173639780096807
6.052003999999999,11.909078090320024,0.1171026316330464
6.054384,11.91792890278259,0.116878086909472
6.056779999999999,11.926779715245155,0.1166543251860092
6.059167999999999,11.929903764722193,0.1164678708878022
6.061547999999999,11.936612706811484,0.1162644372772444
6.063944,11.945044210393467,0.1160553003977816
6.066332,11.955897123602451,0.1158188924094069
6.068715999999999,11.968612367930994,0.1155721692057062
6.07112,11.97960505076684,0.1153326132814566
6.073503999999999,11.983520496176792,0.1151462881861147
6.075883999999999,11.989857351213743,0.1149332714856735
6.07828,11.991119069571226,0.1147594902180472
6.080668,11.993172183861626,0.1145843622575008
6.083063999999999,11.994945758898304,0.1144177147451423
6.08546,11.993506528375066,0.1142790718294356
6.087844,11.99700266490444,0.114106191065526
6.090224,11.99742576550076,0.1139570882799218
6.092619999999999,12.00371539870947,0.1137684619746056
6.095007999999999,12.005721291171623,0.1136174048112427
6.097388,12.00092948546161,0.113510729956453
6.099783999999999,12.001352586057928,0.1133620413658879
6.102172,12.010715255199692,0.1131515223582521
6.104551999999999,12.019006989154825,0.1129506601057602
6.106948,12.027019183856224,0.1127574636622115
6.109336,12.033029277811217,0.1125790545382984
6.111731999999999,12.038247975833285,0.1124022512225345
6.114128,12.04025386829544,0.1122527188098246
6.116511999999999,12.042259760757595,0.1121035295489517
6.118896,12.042123782846474,0.1119722715489831
6.121296,12.047994107174604,0.1117986230476063
6.123684,12.050791395569677,0.1116484022532723
6.126064,12.058803590271085,0.1114580178758342
6.12846,12.069237194599488,0.1112418541620174
6.130843999999999,12.079298711875552,0.1110142685387664
6.133228,12.092852573965256,0.1107518461054036
6.135623999999999,12.107756910495317,0.1104744171558341
6.138008,12.126293361465873,0.1101585993054177
6.140403999999999,12.142036315757094,0.1098577844194108
6.1428,12.160992075608233,0.1095308644569045
6.145188,12.182089705832643,0.109185719497734
6.147571999999999,12.197320803444672,0.1088775876481674
6.149968,12.20282093657833,0.1086286017838363
6.152352,12.207809213032794,0.1083721980576531
6.154732,12.215498438367977,0.1080821046390356
6.157136,12.220533936650682,0.1078013331559835
6.159524,12.221844772694274,0.1075388745130235
6.1619,12.226647953551504,0.1072424386432735
6.164295999999999,12.226283449930644,0.1069606663383986
6.166683999999999,12.229271521496557,0.1066489236411612
6.16908,12.233470297875972,0.1063256949644398
6.171475999999999,12.233804642389412,0.1060233556838981
6.173863999999999,12.226270353544049,0.1057695259709717
6.176244,12.220738165445097,0.1055034915726238
6.178639999999999,12.215997373279068,0.1052369889771506
6.181027999999999,12.2084630844337,0.1049836176592386
6.183412,12.19599342853572,0.1047601982078996
6.185807999999999,12.180450736704689,0.1045574501350209
6.188195999999999,12.165047814500516,0.1043503071454071
6.190575999999999,12.147782561176786,0.1041515037456467
6.19298,12.131308703785974,0.1039521050712863
6.195367999999999,12.116697177514716,0.103743613002265
6.197748,12.109162888669353,0.103488808013279
6.200143999999999,12.103351161316676,0.1032295898459762
6.202531999999999,12.098191060270064,0.1029744368797111
6.204911999999999,12.099037261462705,0.1026825649485089
6.207308,12.102257650454096,0.102389670159851
6.209696,12.105198500191769,0.1021056103171761
6.212075999999999,12.115448904780806,0.1017927181902085
6.214476,12.12290581269051,0.1014924309020194
6.21686,12.125287583920738,0.1012243733152892
6.219243999999999,12.135398218882925,0.1009159347581732
6.22164,12.148581889778155,0.1005864806623848
6.224028,12.155759258434134,0.1002937211741593
6.226408,12.161725922276618,0.1000129687581709
6.228808,12.171929105037414,0.0997248120650765
6.231196,12.182644144477406,0.099444116649473
6.233588,12.197083846156511,0.0991481834621094
6.235995999999999,12.214317044514951,0.0988414327272277
6.23838,12.231550242873396,0.0985348294572996
6.240764,12.247992045298918,0.0982285166590724
6.243159999999999,12.266575718097718,0.0979073528801726
6.245548,12.280735880523103,0.0976217686427217
6.247927999999999,12.291823007015436,0.0973556539244476
6.250324,12.302910133507766,0.0970905384721462
6.252712,12.309573749626685,0.0968607353993356
6.255092,12.317727609812817,0.0966121773834566
6.257488,12.323879369252538,0.096375239217524
6.259875999999999,12.32709786238606,0.0961540018616727
6.262256,12.33297008257206,0.0959259033623203
6.264651999999999,12.34391743943753,0.0956683599404653
6.267039999999999,12.34913803331747,0.0954365768099536
6.269424,12.359293994250018,0.0951804815238649
6.271828,12.372383221488766,0.0949097400453894
6.274216,12.386683153541014,0.0946280142236072
6.276595999999999,12.396746566674947,0.0943530217460299
6.278992,12.408160454249243,0.0940631773898423
6.281375999999999,12.416641075517344,0.0937881923810346
6.28376,12.423259365665883,0.0935209301364382
6.286155999999999,12.429458346933847,0.0932648767998835
6.288543999999999,12.43924222081406,0.0929998922930246
6.290924,12.445813289134358,0.0927564961841619
6.293319999999999,12.455876702268291,0.0924843339683582
6.295708,12.469013151335284,0.092194792844286
6.298104,12.481078665215636,0.0919130697449162
6.300499999999999,12.495705358349843,0.0916064609106429
6.302884,12.50819018111078,0.0913144836524422
6.305264,12.521606169431488,0.0910194466661541
6.307667999999999,12.53423076181928,0.0907241292292436
6.310056,12.547646750139991,0.090430620633341
6.312435999999999,12.559852033647203,0.0901490249607952
6.314832,12.576713144953306,0.0898519701872787
6.31722,12.585286314020024,0.0896025425301357
6.3196,12.595442274952577,0.0893550957973417
6.322003999999999,12.605458466258272,0.0891117465913257
6.324391999999999,12.61677791017608,0.0888770306034328
6.326771999999999,12.624884548533974,0.0886622491597829
6.329176,12.63471374838456,0.0884453500575649
6.331563999999999,12.641330142675232,0.0882483529861953
6.333944,12.651159342525824,0.0880316154280449
6.336339999999999,12.657263880137297,0.0878274742738205
6.338724,12.66523074886833,0.0876172153888222
6.341107999999999,12.67464063983834,0.0874132151476873
6.343512,12.684841926741264,0.0872108341777072
6.345895999999999,12.698395788830965,0.0869863627943238
6.348275999999999,12.71059917648031,0.0867763630385606
6.350672,12.724944434502929,0.0865539788277923
6.353063999999999,12.739289692525547,0.0863319843747927
6.355443999999999,12.753215641667587,0.0861207857838003
6.35784,12.763277158943652,0.0859245602862339
6.360228,12.770545179540385,0.0857367099338341
6.362607999999999,12.777021804204198,0.0855487178090351
6.365007999999999,12.788573565547484,0.0853359868534747
6.367396,12.797611369465152,0.0851246643625724
6.369775999999999,12.8087910437561,0.0849015705751283
6.372179999999999,12.816525595061654,0.0846814475504136
6.374567999999999,12.833619023793236,0.0844135146401317
6.376948,12.846056624725923,0.0841583703969918
6.379343999999999,12.865711232711364,0.0838677188081745
6.381731999999999,12.882572344017468,0.0835857617751205
6.384111999999999,12.898502289763794,0.0833061331972521
6.386511999999999,12.915503170696754,0.0830209875454089
6.388899999999999,12.92584612308441,0.0827573945599756
6.391279999999999,12.932464413232951,0.0825042628642566
6.393676,12.93023568263467,0.0823067078570683
6.396064,12.926936016849744,0.0821151608659911
6.398443999999999,12.92228587662446,0.0819369670276924
6.400844,12.91656480121254,0.081764712238495
6.403228,12.918200502480223,0.0815548113082702
6.405611999999999,12.9257027363603,0.0813238521903432
6.408015999999999,12.935207070986795,0.0810845231825794
6.4104,12.944431866359569,0.0808529018757066
6.412779999999999,12.95286526579942,0.0806206678788003
6.415188,12.964743788224672,0.0803867281985991
6.417576,12.97205903064964,0.0801832410094703
6.419956,12.98668382792598,0.0799649685452922
6.422351999999999,12.991670208522573,0.0797994423804319
6.424739999999999,13.002383352104694,0.0796167093607833
6.427124,13.010535316432955,0.0794569274807682
6.429519999999999,13.01933890706728,0.0793019277520931
6.431907999999999,13.033589721433412,0.0791376023855436
6.434288,13.046909370239764,0.0789759288269031
6.436692,13.062882746098593,0.0788105981751242
6.439075999999999,13.081649618636758,0.0786389436018011
6.44146,13.108052807108251,0.0784240596746782
6.443855999999999,13.134595765206605,0.0782057913786027
6.446239999999999,13.162069888864735,0.0779859295358891
6.448624,13.190614947709507,0.0777607420357116
6.451028,13.21101183394175,0.0775713586553327
6.453411999999999,13.22875499312152,0.0773862852220783
6.455796,13.245007908234072,0.0772170181407456
6.458192,13.259678031480783,0.077045408729269
6.460579999999999,13.274208385100644,0.076877589461084
6.46296,13.279147543868993,0.0767365306051253
6.465364,13.290000457077978,0.0765550832497738
6.467752,13.29689639062237,0.0763674975757898
6.470131999999999,13.3084953737939,0.0761481849634945
6.472528,13.32037389621915,0.0759232343238202
6.474916,13.325362172673612,0.0756999455831038
6.477296,13.330769758008657,0.0754667945621817
6.479696,13.33194082442539,0.0752338380863228
6.482079999999999,13.33418282602876,0.0749960088380046
6.484464,13.340708568378684,0.0747378996703043
6.486859999999999,13.344301044422416,0.0744887037298196
6.489244,13.344820484533091,0.0742521066054414
6.491628,13.34827319094996,0.0740071180727905
6.494023999999999,13.349072170314354,0.0737641832626716
6.496412,13.349871149678748,0.0735214125467308
6.498796,13.34973896348336,0.0732796804616278
6.501191999999999,13.34238977023523,0.073066387200185
6.503576,13.337741525867813,0.0728295775033469
6.505971999999999,13.333093281500398,0.072592554449454
6.508368,13.328445037132983,0.0723556108770019
6.510756,13.333807296497652,0.0720840790349506
6.513136,13.333535340675407,0.0718449627524515
6.515531999999999,13.336428968584835,0.0716129758515587
6.517919999999999,13.335830251680632,0.0714026033829016
6.5203,13.331878959589648,0.0712106646687047
6.522704,13.33588884865609,0.0710136238653946
6.525092,13.33854826328217,0.0708281985238438
6.527475999999999,13.340928138654531,0.0706493301023037
6.529872,13.33944358216092,0.0704800535819332
6.53226,13.33088178824142,0.0703350152947192
6.534643999999999,13.325393030254975,0.0701785458268164
6.53704,13.322977308201583,0.0700109784349142
6.539428,13.317628319842,0.0698514684715263
6.541807999999999,13.313210497042192,0.0696901477568785
6.544208,13.309072213496108,0.0695223029991053
6.546596,13.308798361815995,0.0693450270841952
6.548975999999999,13.315461977934913,0.0691468413327339
6.551372,13.31956441479997,0.0689683349572897
6.55376,13.325249643530864,0.0687936572370543
6.556143999999999,13.333216512261895,0.0686068207983244
6.55854,13.338389884313594,0.0684250053465792
6.560932,13.345984665992288,0.0682272676714447
6.563311999999999,13.348923619872089,0.0680368009038177
6.565715999999999,13.35321304819225,0.0678349056851135
6.5681,13.36020342539313,0.0676110182432518
6.570479999999999,13.364679845168396,0.0673853672948242
6.572883999999999,13.373440005690217,0.067142128996801
6.575271999999999,13.383131331771814,0.0668976930988242
6.577652,13.39882896009266,0.0666363402858253
6.580051999999999,13.422814530652898,0.066346068396896
6.582439999999999,13.44600870528022,0.0660548296229668
6.58482,13.4664093832282,0.0657683091411093
6.587224,13.49016263636296,0.0654664215145602
6.589607999999999,13.514335198378298,0.0651552734716973
6.591988,13.541720565953552,0.064833018443276
6.594392,13.56780268091669,0.0645012702052713
6.59678,13.593512708827491,0.0641591466716733
6.59916,13.620061354499455,0.0637982813974786
6.601556,13.64865932274608,0.0634131395838208
6.603943999999999,13.673672398380448,0.0630302961982322
6.606319999999999,13.699104782895398,0.0626393036014248
6.608724,13.727610203343406,0.0622412143045755
6.611111999999999,13.759747738231908,0.0618225986765325
6.613492,13.79230458200099,0.0613953026579879
6.615887999999999,13.821928159463877,0.0609749867057247
6.618275999999999,13.851179649874428,0.0605441386027884
6.620655999999999,13.873633442112808,0.0601261457168348
6.62306,13.893713046552438,0.0597012734747589
6.625443999999999,13.908997053566312,0.0592847298854669
6.627824,13.914550096101824,0.0588853949367189
6.630228,13.917309641958,0.0584880154826206
6.632616,13.921140123000814,0.0580870734415192
6.634999999999999,13.919755697737296,0.0577021687790266
6.637396,13.91716056766028,0.0573236778183287
6.639779999999999,13.906137725717016,0.056971801037473
6.642164,13.893624639706532,0.0566322728550823
6.644564,13.881902949628968,0.0562955014409296
6.646952,13.87176405141724,0.0559637573457584
6.649332,13.854500693951378,0.0556687046947213
6.651732,13.838540589097631,0.0553842882074274
6.654115999999999,13.81987953536317,0.0551188018965746
6.6565,13.79321007864304,0.0548691160383906
6.658903999999999,13.761558033042055,0.0546482098550961
6.661288,13.73428227598624,0.0544308847884892
6.663668,13.709660245982898,0.0542146997815042
6.666071999999999,13.684199598218395,0.0540160802137857
6.668459999999999,13.664465713439425,0.053811409164963
6.670839999999999,13.64617485089943,0.0536143039336417
6.673244,13.62960654985213,0.053419036674172
6.675631999999999,13.623281069962395,0.0532195467152249
6.678012,13.618258842684774,0.0530309740719342
6.680407999999999,13.611466832086212,0.0528608252108415
6.682795999999999,13.607468318166989,0.0526893657472894
6.685175999999999,13.606123531300236,0.0525199369951088
6.687572,13.610785046672737,0.0523391856522661
6.689956,13.615306792418371,0.0521611197834365
