Time,Force,Position
4.844403999999999,9.593594554430489,0.1592008362367951
4.846807999999999,9.603557836334328,0.1591058581852697
4.849192,9.621295307940493,0.1589716680959422
4.851576,9.645503716636862,0.158791483409825
4.853972000000001,9.686799866491205,0.1583853240431437
4.8563600000000005,9.74811702380971,0.1577205935039192
4.858739999999999,9.816930727434688,0.1569454282650365
4.861136,9.884860487328131,0.1561526149636168
4.863524,9.94059254714584,0.1554695021704706
4.8659040000000005,9.993391340657352,0.1548216826283559
4.868307999999999,10.03860104006378,0.1542644029125095
4.870692,10.076733502044316,0.1538042491686648
4.873075999999999,10.11588967738325,0.1533620793159854
4.87548,10.161377020185528,0.1528813073296712
4.877864000000001,10.212032047465897,0.1523602283844741
4.880243999999999,10.267342902545154,0.1517973637534596
4.88264,10.325307484676888,0.151222335084118
4.885028,10.382340901248842,0.1506638584748494
4.887408000000001,10.436767812596564,0.1500985207141913
4.889811999999999,10.4872377442797,0.1495591733838466
4.892199999999999,10.52876810741738,0.1491387279173869
4.89458,10.557401922345033,0.1488446538017807
4.896984,10.59008716059376,0.1484775844343303
4.899372,10.625473347723208,0.148057703021082
4.901752,10.652431822986404,0.1477498362027127
4.904147999999999,10.670310960077297,0.1475530778601821
4.906535999999999,10.68669985310097,0.1473876283999268
4.908916,10.698245926870646,0.1472961343287449
4.911315999999999,10.712538275491417,0.1472040957374369
4.913703999999999,10.732836926351435,0.1470447450568525
4.916084,10.759281649077565,0.146813480494436
4.918483999999999,10.789078946990472,0.1465361924757594
4.954324,10.708182841382808,0.1463772872855258
4.956712,10.700178230112876,0.1463128660122848
4.959092,10.695665963656586,0.1461975436041001
4.961487999999999,10.6871967175357,0.1460993983595485
4.963875999999999,10.678123066937005,0.1459726361038159
4.966256,10.662671027046716,0.1458981154602286
4.9686520000000005,10.659184369806686,0.145720297347405
4.97104,10.65593002999214,0.1455595112792453
4.973424,10.654538021297144,0.1453823498391916
4.975820000000001,10.656498587788924,0.1451611278431428
4.978208,10.65766775834779,0.1449421605313886
4.980604,10.663864843757882,0.1446914984173232
4.9830000000000005,10.679281036967142,0.1443352807723803
4.985388,10.695163760885224,0.1439392404616341
4.987767999999999,10.71258395069877,0.1434892079716695
4.990164,10.728980427153918,0.1430249547415304
4.992552,10.744957594728488,0.1425731374590578
4.994932,10.768571078236388,0.1420280528008704
4.997335999999999,10.793302718759168,0.1414497539329164
4.9997240000000005,10.814729005923414,0.1408892069984567
5.002103999999999,10.831964100139723,0.1404023779965506
5.0045,10.851665929953404,0.1399303022368702
5.006888,10.875092422006198,0.1394296744271259
5.0092680000000005,10.900009158126212,0.138904811195772
5.011664,10.917708887193475,0.1384599879412506
5.014052,10.939365595925333,0.1379984149652135
5.016436000000001,10.95888043428391,0.1375637777497561
5.018832,10.979792968911092,0.1370818513582468
5.02122,10.996096897567622,0.1366115590786655
5.0236,11.005603128051984,0.1362052488549245
5.025995999999999,11.018786798947216,0.1357945802813059
5.028383999999999,11.039978872828115,0.1353064566883802
5.03078,11.057213967044426,0.1348354960647131
5.033175999999999,11.07137602532768,0.1343980709614874
5.03556,11.083069452155693,0.1340215396560119
5.037939999999999,11.09722961458108,0.1336591100387985
5.0403400000000005,11.118327244805492,0.1332321780222954
5.042728,11.12969391055154,0.1328945098475593
5.045107999999999,11.133564029991122,0.1326409515648238
5.047504,11.139389028348878,0.1323942255501398
5.049892,11.14707635782619,0.1321323481110209
5.052272,11.154299052452544,0.1318387179750892
5.054663999999999,11.156214292973951,0.1315787092843389
5.0570520000000005,11.153054396815886,0.1313678636353056
5.059452,11.153199854016352,0.1311426308326124
5.061848,11.160422548642709,0.1308513265782001
5.0642320000000005,11.168995717709423,0.1305397067494059
5.066616,11.17486793789542,0.1302704215875516
5.06902,11.19028413110468,0.1299512185386274
5.071403999999999,11.210588469538308,0.1296144542579267
5.073784,11.231312116852518,0.1292649373122984
5.076179999999999,11.240582238195666,0.129005947855702
5.078568000000001,11.249013741777652,0.1287752698747674
5.080952,11.259959202785254,0.1285345564957668
5.083344,11.272255138233216,0.1282733335605153
5.085732,11.283108051442198,0.128011745759769
5.088115999999999,11.287303036105868,0.1278014467035492
5.090508,11.294011978195162,0.1275801814492134
5.092896,11.3067272225237,0.1273059714001708
5.095276,11.32065317166574,0.1270166703657497
5.097676,11.337791926367698,0.12669486308247
5.100064,11.349948092188798,0.1264403686081103
5.102459999999999,11.367551481741703,0.1261529012242985
5.104856,11.390741864653284,0.1258275470076812
5.107244,11.415282722005225,0.1254831975354714
5.109624,11.429813075625075,0.1252265208120925
5.112024,11.445134825177847,0.1249695740077476
5.114412,11.462598445103898,0.1246914459538245
5.116792,11.470890179059026,0.1244725826016519
5.119187999999999,11.478949595588674,0.1242384664089612
5.121575999999999,11.48807994730496,0.1239949275856957
5.123956,11.50880359461917,0.1236658381791883
5.126351999999999,11.526733745254043,0.1233541045264981
5.1287400000000005,11.545083204769496,0.1230312005947238
5.131124,11.565294995404509,0.1226977236291838
5.133519999999999,11.588020743465131,0.122356075318454
5.135908000000001,11.616613024138148,0.121970867460684
5.138292,11.645345074438026,0.1215817226559307
5.140687999999999,11.669001988058428,0.1212363619008618
5.143076000000001,11.688514930559135,0.1209272974031458
5.145455999999999,11.707608564179267,0.1206332718767549
5.147855999999999,11.730985938545947,0.1202979697494189
5.150243999999999,11.750359111419796,0.119996524608324
5.152623999999999,11.764517377987314,0.1197418050904565
5.15502,11.780258436420665,0.1194859287649269
5.157404,11.803868128212828,0.119171873589329
5.159800000000001,11.824404784071929,0.1188842889709001
5.162196,11.845593066237097,0.1186010969621401
5.164579999999999,11.872228572134068,0.1182891651349023
5.16696,11.900167330643152,0.1179855231685296
5.1693560000000005,11.925824449152104,0.1177070842136248
5.171744,11.947197826914502,0.1174705739884208
5.17414,11.973087262848932,0.1172110489167156
5.1765360000000005,11.991619922103748,0.1170144003129022
5.17892,12.00908164617193,0.1168284900997769
5.1813,12.02603151356091,0.1166363895805476
5.1837040000000005,12.041770676136396,0.1164594986382507
5.186092,12.060582874644933,0.1162596997723062
5.188471999999999,12.081397173899887,0.1160450848087178
5.190868,12.110499415394234,0.1157651477015327
5.193256,12.140952131328934,0.1154700356358727
5.195636,12.17126507763678,0.1151804269593675
5.198032,12.200507088757982,0.1148998275433167
5.200416000000001,12.2341726102526,0.1145786663953866
5.202812,12.265975800627665,0.1142697367429314
5.205207999999999,12.292052228017194,0.1139964037567122
5.207596000000001,12.32120169133978,0.113700732371029
5.209975999999999,12.34862859316967,0.113411995576516
5.21238,12.372330832760449,0.1131441382113572
5.214767999999999,12.392587949365833,0.1128888232266007
5.217148,12.412984835598078,0.1126297529499432
5.219543999999999,12.42979682921807,0.1123864452025782
5.221931999999999,12.447167901345502,0.1121283810825709
5.224311999999999,12.4725473764586,0.1118151097511014
5.226708,12.496064520452144,0.1115119729919332
5.229092,12.519162355565106,0.1112220546754128
5.231475999999999,12.5354624925059,0.1109731440464631
5.233867999999999,12.54775842795386,0.1107523156274724
5.236255999999999,12.561265068215317,0.1105193494221858
5.238652,12.567414931797163,0.1103442526369635
5.241047999999999,12.568769197953262,0.1101968859104457
5.243435999999999,12.57040300336308,0.1100419576572588
5.245816,12.574086131347558,0.1098508454499656
5.2482120000000005,12.574975762652702,0.1096738810669268
5.2506,12.569207465412536,0.1095324630104698
5.252979999999999,12.566651973732284,0.1093653332590068
5.255376,12.558649258320226,0.1092215174267407
5.257759999999999,12.551205621415608,0.1090618327249398
5.260144,12.545112458951348,0.1088856528944008
5.262535999999999,12.537156965367531,0.1087181022913384
5.264924000000001,12.525616579171462,0.1085643355383742
5.26732,12.516218063348669,0.1083933066508454
5.269715999999999,12.50616792121982,0.108219038788424
5.2721,12.491601720918936,0.1080630835514248
5.274483999999999,12.479456930245052,0.1078823409817716
5.27688,12.464146555839497,0.1077032338459029
5.279264,12.45526179255377,0.1074734890697032
5.281648000000001,12.441721201469154,0.1072650072222157
5.284044,12.422174308145287,0.1070946657529989
5.286432,12.405048824448418,0.1068992216650698
5.2888280000000005,12.385921240005128,0.1067160534015744
5.291224,12.364000158882506,0.1065458703793826
5.293612,12.338958819998586,0.1064200162105598
5.295992,12.315640042607363,0.1062888239739048
5.298387999999999,12.301400603388444,0.1060974440237641
5.300775999999999,12.285019293796251,0.1059226110157877
5.30316,12.275156143122503,0.1057168361121645
5.305555999999999,12.26180064763512,0.1055436315108323
5.30794,12.24509257696096,0.1053990657356922
5.310324,12.22931567184658,0.1052496426188162
5.3127200000000006,12.218194594531091,0.1050779542091015
5.315108,12.2070735172156,0.1049061321291755
5.317487999999999,12.192739634340198,0.1047590058434372
5.319884,12.181990644077043,0.1045984554232272
5.322272,12.168540704933172,0.1044702219679376
5.324664,12.160537989521115,0.1043202135349695
5.32706,12.153186900415111,0.1041740804209673
5.329447999999999,12.155427006160616,0.1039779717729044
5.331832,12.165675514891786,0.1037324754796481
5.334228,12.175924023622954,0.1034874653722844
5.336612000000001,12.19297023052629,0.103205722289077
5.338996,12.211599229295468,0.1029235801961055
5.341391999999999,12.232929176945358,0.1026092826355315
5.343776,12.251605397542775,0.1023038109401062
5.346171999999999,12.266929042953416,0.1020278978574938
5.348568,12.284254789110474,0.1017405323060403
5.350956,12.2975763337747,0.1014781057857746
5.3533360000000005,12.315041849558618,0.1011877897002852
5.355732,12.33851366758179,0.1008622283654047
5.358115999999999,12.365849917470928,0.1005176497589504
5.360496,12.392534541054015,0.100170569993277
5.3629,12.41707729426382,0.0998391903326326
5.365288,12.44241144340655,0.0995073708073457
5.367668,12.4650918654968,0.0991845154131381
5.370072,12.488331366094489,0.0988458858062365
5.37246,12.507706434826208,0.0985280223340689
5.374839999999999,12.524939633184651,0.0982267293701452
5.3772400000000005,12.53830839967712,0.0979461336811645
5.379624,12.549535295796309,0.0976822327388898
5.382007999999999,12.563695458221694,0.0974047220275295
5.384404,12.571057922474912,0.0971607231483246
5.386792,12.577768760422073,0.0969128615243075
5.389172,12.584339828742372,0.0966692298667908
5.391568,12.589420652995452,0.0964436721486125
5.393955999999999,12.594781016502251,0.0962107452529889
5.396336,12.595997408889358,0.096003536720063
5.398731999999999,12.598704045343684,0.0957775718917331
5.401120000000001,12.60033974661137,0.0955593780987688
5.403516,12.598530324893664,0.0953483383799311
5.405911999999999,12.59378763686976,0.0951518311396457
5.4083000000000006,12.589836344778778,0.0949558246787276
5.410679999999999,12.587095757501292,0.0947484874786763
5.413084,12.586636810223949,0.0945231041144821
5.415468000000001,12.586038093319742,0.0943013155902659
5.417852,12.587441477161953,0.0940691884252506
5.420247999999999,12.58763415619066,0.0938475702650919
5.422632,12.589177309659732,0.0936116718056169
5.425015999999999,12.589789297569023,0.0933791367513177
5.42742,12.5896098895454,0.0931465590423455
5.429808,12.58407580558858,0.0929494813347394
5.432184,12.580543822378178,0.092741252633694
5.434583999999999,12.579665566220251,0.092527106055228
5.436968,12.580509871555018,0.0923106135864617
5.439352,12.584706752076563,0.0920690114803886
5.441756,12.588624093344386,0.0918350977248302
5.444144,12.597616571291685,0.0915738131765766
5.44652,12.609914402597514,0.0913122272597152
5.448924,12.622072464276483,0.0910546678088068
5.451312,12.633531677821152,0.0908156309243865
5.453695999999999,12.649786488791571,0.0905582721209756
5.456092,12.66562199088141,0.0903127809989935
5.45848,12.688115421516558,0.0900439450964439
5.46086,12.710329312897985,0.0897836427023278
5.463256,12.737618340958884,0.0894990430428558
5.465643999999999,12.762625729019648,0.089232009728186
5.468024,12.790194296334269,0.0889411336160911
5.470424,12.81562099327561,0.0886642367025098
5.472808000000001,12.841327229470672,0.0883804014794408
5.475192,12.86503136491932,0.088106192838633
5.477587999999999,12.890505283688906,0.0878071749905687
5.479976000000001,12.921845735070882,0.0874850792172699
5.482355999999999,12.95160339458702,0.0871630560974061
5.484752,12.979918031864184,0.0868375439420093
5.48714,13.01451851063432,0.0864809765651815
5.489520000000001,13.049817837538756,0.0861078416020023
5.49192,13.083534372577358,0.0857350452953029
5.494304,13.110872518324369,0.0853786167054454
5.496687999999999,13.14012021701918,0.0849964645619046
5.499084,13.173139799781348,0.0845833384446251
5.501472,13.19898959731901,0.0841851184055315
5.503867999999999,13.223955451125136,0.0837685284020576
5.506264,13.23839894451998,0.0833878358665865
5.508652,13.25032848048921,0.083008002793421
5.511032,13.254389383099635,0.0826589947332437
5.513427999999999,13.259800760150418,0.0822972000344486
5.515812,13.267865864253674,0.0819329915895769
5.518196,13.27635027723751,0.0815584143308183
5.5206,13.285626086154268,0.0811851880279407
5.522983999999999,13.298906096563858,0.0807961574206743
5.525368,13.313768898839282,0.0804100973737834
5.527764,13.324627499621872,0.0800418800743293
5.530151999999999,13.33306469077747,0.0796917663303545
5.532532,13.339871868238983,0.0793611676707418
5.534927999999999,13.33718039864761,0.0790791249011503
5.537316000000001,13.33178798017552,0.0788217252709431
5.539695999999999,13.325836483195983,0.0785780210421721
5.542092,13.318394742149234,0.0783490849715339
5.54448,13.306761808154544,0.0781606943621354
5.546875999999999,13.287213018972803,0.0780212888859211
5.549272,13.272552375015437,0.0778855713192675
5.55166,13.25970684034938,0.0777671258060702
5.5540400000000005,13.250585967922436,0.0776396081048235
5.55644,13.244910218480886,0.0775103404975082
5.558824,13.24281936165159,0.0773756699163013
5.561208000000001,13.241240361501488,0.0772492804538397
5.563604,13.2325841239255,0.0771511030113448
5.565992,13.22416020377499,0.0770677411661311
5.568372,13.216248140303676,0.0769925018957004
5.570767999999999,13.204983501645586,0.0769369108456249
5.573155999999999,13.19050605742758,0.0768974398180383
5.575536,13.176028613209574,0.0768577715888536
5.577932000000001,13.16662630567104,0.0767978219529447
5.58032,13.160436803692424,0.0767217469587043
5.582704,13.157180568020005,0.0766361924823951
5.585100000000001,13.154995267534222,0.0765451064975369
5.5874880000000005,13.15280996704844,0.0764540366287787
5.589884,13.155979342495856,0.0763360322255598
5.592280000000001,13.161430357943402,0.0762037558351001
5.594668,13.174377919697424,0.0760336691117126
5.597047999999999,13.186813624772244,0.0758560479001359
5.599444,13.197946077234946,0.0756693693575942
5.601832,13.21000969525743,0.0754809138323806
5.604215999999999,13.220071212533496,0.0753001761370301
5.606612,13.232414369809698,0.0751062084115449
5.608995999999999,13.243174735220066,0.0749095679135576
5.6113800000000005,13.26208327324296,0.074681764485234
5.613776,13.280340184959798,0.0744492041654872
5.616164,13.298364779251155,0.0742024388616718
5.618544,13.316948452049957,0.0739423407585838
5.620944,13.33502026816956,0.0736733323317029
5.623327999999999,13.350717896490409,0.0733996741775466
5.625712,13.36311017145272,0.073124214010754
5.628107999999999,13.372988488989424,0.072848097013051
5.630492,13.384636589847062,0.0725511014259837
5.632892,13.396703999585284,0.0722441236711777
5.635287999999999,13.408399322271167,0.0719258218384158
5.63768,13.418092544210635,0.071614693549539
5.64006,13.427553448724623,0.0712889449212622
5.64246,13.437154122865474,0.0709614876433582
5.644843999999999,13.442238738834291,0.0706384355858993
5.647228,13.445461023683556,0.0703184988410344
5.649628,13.450173552600036,0.0699845563255357
5.652011999999999,13.45372259853126,0.0696371967807037
5.654396,13.453546982223372,0.0692962371523666
5.656791999999999,13.45178857404965,0.0689510776352218
5.659184,13.443372237330616,0.0686198525043852
5.661567999999999,13.435375209492165,0.0682785276461424
5.663959999999999,13.426447016093936,0.0679385628528218
5.6663440000000005,13.41966069306898,0.0675895354474063
5.668723999999999,13.41608717560394,0.0672262398697528
5.671123999999999,13.416098550751157,0.0668607126969121
5.6735120000000006,13.412477811457878,0.0665176734405972
5.6758880000000005,13.40657543216446,0.0661862996059643
5.678291999999999,13.397040938430546,0.065878235498694
5.680680000000001,13.38857737988327,0.0655655683068864
5.6830560000000006,13.381044986895771,0.0652516119604852
5.685452,13.37565446428155,0.0649289320038354
5.687835999999999,13.371846733533166,0.0646106011948972
5.690232,13.36096176535889,0.0643128289245732
5.692627999999999,13.353661689796873,0.064012962305206
5.695012,13.347153010167771,0.0637147133621532
5.697391999999999,13.336081050538391,0.0634400103940989
5.699788,13.326452113147996,0.0631724695060478
5.702171999999999,13.317474802063654,0.062909812979071
5.704564,13.312873779524482,0.0626482234587021
5.706968,13.306922282544951,0.0623962462466206
5.709356,13.30055147668484,0.062153738701763
5.711736,13.29376136194415,0.0619206922349464
5.71414,13.282547736830043,0.0617075260420155
5.716528,13.271706198768277,0.0615063809194969
5.718907999999999,13.26272699182606,0.0613038426086113
5.7213080000000005,13.258962691190185,0.0610834182967804
5.723696,13.260273527233776,0.0608488059507427
5.726075999999999,13.262655298464008,0.0606097252156879
5.728472,13.265828465627155,0.0603734780951552
5.730855999999999,13.269653259096364,0.0601432541576087
5.733236,13.27333828293871,0.0599169000912805
5.73564,13.274090040474864,0.0596962626269164
5.738028,13.280708330623408,0.0594640308583281
5.740408,13.288257786331728,0.0592315093991695
5.742811999999999,13.293525602039908,0.0590096077352963
5.745196,13.30601042480084,0.0587669891650732
5.7475760000000005,13.316493146815356,0.0585290532800865
5.749979999999999,13.330048904762927,0.0582831982396192
5.752368000000001,13.338669295657889,0.0580473699391383
5.754747999999999,13.356089485471434,0.057796345007777
5.757147999999999,13.37872458159131,0.0575306281342804
5.759535999999999,13.401499447338049,0.057261940664724
5.761915999999999,13.426276413831204,0.0569884262047593
5.764312,13.452403854764714,0.0567062556121324
5.766696,13.472664763085836,0.056434706017004
5.769076,13.491063340287402,0.0561650736574426
5.77148,13.506109342302194,0.0559103592349878
5.773864,13.52329721469026,0.0556488192639326
5.776244,13.539274382264828,0.0553947363678026
5.7786480000000005,13.55324944909298,0.0551452159672832
5.781036,13.565874041480772,0.0549060520165953
5.783415999999999,13.582083526480815,0.054668435457344
5.785819999999999,13.597361845921084,0.0544319397290313
5.788207999999999,13.613711100547992,0.0541929636998699
5.790588,13.63406455666773,0.0539460173693097
5.792992,13.650413811294635,0.0537082340767408
5.79538,13.66969633222774,0.0534664695077465
5.79776,13.685905817227786,0.0532326463015905
5.8001640000000005,13.706119503720664,0.0529912944182914
5.802552,13.721537592787794,0.0527561685419903
5.804931999999999,13.73039030110823,0.0525449028092371
5.807324,13.739894635734728,0.0523394655355187
5.8097080000000005,13.75326340222719,0.0521303889516525
5.812092,13.761137723159608,0.0519409782574555
5.814487999999999,13.770594835957858,0.0517566670920406
5.816876000000001,13.782426136554864,0.0515809934619814
