Time,Force,Position
5.9369320000000005,9.568281953780277,0.1572134886729575
5.939311999999999,9.688332338869008,0.1567906795739749
5.941708,9.77719341734984,0.1565671233847026
5.944096,9.849624068552364,0.1563347805900374
5.963203999999999,9.838544525491509,0.1562916267498928
5.965588,9.841525013625947,0.1562284000884961
5.967964,9.860847172955816,0.1560071938695334
5.970371999999999,9.905310802399695,0.1555246190381548
5.972756,9.957036764866702,0.1549983686202206
5.975135999999999,9.993537317295292,0.1546657445721822
5.977539999999999,10.040699999762024,0.1542114862721142
5.979927999999999,10.093636667042528,0.1536680573428102
5.982308,10.146620556151277,0.1530993426494388
5.984712,10.19601955264777,0.1525653321659745
5.9871,10.240762721345371,0.1520743441579308
5.98948,10.283411241497944,0.1515796942322695
5.991872000000001,10.320053459411255,0.1511588598211433
5.994260000000001,10.34747656952541,0.1508611646003431
5.996639999999999,10.377553406692035,0.1505422642224867
5.999044,10.40790978311238,0.1502148370962462
6.001431999999999,10.427184720614004,0.1500277333932613
6.003812,10.449904781101026,0.149814133749041
6.006207999999999,10.472904380841763,0.1495894429138457
6.008596000000001,10.494181419089806,0.1493809999883082
6.010975999999999,10.517879866964844,0.1491340061859747
6.01338,10.542416932601045,0.1488583616227852
6.015768,10.558573508199238,0.1486672260238982
6.018148,10.56420772338615,0.1485874741885822
6.020543999999999,10.564953793348694,0.1485344250335109
6.022931999999999,10.575478049617846,0.1483494429334789
6.025312,10.578133672528187,0.1482513644261317
6.0277080000000005,10.575015310624758,0.1482383026133272
6.030092,10.576785093945698,0.1481992024634476
6.032488000000001,10.579486042826415,0.1481514705587452
6.034884,10.588565380998723,0.1480482101977834
6.037267999999999,10.6025328643954,0.1479180858246756
6.039648,10.628420404471958,0.1476336332326424
6.042044000000001,10.663574274175923,0.1472171728842145
6.0444320000000005,10.693420689774946,0.1468425135847448
6.046828,10.718890816828791,0.1465003496216275
6.049232,10.74529210944242,0.1461471245291979
6.05162,10.773742724630704,0.1457492501854244
6.053996,10.806896389446123,0.1452862756653435
6.056392000000001,10.83660493127615,0.1448477896365724
6.0587800000000005,10.857373904560736,0.144502487044571
6.061159999999999,10.872648432285263,0.1442300555177377
6.063564,10.89593136299546,0.1438748009677536
6.065948000000001,10.917771271466682,0.1435226615858232
6.068332,10.943615381430735,0.143128900962712
6.070736,10.963685506581015,0.1428139201782568
6.073119999999999,10.985478193223994,0.14248688057613
6.0755,11.011462072814906,0.1420865718070521
6.077895999999999,11.028461057890004,0.1417334034459268
6.080284000000001,11.044436329606702,0.1413663807419289
6.082668,11.058689039830703,0.1410108750901682
6.085063999999999,11.07364059818901,0.1406319725707705
6.087448,11.077790256882311,0.140363105839255
6.089832,11.075281987030309,0.140155333156689
6.092224,11.07142324273794,0.1399687402391285
6.094612,11.071102169229585,0.1397817794452176
6.096992,11.072131570161584,0.1395720242657999
6.099387999999999,11.06822560404098,0.1394119297621195
6.101772,11.056590774188418,0.1393232849104515
6.104168,11.04225499545515,0.1392792621820164
6.1065640000000005,11.03765018120024,0.1391424648884583
6.108952,11.038819351759104,0.1389279234050922
6.111331999999999,11.03230688041426,0.1387595114143728
6.113728,11.019555789404691,0.1386343449558808
6.116111999999999,11.001310252835072,0.1385764156020329
6.118496,10.99107311925112,0.1384375027351955
6.120892,10.98395624342846,0.1382397022640405
6.123279999999999,10.972463079060637,0.138070121663138
6.125676,10.962133397678066,0.1379089421095522
6.128072,10.954130682266005,0.1377657067662286
6.130456000000001,10.950783794652835,0.1375850131022946
6.132835999999999,10.947204589614191,0.13738813995427
6.13524,10.946186563829402,0.1371520995807305
6.137627999999999,10.9395343228577,0.1369862228631507
6.140008,10.941122802297148,0.1367577678124532
6.142403999999999,10.94448106505753,0.1364936232941918
6.144792000000001,10.949748880765712,0.1361890043217773
6.147171999999999,10.955855314235055,0.1358560712259192
6.149571999999999,10.964335935503154,0.1355143445756499
6.151956,10.981476586062977,0.135096631921288
6.15434,10.996754905503243,0.1346961311022561
6.156736,11.008588101958116,0.1343177833873017
6.15912,11.020793385465328,0.1339518799216893
6.161516000000001,11.04240287236894,0.1335351575080933
6.163912,11.069878891884942,0.1330654324869069
6.166295999999999,11.094189327669271,0.1326077328643371
6.16868,11.112493461214347,0.1322081005278183
6.171075999999999,11.132240616998404,0.1318088372384113
6.17346,11.154781269461791,0.1313888320424998
6.175844,11.179231474872982,0.1309310730354531
6.178240000000001,11.19572049912675,0.1305223098001517
6.180624,11.209927883380375,0.1301425254160398
6.183019999999999,11.223715958753424,0.1297777658515197
6.185416,11.248445703418335,0.1293143677446845
6.187804,11.270009864351575,0.1288628326693435
6.190184,11.286498888605342,0.1284592593608384
6.192588000000001,11.302289064724809,0.1280808004843373
6.1949760000000005,11.317240623083114,0.1277310027889043
6.197355999999999,11.332052411814557,0.127385397595675
6.199752,11.341416976814193,0.1270762314828721
6.202135999999999,11.34705687957471,0.1267932588552145
6.2045200000000005,11.35106676864115,0.1265400596324492
6.206916,11.353074556961175,0.1263043770051471
6.209304,11.349263034497056,0.1260917503789843
6.211684,11.344660116100014,0.1258815368287656
6.214084,11.34122068068823,0.1256813959898527
6.216472,11.341505907515558,0.1254553294883328
6.218852,11.340580429529384,0.1252447672532427
6.221247999999999,11.340586117102992,0.125028482448281
6.223635999999999,11.335237128743408,0.1248666682768578
6.22602,11.336918155981468,0.1246676943828764
6.228415999999999,11.344186176578198,0.1244320349248607
6.230803999999999,11.352525132361569,0.1241862718290952
6.233184,11.353926620345907,0.1239982839437122
6.235580000000001,11.356631360942364,0.1238165649778999
6.237964,11.36455100784515,0.1235865338729406
6.240359999999999,11.370748093255242,0.1233644535546815
6.242763999999999,11.379366588292337,0.1231132311187201
6.245151999999999,11.3913376585162,0.1228268907392673
6.247532,11.405962455792542,0.1225273686991327
6.249936,11.425243080867771,0.1221983205585785
6.252324,11.447084885196862,0.1218360339383313
6.254704,11.470649251018648,0.1214658954474665
6.257099999999999,11.497518970198966,0.1210854997617567
6.2594840000000005,11.51996517900587,0.1207506339079195
6.261863999999999,11.542039300760438,0.1204050570901466
6.26426,11.56225109139545,0.1200719746947163
6.266648,11.585535917963515,0.1197133681841192
6.2690280000000005,11.60416491673269,0.1193842682458082
6.271424,11.621722980315226,0.1190630764256245
6.273812,11.638629417591703,0.1187412343502879
6.276192,11.648086530389955,0.1184668007333154
6.278592,11.653259902441652,0.1182327851054204
6.280975999999999,11.659364440053126,0.1179925463565813
6.28336,11.660813149865708,0.117781102970878
6.2857520000000005,11.65704695337196,0.1176160483871531
6.28814,11.653792613557409,0.1174584030388771
6.290532000000001,11.644252432249887,0.1173570859553065
6.292935999999999,11.633501546128866,0.1172701502181088
6.295323999999999,11.622471120754126,0.1171918983163403
6.297704,11.60864719870005,0.1171302807338472
6.3001000000000005,11.592262097392116,0.1171013431526148
6.302484,11.573223269031706,0.1170847981548331
6.304864,11.55353281436524,0.1170645798556012
6.3072680000000005,11.538405639699048,0.1169957686439346
6.309656,11.52472148727183,0.1169286248435274
6.312035999999999,11.512899665964172,0.116850249027991
6.314432,11.499355283163815,0.1167781913312971
6.31682,11.493260224841688,0.1166626926135319
6.3192,11.497315439878502,0.1164678817794189
6.321604000000001,11.499368554168903,0.1162885974179077
6.323988,11.504866791444694,0.1160964576539099
6.326368,11.517442266146372,0.1158504950311381
6.328764,11.53495310790067,0.1155709795529349
6.331152,11.556048842267211,0.1152744210415027
6.333548,11.581288547753456,0.1149439274114927
6.335944,11.608018497306912,0.1145920252629097
6.338328000000001,11.639823583539842,0.1142002748875027
6.340707999999999,11.668415864212855,0.1138371318000192
6.343104,11.69449418746026,0.1134813010150873
6.345488,11.720292971453938,0.1131337895552141
6.3478840000000005,11.75009595694045,0.1127582559263617
6.35028,11.786836410225993,0.1123352452727433
6.352668,11.825299425004234,0.1119084966126701
6.355048,11.862411965342114,0.1115013847798893
6.357452,11.89579984344088,0.1111153020751747
6.35984,11.92718562079323,0.1107443797572934
6.362220000000001,11.959502563705362,0.1103701186684137
6.364616,11.982507851019706,0.1100466704864699
6.366999999999999,11.996573569788607,0.1097862894119372
6.36938,12.00770602225131,0.109544485585906
6.371784,12.014601955795705,0.1093143498056446
6.374172,12.016702291914346,0.1091137534578658
6.376552,12.014286569860957,0.1089338522670275
6.3789560000000005,12.010567595195452,0.1087470014362459
6.381344,12.004566980529807,0.1085821839601262
6.38372,11.997774969931248,0.1084180534368634
6.38612,11.988980858586268,0.1082674557825139
6.388503999999999,11.98167699130851,0.1080952882421813
6.390884,11.97516451996367,0.1079221995477047
6.393288,11.970793918992106,0.1077314063972903
6.395676,11.96176749022165,0.1075641731026247
6.398056,11.948876629585222,0.1074197785494911
6.400452,11.933052502642598,0.1072931730171828
6.402839999999999,11.915366044580418,0.1071755090831447
6.4052240000000005,11.899681687264655,0.1070442915630986
6.40762,11.885999430695309,0.1068996529909352
6.410004000000001,11.87203763487224,0.1067631305412651
6.412388,11.861381192407704,0.1066202747875015
6.41478,11.856451512928702,0.1064459718612834
6.417168,11.854315330129031,0.106257687094491
6.419563999999999,11.856555435874537,0.1060545642662474
6.42196,11.85665367124676,0.1058682709662341
6.424348,11.85819492885796,0.1056854200005449
6.426728000000001,11.860248043148358,0.105510439409584
6.429124,11.865653732625532,0.1053058824950888
6.431512,11.870640113222128,0.1051139231553359
6.433892,11.880841400125052,0.1048844003296422
6.436287999999999,11.893696414080454,0.1046464531067878
6.438675999999999,11.911626564715329,0.1043758511903337
6.441056,11.931698585723478,0.1040904412224244
6.44346,11.952422233037684,0.1038083472575388
6.445848,11.969653535538258,0.1035588142956469
6.448228,11.989026708412103,0.1032931690076216
6.450632000000001,12.013614787592289,0.1029912276561436
6.453016,12.039134032332248,0.1026860923075527
6.455396,12.06372211151243,0.1023861899291198
6.457792,12.084585528453498,0.1021028598138023
6.460179999999999,12.109732686141118,0.1017878610520162
6.46256,12.129153080843212,0.1015023013485901
6.464964,12.147642309985526,0.1012209743494814
6.467352,12.16520037356806,0.1009444094605586
6.4697320000000005,12.185971242710512,0.1006431453860223
6.472128,12.205810946293186,0.1003466881252594
6.474516,12.22565064987586,0.1000506292707001
6.4769000000000005,12.244279648645032,0.0997682129097087
6.479296,12.263048417041066,0.099482297050252
6.481679999999999,12.275531343944133,0.0992411970785912
6.484064,12.28522077416786,0.0990125616319909
6.486459999999999,12.287693197338838,0.098831521462134
6.488844,12.283879779016846,0.0986936702932141
6.491244,12.28220823106813,0.098540210322817
6.493639999999999,12.288033229425883,0.0983324510798185
6.496027999999999,12.293718458156782,0.0981292441824628
6.498408,12.293117845394704,0.0979686459018367
6.5008040000000005,12.294519333379045,0.0977972456286586
6.503192,12.297922922109803,0.0976149658760833
6.505571999999999,12.305190942706536,0.0974138042537902
6.507968,12.308594531437294,0.0972318989314765
6.510356,12.316002321660882,0.0970274706239029
6.512739999999999,12.326622917444393,0.0968010527137212
6.515136,12.33766282210848,0.0965635173247756
6.517524,12.35135645382504,0.0963201026931728
6.519904,12.362256588862266,0.0960870698546131
6.522308000000001,12.375298594272769,0.0958400455784442
6.5246960000000005,12.384336398190442,0.095614723348443
6.527075999999999,12.395516072481389,0.0953755523971085
6.529476000000001,12.40497318527964,0.0951385532505358
6.53186,12.415501233264528,0.0948943913066815
6.534243999999999,12.43166349643633,0.0946061370699445
6.53664,12.451178334794909,0.0942915661235121
6.539028,12.46789967647415,0.0939877766024977
6.5414080000000006,12.480477047033704,0.0937110624080623
6.543804,12.49026092091392,0.0934448179532109
6.546192,12.50791342815294,0.093140692911591
6.5485880000000005,12.519839172406428,0.0928612758770513
6.550984,12.52668977998045,0.0926101682679935
6.553372,12.533540387554469,0.0923597649173098
6.555752,12.540530764755353,0.0921055176858165
6.558147999999999,12.54658997639645,0.0918551721232285
6.560535999999999,12.550507317664277,0.091619626986408
6.562916,12.556147220424798,0.0913820820779778
6.5653120000000005,12.557271065013284,0.0911572855408846
6.5677,12.563470046281244,0.0909054383154966
6.570076,12.565804595683232,0.0906702699272171
6.572483999999999,12.57735825288439,0.0903855839138469
6.574868,12.582905607846293,0.0901306505677466
6.577247999999999,12.598603236167142,0.0898237114281619
6.579644,12.616163195607545,0.0895118546481321
6.582032,12.630510349488036,0.0892212109909498
6.584427999999999,12.649001474488216,0.0889096063138993
6.586824,12.671776340234956,0.0885726168843078
6.589212,12.6911060829963,0.0882396302174087
6.591592,12.714579796877338,0.0878849899409019
6.593996000000001,12.73088372553387,0.0875475968655753
6.5963840000000005,12.75040045975032,0.0871907174048455
6.598763999999999,12.77662234434032,0.0867889673468894
6.601164000000001,12.799399105944929,0.0863914144612881
6.603548,12.82417796829595,0.0859856794672749
6.6059280000000005,12.848165434714057,0.0855797649699927
6.608331999999999,12.873503375572518,0.085161691373246
6.610720000000001,12.898189690124926,0.0847413632114133
6.613099999999999,12.927019975797029,0.084300981556237
6.615496,12.95305676478979,0.0838700988835561
6.617884,12.980304258596052,0.083429341259056
6.620264000000001,12.997820787923954,0.0830269514648974
6.622672,13.019481288371548,0.0826030158950901
6.625056000000001,13.034064551393252,0.0822137188759758
6.627435999999999,13.045062921802703,0.0818315314000958
6.629832,13.058063392958571,0.0814415677068427
6.63222,13.064126396315414,0.0810801675411121
6.634600000000001,13.06604542855256,0.080739386734174
6.636996,13.073411684521512,0.0803878029481117
6.639384,13.075702803810996,0.0800586551862384
6.641764,13.079576714966311,0.0797312984427764
6.644159999999999,13.079306655001938,0.0794231419469491
6.6465440000000005,13.074473315037286,0.0791458148355548
6.64894,13.073364637311752,0.0788592639544366
6.651336000000001,13.071464563653295,0.0785719707123933
6.65372,13.07114728186068,0.0782874165888254
6.6561,13.067756964135004,0.0780164007672894
6.658507999999999,13.0579410352895,0.077778569601898
6.6608920000000005,13.040768329764386,0.0775761758101933
6.663276,13.023176315358691,0.0773837881608415
6.665672000000001,13.006235927259054,0.0771958896660156
6.668056,12.990738561398391,0.0770133993598093
6.670439999999999,12.976823987403565,0.0768336774621838
6.672836,12.960627773408604,0.0766680623207477
6.67522,12.948807847958811,0.0764988899908689
6.6776,12.933635347322245,0.0763495776401886
6.680004,12.919766099297792,0.0762095941971521
6.682392,12.908550578325816,0.0760667035430668
6.684772000000001,12.894262021420785,0.0759368200901893
6.687172,12.88448952268778,0.0758001156137514
6.689556,12.874157945447344,0.0756770528233557
6.691936,12.871275692685126,0.0755379245150333
6.694331999999999,12.869045066228969,0.0754036570157379
6.696719999999999,12.86346186458604,0.0752891043402434
6.699116,12.859321685182085,0.0751811177875262
6.70152,12.853319174658576,0.0750769961038597
6.703908,12.848899456000895,0.0749757569385246
6.706288000000001,12.85290744920947,0.0748350315068205
6.708684,12.86971944282946,0.0746531905547683
6.711072,12.89174634275578,0.0744493790991795
6.713452,12.91070020674905,0.0742577572519401
6.715847999999999,12.932866876302231,0.0740505348231924
6.718235999999999,12.95531308510914,0.0738378610738596
6.720616,12.981903265035738,0.0736077906638305
6.723012000000001,13.002906451603666,0.0733890198794245
6.7254000000000005,13.02712244373151,0.0731549195849603
6.727779999999999,13.053108219180292,0.0728989896308229
6.730184,13.07602095869602,0.0726552945674994
6.732571999999999,13.102146503771666,0.0723970176247489
6.734952,13.124826925861916,0.0721394295681453
6.737347999999999,13.150068527206027,0.0718619402347149
6.739736000000001,13.17265640149766,0.0715879317082465
6.74212,13.19273031836368,0.0713118899885404
6.744515999999999,13.217227745603113,0.0710129595045299
6.746904000000001,13.237860740976574,0.0707244454775459
6.749288,13.259424901909814,0.070434570072381
6.751683999999999,13.282991163589468,0.0701390060655867
6.754071999999999,13.298921109335796,0.0698817461939005
6.756452,13.300976119484064,0.0696674065434087
6.758848,13.293020625900246,0.0694852542394949
6.761239999999999,13.293213304928956,0.0692743851173736
6.76362,13.29154365283811,0.0690667376008147
6.766024,13.284659094440933,0.0688798626763009
6.768412,13.276563831230252,0.0687012414535888
6.770788,13.271262064698911,0.0685178215261705
6.773196,13.26181632704788,0.0683500254960377
6.77558,13.250880345329625,0.0681967870832074
6.77796,13.244088334731062,0.0680277939021429
6.780355999999999,13.235154453759224,0.0678684673232979
6.782743999999999,13.2299452350265,0.0677035063134251
6.785124,13.222594145920496,0.0675479168971711
6.787528,13.215382826441353,0.0673892355095475
6.789911999999999,13.209894068454908,0.0672307217454171
6.792292,13.202123670468326,0.0670849128532388
6.794688000000001,13.196495142855024,0.0669297206161537
6.797076000000001,13.193939651174777,0.0667644736681172
6.79946,13.18765949725541,0.0666043813971646
6.801855999999999,13.187944724082737,0.0664136876299262
6.80424,13.197309289082373,0.0661950525216051
6.806623999999999,13.213471552254171,0.0659604244320973
6.809028,13.222696347626949,0.065745322387645
6.811412000000001,13.234714639679057,0.0655271068245852
6.813791999999999,13.250085506917936,0.0652920859443992
6.816188,13.265084287104486,0.065045562360909
6.818576,13.28236470729117,0.0647879243176678
6.820971999999999,13.30499980341105,0.0645086387306682
6.823376,13.327914438784648,0.0642229490246682
6.825764,13.34803557747891,0.0639415127484839
6.828144,13.366434154680476,0.0636591707206113
6.830548,13.380037134456291,0.0633857971506628
6.832936,13.395781984605383,0.0631043337630899
6.835316000000001,13.406451698075005,0.0628376669908482
6.837712,13.419542821171618,0.0625564771103837
6.8401,13.42970067796204,0.0622812802145609
6.84248,13.437065038073127,0.0620089466887365
6.844875999999999,13.436700534452266,0.0617509975331521
6.847263999999999,13.436755339711985,0.0614828781285674
6.849644,13.434808044225289,0.0612205588091148
6.852048,13.429275856126338,0.0609593289600803
6.854436,13.42523391209461,0.0606851225541692
6.856816,13.423473608063013,0.0603993964427528
6.8592200000000005,13.419059576978944,0.0601134755036938
6.861608,13.414645545894876,0.0598277480537668
6.863987999999999,13.41102291074373,0.0595444010816885
6.866384,13.397389771860496,0.0592838637314601
6.868772,13.382825467417485,0.0590245470195313
6.871152,13.370403033347744,0.0587573652082807
6.873552,13.356397807412174,0.0584845792105195
6.875935999999999,13.343323747036385,0.0582105037315708
6.878316,13.334393657780282,0.0579238113480422
6.880724000000001,13.322670071844849,0.0576390123381416
6.883112000000001,13.316021622588885,0.0573409117658968
6.885491999999999,13.307371072586506,0.0570473892418771
6.887888,13.3050063640771,0.0567345843581657
6.890276,13.308508188180085,0.056412241600412
6.892656000000001,13.315874444149038,0.0560833697467707
6.895052,13.32482349198383,0.0557597201063406
6.89744,13.33377253981862,0.0554366190311379
