Time,Force,Position
7.138168,7.91026060614356,0.1559913152265736
7.140568,7.909843193120848,0.1559117075561369
7.142951999999999,7.918133031218104,0.1556792626827861
7.145336,7.923769142262884,0.1554761659335164
7.147739999999999,7.936899903756268,0.1552424311515771
7.150124,7.966744423497418,0.1548274169298556
7.152504,8.006691994769268,0.1542871501157951
7.1549,8.052366329026647,0.1536803624381799
7.157287999999999,8.091475282537338,0.1531931139885541
7.1596720000000005,8.134633763511236,0.1527043097680622
7.162068,8.191480188628088,0.1520293756864836
7.164456,8.249956627439017,0.1513206565090946
7.166836,8.310901697705187,0.1505413415575082
7.169231999999999,8.366866074948373,0.1497728918055596
7.171619999999999,8.415800436593912,0.1490816815927259
7.174004,8.45979943118684,0.1484641110645272
7.176399999999999,8.499841446115175,0.1478724735546014
7.178787999999999,8.535554394326583,0.1473018042587338
7.181172,8.565261040298742,0.1468247303961962
7.183567999999999,8.601670940786583,0.1463246005200274
7.185955999999999,8.639756180938877,0.1458421542779831
7.18834,8.679424212957008,0.1453656397803553
7.190735999999999,8.714064330123911,0.1449414775818305
7.193123999999999,8.750054921731168,0.1444914660981088
7.195508,8.783252016659093,0.1440716310680743
7.197903999999999,8.813655614907683,0.1436875596306404
7.200291999999999,8.843454808678459,0.1432766509563037
7.202672,8.864408877560276,0.1429190869925912
7.205064,8.888995060882587,0.142494562701499
7.207452,8.909856581965787,0.1421051269182483
7.209847999999999,8.9351416134224,0.1416500449820705
7.212244,8.957400830774203,0.1412098721220926
7.214632,8.970068853274501,0.1408797487545812
7.217012,8.983620819506333,0.1405710618608537
7.219415999999999,9.002572787641732,0.1402428952067954
7.221803999999999,9.030045015441996,0.139825820072552
7.224183999999999,9.063151458429171,0.139323784710418
7.226588,9.09067090805768,0.1388794469099308
7.228971999999999,9.115349639178609,0.1384925961464619
7.231356,9.1389574351129,0.1381224365447082
7.23376,9.166896193621987,0.1376631000043689
7.236148,9.189062863175172,0.1372157167802608
7.238528,9.204571604183048,0.1368389498620546
7.240931999999999,9.220684749668738,0.1364984090014595
7.243319999999999,9.240243018139823,0.1361333078338629
7.245699999999999,9.258917342879371,0.1357477772815715
7.248096,9.270282112767552,0.1354292606377676
7.250484,9.283322222320187,0.1351301170909856
7.252867999999999,9.298549528216476,0.1348603491602379
7.255264,9.32588198638988,0.1344787196161327
7.257652,9.351119796018247,0.134101231580161
7.260035999999999,9.373703878594142,0.1337454775754362
7.262432,9.399313775274852,0.1333810849802305
7.26482,9.425155989381034,0.1330344215408036
7.267199999999999,9.451045425315463,0.1326599658525657
7.269603999999999,9.465156470054737,0.1323550340252889
7.271991999999999,9.470095628823088,0.1321290005124767
7.274372,9.479131536882887,0.1318832134703954
7.276767999999999,9.496175847928358,0.1315486030825766
7.279152,9.513127611175207,0.1311895977520594
7.281532,9.519836553264495,0.130922209871279
7.283935999999999,9.520212432032574,0.130762620896547
7.286324,9.526267851957938,0.1305786891691415
7.2887,9.530740480017466,0.1304005337224608
7.291096,9.533118459531956,0.1302194427100002
7.293483999999999,9.532702942367113,0.1300629151372759
7.295864,9.535872317814526,0.1298791560005954
7.298259999999999,9.541043794008353,0.1296741960994934
7.300647999999999,9.54253782979131,0.1294712458206211
7.303023999999999,9.533696496618091,0.1293322162286636
7.307803999999999,9.493711182807344,0.1293017387764733
7.3102,9.477652842581374,0.1292456186002252
7.312604,9.46443522086298,0.129134841063345
7.314992,9.4441403617187,0.1291020310782055
7.317368,9.428965965224265,0.1290685243784539
7.319775999999999,9.420262505820034,0.1290092550642982
7.326936,9.37762346495681,0.1289939188411847
7.329324,9.368872783724338,0.1289647355190415
7.3317,9.361891885812804,0.128894267401619
7.334104,9.348812137863405,0.1288636948711916
7.336492,9.335220533234803,0.1288241504627081
7.338872,9.325633130099035,0.1287407353670527
7.341267999999999,9.31655758364247,0.1286658926836122
7.343655999999999,9.306131562745543,0.1286156059468642
7.346036,9.291980879609506,0.1285969528739403
7.34844,9.28141508908572,0.1285516170508328
7.350828,9.2757374437863,0.1284863771161743
7.353208,9.281513324457944,0.1283148674906462
7.355604,9.289710614756585,0.1281043174521666
7.357987999999999,9.291389746136776,0.12794992673957
7.360367999999999,9.293860273449884,0.1277939856193914
7.362764,9.303128498935164,0.1275715110739974
7.365152,9.310721384755988,0.1273280408248446
7.367544,9.310772398299967,0.1271213807410025
7.36994,9.311242720724534,0.1268977323552718
7.372327999999999,9.311201186469898,0.1266642458301341
7.374708,9.310228486655486,0.1264390757052781
7.377103999999999,9.307952534228958,0.1262078193461432
7.379491999999999,9.3095410136684,0.1259395239685428
7.381871999999999,9.318066960906872,0.1256002105382362
7.384268,9.3284552392649,0.1252462690680078
7.386652,9.337912352063151,0.124903229861551
7.389051999999999,9.35021018336898,0.124507441429375
7.391444,9.364417567622612,0.1240672738554414
7.393832,9.382908692622792,0.1235767265243869
7.396215999999999,9.395812824264306,0.1231305166733038
7.398612,9.406901846614508,0.122669788301655
7.400995999999999,9.409889918180422,0.1222653567670442
7.403376,9.415159629746476,0.1218309465321142
7.405771999999999,9.42443354280536,0.121356723460585
7.40816,9.43333536881191,0.1208709319763023
7.410556,9.439071611086783,0.1203928562048806
7.412951999999999,9.449463681160555,0.1198814548431708
7.41534,9.471309277205384,0.1192776711878667
7.417719999999999,9.49287533399649,0.1186843200018137
7.420116,9.517095117840077,0.1180747939649079
7.422499999999999,9.53973210981782,0.1174686411769681
7.42488,9.561577705862648,0.1168651977672924
7.42728,9.582631905974557,0.1162658668711811
7.429663999999999,9.598890508660714,0.1157079463958618
7.432043999999999,9.606489082055148,0.1152178486406193
7.434452,9.605287856530994,0.1148027782510156
7.436836,9.600454516566346,0.1144399087756339
7.484627999999999,9.077689420425996,0.1142531218788736
7.487012,9.07326780591045,0.114217943585867
7.489392,9.075504119940216,0.1141316899314654
7.491788,9.07666949878334,0.1140576461108254
7.494175999999999,9.085563741358412,0.1139218672293219
7.496572,9.097111710985958,0.1137731503657905
7.498968,9.111965033972035,0.1136150936079085
7.501355999999999,9.139110500690338,0.1133385202476578
7.503736,9.175475075207808,0.1129726344377709
7.506131999999999,9.211699880098411,0.1126140691676456
7.508519999999999,9.254442843907468,0.1122124749228666
7.510899999999999,9.295835333276164,0.1118327626064568
7.513296,9.339602010443611,0.1114516353113374
7.515684,9.386953580223317,0.1110544668915721
7.518063999999999,9.433373984443245,0.1106655918587448
7.520472,9.480865323849809,0.1102642374358452
7.522855999999999,9.533431799935844,0.1098187058871647
7.525236,9.588140146395158,0.1093503027413682
7.52764,9.639123830615356,0.1089118753861351
7.530028,9.68852472296972,0.1084802744371078
7.532408,9.735783744950808,0.1080730278619517
7.534803999999999,9.781040666185476,0.1076876626279721
7.537191999999999,9.820151515554036,0.1073579501407554
7.539572,9.858191429735957,0.1070399905071074
7.541967999999999,9.887943401678488,0.1068001307702181
7.544356,9.912620236941546,0.1066047197514653
7.546735999999999,9.937576611458327,0.1064005240125535
7.549132,9.957318079668775,0.1062478647434433
7.55152,9.975709073438866,0.1061180160395915
7.5539,9.993960297582095,0.1059936758094474
7.5563,10.00862662911307,0.105887395667013
7.558688,10.024363895830689,0.1057704547318452
7.561083999999999,10.039169996988525,0.1056595319157864
7.56348,10.049460039974328,0.1055714560103055
7.565868,10.060960787773633,0.105468821564923
7.568248,10.073392701132711,0.105361008502968
7.570644,10.08196018262582,0.1052800405274042
7.573031999999999,10.091458829678706,0.1051942946225936
7.575412,10.101888642291373,0.1051038445151799
7.577812,10.110967980463675,0.1050334035521633
7.5802,10.12312035456904,0.1049384644178828
7.58258,10.133550167181705,0.1048494589766857
7.584975999999999,10.147472324608003,0.1047208907236152
7.587363999999999,10.162744956474665,0.1045733659961996
7.589744,10.185653904274654,0.1043526062881791
7.592139999999999,10.212334736142,0.1040833727505486
7.594528,10.235710214650815,0.1038209008701435
7.596924,10.256431966107154,0.103568895257457
7.59932,10.2724978897646,0.1033426082797211
7.601708,10.28805195674285,0.1031077083270833
7.604087999999999,10.30267485816132,0.1028779230775084
7.606487999999999,10.317996607714091,0.1026249792638728
7.608872,10.332946270214528,0.1023588114032124
7.611252,10.346824997528325,0.1021016959276263
7.613647999999999,10.357118832229869,0.1018600329802771
7.616035999999999,10.368530823946292,0.1015819124518431
7.618428,10.3774288582371,0.1013084143347019
7.620823999999999,10.385023639915795,0.1010268206623959
7.623211999999999,10.38852167230304,0.100750598170925
7.625591999999999,10.390204595398968,0.1004558849074288
7.627995999999999,10.385648898830173,0.1001851204557327
7.630383999999999,10.380441575955317,0.0999095947854972
7.632764,10.377376123453734,0.0996159364902956
7.635168,10.37165694389968,0.0993315135435422
7.637551999999999,10.35713796542704,0.0991025726765111
7.639932,10.342479217327542,0.0988782428457677
7.642327999999999,10.332616066653795,0.0986265299669157
7.644715999999999,10.325034555980183,0.0983515168426047
7.647095999999999,10.320014224560431,0.0980440216627505
7.6495,10.317415302767674,0.0977099837354313
7.651888,10.315375459482356,0.0973572383882649
7.654268,10.312404450637269,0.0970089305345904
7.656663999999999,10.308502276232392,0.0966649231422262
7.659051999999999,10.308092446641158,0.0962849958419476
7.661432,10.307962156303644,0.0958949213950585
7.663836,10.307272787458688,0.0955244374831889
7.666224,10.310727389733424,0.0951232056102147
7.668604,10.313250826448384,0.0947264569100567
7.671008,10.31628611984254,0.0943378761638718
7.673392,10.320112809169617,0.0939493669773941
7.675772,10.329806031109085,0.0935270068322601
7.678167999999999,10.339778792302267,0.0930956709432795
7.680555999999999,10.348680618308816,0.0926750930622419
7.682936,10.3615866458082,0.0922305098451803
7.68534,10.383711781106747,0.0917240029175806
7.687728,10.403043419725964,0.0912300234517
7.690108,10.415577360173003,0.0907729337796243
7.692504,10.427971530993188,0.0903213885126745
7.694891999999999,10.438084061813235,0.0898910932964835
7.697272,10.440839815953671,0.089513886631195
7.699667999999999,10.442105326026889,0.0891579353193131
7.702055999999999,10.442811757592663,0.0888196933835932
7.704435999999999,10.442587023598664,0.0884846578938215
7.706832,10.439149484044746,0.0881743456149252
7.70922,10.439296837103086,0.0878541272366322
7.711599999999999,10.436371154228368,0.0875537912260328
7.713996,10.432094996913294,0.0872709894284088
7.716379999999999,10.426608134784718,0.087000164673516
7.718776,10.426196409335615,0.0866985575799207
7.72118,10.427367475752348,0.0863991709268778
7.723568,10.424254801422524,0.0861318141847018
7.725947999999999,10.42151421414504,0.0858787484697376
7.728344,10.41677152612114,0.0856370868339702
7.730732,10.407605327723823,0.0854311453788122
7.733112,10.3898716478334,0.0852871664218058
7.735507999999999,10.371858428689256,0.0851514219678215
7.737895999999999,10.357569871784223,0.0850017364425026
7.740276,10.341139444505917,0.0848671478084715
7.742671999999999,10.325360643533667,0.084737724955768
7.745056,10.316519310360446,0.0845712757510214
7.747451999999999,10.31061124349342,0.0843902738873798
7.749848,10.306053651066753,0.0841924789973515
7.752231999999999,10.3040100160657,0.0839936754600049
7.754612,10.305830812930624,0.0837776247478571
7.757016,10.30364740830271,0.0835834915497891
7.759404,10.304257500354131,0.0833796755087791
7.761784,10.303656887592055,0.0831878459557928
7.76418,10.305849771509315,0.0829865001154736
7.766567999999999,10.303898684306882,0.0828115066855676
7.768948,10.299665957104308,0.08265600245371
7.771343999999999,10.297155791394433,0.0824984619415268
7.773731999999999,10.293574690497918,0.0823483315594321
7.776111999999999,10.29078498553432,0.0821994375328106
7.778516,10.29106831650378,0.0820324170084365
7.780904,10.295355848966071,0.0818436469667491
7.783284,10.304438978854115,0.0816355771773422
7.785684,10.312451173555525,0.0814350879951307
7.788067999999999,10.322325699376483,0.0812283669888524
7.790452,10.333271160384086,0.0810141901072855
7.792847999999999,10.339281254339074,0.0808241125888913
7.795235999999999,10.34715367941362,0.0806291831129676
7.797616,10.355677730794222,0.0804406528575617
7.800011999999999,10.36140828549549,0.0802609149999095
7.8024,10.3657883657564,0.080097920529489
7.804784,10.37217054676373,0.079924715073968
7.807179999999999,10.37696993590522,0.0797487653747344
7.809568,10.38284026023335,0.0795655839929736
7.811964,10.38670848381506,0.0793926227885876
7.814359999999999,10.390436937769914,0.0792238095957091
7.816748,10.39286213911265,0.0790426267563289
7.819127999999999,10.395427110082249,0.0788571784486474
7.821524,10.39920278586534,0.0786601777732009
7.823912,10.403258000902154,0.0784547076975754
7.826292,10.407452985565827,0.0782455947762296
7.828695999999999,10.411927509483228,0.0780280788012675
7.831083999999999,10.412677371161507,0.0778218907792873
7.833463999999999,10.41929376545218,0.0775923466368863
7.83586,10.424187598250157,0.0773635541890096
7.838251999999999,10.429221200674997,0.0771307189375511
7.840631999999999,10.436256903846248,0.0768877948028988
7.843036,10.440638879965023,0.0766493240616677
7.845419999999999,10.443298294591107,0.0764118517428527
7.847804,10.452243550710165,0.0761390591280798
7.850199999999999,10.45960601496338,0.0758629506573458
7.852587999999999,10.47111245033629,0.0755661734187016
7.854967999999999,10.481408180895702,0.0752799117646583
7.857364,10.492914616268614,0.0749835837372218
7.859748,10.505771526081888,0.0746725554188083
7.862131999999999,10.520118679962374,0.074342574646433
7.864528,10.543917259067507,0.0739878570080179
7.866911999999999,10.567203981493442,0.0736234345842655
7.869292,10.592632574292654,0.0732480819515935
7.871691999999999,10.618200936718726,0.0728699016414661
7.874079999999999,10.638694162465328,0.0725146862281064
7.876476,10.660118553771705,0.0721587051028692
7.878871999999999,10.681403175451225,0.0718068305449264
7.881259999999999,10.696029868585432,0.0714756011087817
7.88364,10.714520993585614,0.0711327328262517
7.886039999999999,10.733291657839516,0.0707825416793501
7.888427999999999,10.754716049145898,0.0704313970911846
7.890808,10.77306740451922,0.0700941918265633
7.893208,10.79356063026582,0.0697457643634647
7.895595999999999,10.808559410452368,0.0694334717784946
7.897976,10.821556089892498,0.0691283903998946
7.900371999999999,10.824262726346824,0.0688708002604536
7.902759999999999,10.828971463547566,0.0686051173527936
7.905139999999999,10.829815768882336,0.0683508464950464
7.907536,10.829961226082808,0.0681172576619964
7.909924,10.829687374402692,0.0678961635081102
7.912303999999999,10.818332083803858,0.0677198044905862
7.9147,10.810421916190414,0.0675446990962825
7.917088,10.79608613745714,0.0674040814894685
7.919483999999999,10.781982676149342,0.0672819468701427
7.92188,10.776539244133271,0.0671363876134392
7.924268,10.767743236930423,0.0670119450453016
7.926648,10.760949330473997,0.066880044804248
7.929048,10.752013553644288,0.066758943272011
7.931436,10.744660568680416,0.0666430833866328
7.933816,10.734606634835826,0.0665544409474239
7.93622,10.721619434685042,0.0664746278670925
7.938608,10.712217127146513,0.0663922297381298
7.940987999999999,10.704397611473816,0.0663147616742211
7.943384,10.69764903098776,0.0662316195532785
7.945772,10.694764882367677,0.0661381111513957
7.948152,10.699749367106405,0.0660198404929555
7.950555999999999,10.707527348524463,0.0658975424770706
7.952944,10.719961157741414,0.0657678932179041
7.955323999999999,10.73481637658536,0.0656198084530841
7.95772,10.751813465802586,0.065461583311034
7.960108,10.773373835020086,0.0652732852760701
7.962488,10.792140707558252,0.0650904512679613
7.964888,10.814260155283192,0.0648866335240631
7.967276,10.83493658076916,0.0646740126213347
7.969656,10.846301350657342,0.064475979168833
7.972052,10.863020796478716,0.0642517221064554
7.974439999999999,10.87894884636717,0.0640256937895741
7.976823999999999,10.901954133681516,0.0637748068903235
7.97922,10.92044336282383,0.0635278207470356
7.981608,10.941633540846862,0.0632544761662322
7.983991999999999,10.966036524429809,0.0629662842813654
7.986388,10.991138356147056,0.0626598777679611
7.988771999999999,11.009302720065277,0.0623740544953983
7.991156,11.028677788796994,0.0620800519140012
7.993551999999999,11.048052857528711,0.0617872292064466
7.995939999999999,11.067847235141013,0.0614845682427308
7.99832,11.082706245700695,0.0611960936095325
8.000715999999999,11.09477175958105,0.0609117717981611
8.003104,11.104695403088126,0.0606383153973696
8.0055,11.111685780289005,0.060372629579518
8.007895999999999,11.119188014169085,0.0601180262343848
8.010288,11.123896751369823,0.0598661937924614
8.012668,11.130607589316984,0.0596088583967768
8.015063999999999,11.136387261704364,0.0593521804499463
8.017456,11.15054742412975,0.0590868377335056
8.019836,11.16256571618186,0.0588325893296398
8.022236,11.176446339353523,0.0585775428543818
8.024619999999999,11.188976488084831,0.0583363608489191
8.027004,11.198573370509944,0.0581008877820912
8.029399999999999,11.21082397998753,0.0578678289931694
8.031784,11.223354128718835,0.057628783108668
8.034168,11.232252163009647,0.0574147567299739
8.036564,11.24636510360679,0.0571815453370076
8.038952,11.2552631378976,0.0569668683538535
8.041331999999999,11.264300941815268,0.0567492114479746
8.043735999999999,11.269055004986388,0.0565497116797769
8.046123999999999,11.274088607411224,0.0563422141937609
8.048504,11.27884267058234,0.0561420290143837
8.050904,11.28308487707426,0.0559314106717087
8.053291999999999,11.287327083566176,0.0557206799806673
8.055672,11.289055332632485,0.0555044623337351
8.058072,11.295439409497677,0.0552851319194395
8.060459999999999,11.302754651922651,0.0550661452888728
8.06284,11.31286339102696,0.0548455391574105
8.065244,11.314451870466405,0.0546338540263226
8.067632,11.310313586920318,0.0544286518424911
8.070012,11.298166900388562,0.0542420788118626
8.072408,11.281643925311638,0.0540503887431016
8.074796,11.271127252473962,0.0538439824647606
8.077176,11.25502358627762,0.0536403474309618
8.079576,11.23463617933472,0.0534531484196333
8.08196,11.21788088683232,0.0532419579711274
8.084344,11.201265363956775,0.0530271438843633
8.086739999999999,11.188142185894872,0.0527916049250585
8.089127999999999,11.170223410407216,0.0525609434118471
8.091508,11.15151323898664,0.0523258867739383
8.093907999999999,11.136947038685756,0.0520780484516743
8.096295999999999,11.123871082452094,0.0518147237561805
8.098676,11.108373716591434,0.0515659541766673
8.10108,11.0907344803575,0.0513243183549252
8.103468,11.072675935242982,0.0510929610858799
8.105848,11.049821792702712,0.0508662717640878
8.108244,11.02096134792319,0.0506516247692555
8.110631999999999,10.990098802397252,0.0504408065711896
8.113012,10.960958818364013,0.050231699089877
8.115408,10.936334892502805,0.0500242360995174
8.117796,10.918788204067484,0.0497991422674509
8.120175999999999,10.903475933804057,0.0495879434875225
