Time,Force,Position
7.189743999999999,7.655028347833192,0.1609455991149158
7.192128,7.6687597220886525,0.160942268048142
7.194512,7.684260879665051,0.1608841250079269
7.196907999999999,7.701252281308669,0.160781035374301
7.199296,7.720665092579284,0.1606217393524392
7.20168,7.7507872557162845,0.1602606510283388
7.204075999999999,7.789476900346393,0.1597363774938212
7.206464,7.815222774938221,0.1594262981656519
7.208843999999999,7.841760045462968,0.159109896649657
7.21124,7.870531734159609,0.1587790944497017
7.213628,7.902888315468504,0.158406416983967
7.216011999999999,7.942694221255624,0.1579305727069218
7.218408,7.9844550059609185,0.1574549754286708
7.220796,8.02737927365147,0.1569843807556694
7.223176,8.073748664327413,0.1564767138226093
7.225572,8.120677133510796,0.1559473955622435
7.227959999999999,8.167932363776142,0.1553776063242227
7.230343999999999,8.214071332884476,0.1547681129684277
7.23274,8.256440313783324,0.1541478186259165
7.235128,8.29005671759183,0.1536349951846899
7.237523999999999,8.307423998003522,0.1533598764817169
7.23992,8.31627101875035,0.1532003318635599
7.242307999999999,8.328702932109431,0.1530012241898806
7.244691999999999,8.350027192185715,0.1527047301247829
7.247088,8.378521237486506,0.1523328332674458
7.249476,8.409296922787433,0.1519304065814725
7.251856,8.439141442528582,0.1515455176711004
7.254256,8.472990163762566,0.151096505167035
7.256644,8.50562818018305,0.1506701411247957
7.259024,8.545902512536863,0.1501207349601756
7.261424,8.585432670786004,0.1495509723841374
7.263812,8.622356323810909,0.1489817676008742
7.266192,8.661189529783616,0.1483591205725254
7.268587999999999,8.700442044636906,0.1477147873014507
7.270975999999999,8.738391306878079,0.1470712969950826
7.273356,8.774106150947356,0.1464401531773215
7.275755999999999,8.80516516721774,0.1458658011609056
7.278139999999999,8.829519033114577,0.1454009478839743
7.280524,8.84767960531706,0.1450527980810222
7.282919999999999,8.869005761251213,0.1446891235591158
7.285304,8.890890995692809,0.1442989601792192
7.287687999999999,8.916268574948038,0.1438474626588284
7.290084,8.937130096031236,0.143442318842493
7.292472,8.953615328569265,0.143079030354056
7.294867999999999,8.963350084763368,0.1427712902671803
7.297264,8.966194594986684,0.1425239631151379
7.299652,8.966944456664965,0.1422770551672403
7.302031999999999,8.968625483903027,0.1420191883818754
7.304428,8.971517215954588,0.1417386731346843
7.306815999999999,8.970963825020755,0.141489171157041
7.309199999999999,8.967756707034447,0.1412635583188847
7.311596,8.961057244234503,0.141096088531509
7.313979999999999,8.954590098860036,0.1409488546257914
7.316359999999999,8.954361573150297,0.1407482607348935
7.318764,8.958696327440833,0.1404775279459254
7.321152,8.96372992986567,0.1401789548440663
7.323535999999999,8.967832366730729,0.139888500353044
7.325932,8.979943206581455,0.1395002460050322
7.32832,9.004905268671843,0.1389314727920893
7.3307,9.030473631097912,0.138314315253922
7.333103999999999,9.055809676098509,0.1376767689241246
7.335492,9.075511505912193,0.1371246953689431
7.337871999999999,9.102894977629576,0.1365227901342042
7.340271999999999,9.13093007565302,0.1359226476526036
7.342656,9.16138658330346,0.1352848803030859
7.345039999999999,9.191423782073322,0.1346670414069824
7.347436,9.22006328457458,0.1341074033013805
7.349819999999999,9.25359093230021,0.1335264013433293
7.3522,9.286187414466058,0.1329532845136298
7.423883999999999,8.88781883285219,0.1329363314696959
7.42628,8.890334686135674,0.1328312118489615
7.428668,8.890476351620404,0.1327346963175927
7.431047999999999,8.892248030799214,0.1326006351572879
7.433444,8.89467133628408,0.132469519505621
7.435831999999999,8.90012045587376,0.1323345065570772
7.438212,8.919025202180915,0.1320637262517916
7.440612,8.943656711473603,0.1317369288743842
7.443,8.975877314871376,0.131340758537917
7.445392,9.012194667560598,0.1309254913544345
7.447787999999999,9.049023876929018,0.1305233561500625
7.450175999999999,9.089205661484218,0.1300749783523294
7.452555999999999,9.130877690106631,0.129602804521716
7.45496,9.173900193169407,0.1291091954097547
7.457348,9.216922696232183,0.1286186500598442
7.459728,9.265579414481872,0.128052933647093
7.462132,9.3184273256795,0.1274116027605823
7.46452,9.36983221463815,0.1267735165663623
7.466899999999999,9.424449909156714,0.1261038121331345
7.469299999999999,9.486005071474308,0.1253660963349352
7.471688,9.54849139935168,0.124632069203501
7.474067999999999,9.602457467564186,0.1239758718280435
7.476471999999999,9.659356802082888,0.1232950311603268
7.478856,9.714765892534372,0.122645887675653
7.481235999999999,9.771665227053074,0.121970580272393
7.483639999999999,9.821814085227851,0.1213311035125993
7.486027999999999,9.86386199261834,0.1207526429016575
7.488408,9.90232500739658,0.1202005555368093
7.490815999999999,9.92947426583062,0.1197397133894202
7.4932,9.956530976466045,0.1192571753800425
7.49558,9.979863024862354,0.1188032699346392
7.49798,10.003474612512385,0.1183428634110859
7.500363999999999,10.021499206803744,0.1179257595182754
7.502744,10.035519599602267,0.1175465313513781
7.505139999999999,10.051030236468012,0.1171424966596027
7.507531999999999,10.05853247034809,0.1168126628578665
7.509912,10.060959567548696,0.1165319660867856
7.512316,10.06296735586872,0.1162668112058971
7.514704,10.058968841949492,0.1160564010548992
7.517083999999999,10.048452169111815,0.1158910022926557
7.51948,10.033559207728974,0.1157471505946753
7.521867999999999,10.021227425599983,0.1155648895745694
7.524248,10.00703331235144,0.1153951288774417
7.526643999999999,9.993677816864055,0.1151949939430477
7.529031999999999,9.976318119883842,0.115029351095483
7.531411999999999,9.958259574769322,0.1148883330257231
7.533816,9.94406546152078,0.1147167738573523
7.536204,9.930662744205152,0.1145437347719672
7.538584,9.92098468912864,0.114344808347648
7.540984,9.908373367745932,0.1141693219641545
7.543367999999999,9.896832981549862,0.113982068634511
7.545752,9.88021745867432,0.1138407423844917
7.548147999999999,9.860249360612002,0.1137381795110788
7.550535999999999,9.845496168856018,0.1135835737770536
7.552916,9.82645923635348,0.1134735605123043
7.555315999999999,9.812637210157268,0.1133118537906598
7.557699999999999,9.802539846200176,0.1131252699485705
7.560084,9.78992852481747,0.1129465469656735
7.562479999999999,9.77824836899454,0.1127612214520427
7.564867999999999,9.768290774664305,0.1125680465533087
7.567252,9.754840835520437,0.1124184755031495
7.569647999999999,9.740831817869124,0.1122889330911953
7.572035999999999,9.725751865031178,0.1121703935168924
7.574415999999999,9.709041898499152,0.1120831971633571
7.576815999999999,9.696475903086816,0.1119555813155847
7.5792,9.687262482861255,0.1117886371303614
7.581583999999999,9.669761120396313,0.1117015109050357
7.58398,9.650537196438668,0.1116212053910221
7.586368,9.64039261065333,0.1114597692785459
7.588747999999999,9.633972687107107,0.1112740590238318
7.591144,9.631417195426856,0.1110597058770502
7.593532,9.63137566117222,0.1108371113930363
7.595912,9.637340429156836,0.1105623947517486
7.598307999999999,9.637298894902202,0.1103392650090978
7.600695999999999,9.637908986953626,0.1101198217914014
7.603076,9.639030935684245,0.1099106461785164
7.60548,9.637079848481813,0.1097296077451177
7.607868,9.63764271870499,0.1095406890155823
7.610251999999999,9.639276524114807,0.1093407755640962
7.612648,9.64491453101746,0.1091080950104531
7.615036,9.653625573853168,0.1088464779114878
7.617416,9.66526988299507,0.1085630330505784
7.619816,9.675051861017414,0.1082903098251727
7.622204,9.686835939786176,0.1080011080378366
7.624584,9.698060940047498,0.1077335463923661
7.62698,9.711008501801514,0.1074609521378913
7.629367999999999,9.7319644665412,0.1071209378185943
7.631751999999999,9.75557415833336,0.1067691473357607
7.634148,9.769545433445773,0.1065167990524698
7.636535999999999,9.780164133371413,0.1063021439865617
7.638931999999999,9.786918401431077,0.1061157940713176
7.641328,9.79516291355796,0.1059044057873474
7.643715999999999,9.801265555311566,0.1057142632100373
7.646096,9.8118842552372,0.1055016638717184
7.648496,9.82413296885692,0.1052588002038411
7.650884,9.832657020237525,0.1050381009608347
7.653264,9.843462711618264,0.1047920069157646
7.655664,9.85776074781264,0.1045065991784689
7.658052,9.872338323260731,0.1042122044041844
7.660432,9.883842862775776,0.1039451278779711
7.662832,9.898699977477596,0.1036439378090608
7.665215999999999,9.911554991432997,0.1033592213269793
7.6676,9.930136768373924,0.1030394082835702
7.669995999999999,9.946064818262382,0.1027303255514491
7.672383999999999,9.959478910725224,0.1024268873703709
7.674764,9.971961837628289,0.1021301813437536
7.677168,9.982442663784932,0.1018494668962832
7.679556,9.993203029195298,0.1015602844499337
7.681939999999999,10.003731077180188,0.1012503603660732
7.684336,10.014398894791938,0.1009349984489229
7.686724,10.02385600759019,0.1006336904360439
7.689104,10.031171250015165,0.1003525419349231
7.691504,10.04155952837319,0.1000475087384386
7.693892,10.048502683745824,0.0997528353434221
7.696272,10.05367605579752,0.0994920531937003
7.698667999999998,10.063645025274964,0.0992026940493742
7.701056000000001,10.070401189192497,0.0989424698531391
7.703431999999999,10.07380477792325,0.0987171299809313
7.705828,10.07529881370621,0.0985300397309874
7.708212,10.077863784675804,0.0983337763144525
7.710591999999998,10.0785192026976,0.09817629976435
7.712987999999999,10.078383224786476,0.0980187086414765
7.715375999999999,10.076384915755796,0.0978710291713257
7.717755999999998,10.07783172971051,0.0977145099094095
7.720168000000001,10.08086133553106,0.0975581010607633
7.722556000000001,10.081749070978336,0.0974204091545211
7.724936,10.083567971985383,0.0972784072376575
7.727332,10.083896628925212,0.0971599808220231
7.729716,10.089672509596854,0.0970194577223411
7.732112000000001,10.096519325455136,0.0968697432702543
7.734507999999998,10.10601986836589,0.0967111795624494
7.736895999999998,10.117382742396202,0.0965439583182732
7.739276,10.129537012359432,0.0963783947655273
7.741679999999999,10.14341384381536,0.0962087110648193
7.744063999999998,10.16264535120448,0.0959948976387939
7.746444,10.176801721914128,0.0958172961218565
7.748847999999999,10.192960193370192,0.0956262058147031
7.751235999999999,10.207907960012758,0.0954487075804325
7.753616000000001,10.22434597072254,0.095248014143736
7.756011999999998,10.242646312551884,0.0950403825551798
7.758399999999998,10.261365963261806,0.0948195266369741
7.76078,10.280597470650925,0.0946083510127406
7.763183999999999,10.299549438786324,0.0944073913965256
7.765567999999998,10.31971211173522,0.0941948465191529
7.767952000000001,10.342156424684257,0.0939614916671936
7.7703479999999985,10.367534003939488,0.093711953779337
7.772735999999998,10.39291158319472,0.0934636401930955
7.775116000000001,10.417637536143893,0.0932102741448828
7.777508000000001,10.438778596480809,0.092969859695089
7.779896000000001,10.462061527191008,0.0927137728595538
7.782291999999998,10.484832601222006,0.0924488620423601
7.784683999999999,10.509466006372564,0.0921779139805408
7.787071999999998,10.532796158911005,0.0918993113825772
7.789452000000001,10.55719724663608,0.0916134368427451
7.791855999999999,10.576662967308549,0.0913571881378929
7.794243999999999,10.599760802421509,0.0910635140771787
7.796624000000001,10.620996306414913,0.0907772239379935
7.799028,10.646515551154874,0.0904595114686316
7.801411999999999,10.673804579215773,0.0901135700676282
7.803795999999998,10.69508730503742,0.089803309319378
7.806187999999999,10.715578634926151,0.0894932917190802
7.808575999999999,10.733835546642988,0.0891761129759293
7.810956000000001,10.750369896867127,0.0888621526176725
7.813359999999999,10.763319354479016,0.088559575251207
7.815747999999999,10.771333445038293,0.0882837790717957
7.818127999999998,10.77790451335859,0.0880029826787393
7.820532,10.781170228320354,0.0877230412362305
7.82292,10.784715482535844,0.0874341887075588
7.825299999999999,10.786118866378054,0.087160195844395
7.8277,10.78379758798115,0.0869003561026939
7.830083999999999,10.781616079211108,0.0866363428632451
7.832467999999999,10.773475490030055,0.0863787168907049
7.834864,10.76319303047573,0.0861364595262924
7.837247999999999,10.750396613495786,0.0858952644322682
7.839631999999998,10.737228109463508,0.0856393890542116
7.842027999999999,10.718704929498031,0.0854209572876499
7.844411999999998,10.704465490279114,0.0851718186618038
7.846796000000001,10.684918596955246,0.0849331093520428
7.849191999999999,10.663462150683578,0.084727386444707
7.851575999999998,10.643635718105992,0.0844960359143111
7.853956,10.62129532810279,0.0842647108511427
7.856359999999999,10.6026796003387,0.0840200673085367
7.8587479999999985,10.582760619962494,0.0837633981437775
7.861128000000001,10.56191047402651,0.0835089596781121
7.863531999999999,10.54827733514328,0.0832111758727533
7.865919999999999,10.533713030700266,0.0829160417005596
7.868299999999998,10.52552711554884,0.0826042968695021
7.870704,10.519483070770692,0.0822781690119825
7.873092,10.519864637112375,0.0819090393441363
7.8754719999999985,10.521037599386975,0.0815406547382833
7.877867999999999,10.518206360168744,0.081191470178289
7.880251999999999,10.518540704682186,0.0808469749389081
7.882632000000001,10.517664344382128,0.0805133270817951
7.885035999999999,10.518231006321049,0.0801865521782439
7.887423999999999,10.52103208643186,0.0798685237410206
7.889803999999998,10.532912504714975,0.0795044991300295
7.892199999999999,10.53929847743804,0.0791803124351236
7.894583999999998,10.543774897213304,0.0788872658796902
7.896964,10.546249216242154,0.0786036468425708
7.8993639999999985,10.5492353919502,0.0783297465169803
7.901748000000001,10.553804359524085,0.0780583297059411
7.904143999999999,10.555951917470969,0.0778099168689723
7.90654,10.560333893589748,0.077570234565475
7.908927999999999,10.566158891947502,0.0773378728120854
7.911311999999999,10.563416408812149,0.0771619725987035
7.913708,10.558904142355855,0.077014314759137
7.916096,10.548245804033453,0.076900158925955
7.918475999999998,10.53595745201697,0.0768100102780265
7.92088,10.52003698555999,0.0767531373512373
7.923268,10.506770246155485,0.0766925710370345
7.925647999999999,10.50030120492315,0.0766053802955548
7.928044,10.494763329250594,0.076515670924992
7.930432,10.49187918063051,0.0764225791469703
7.932811999999998,10.490065967197063,0.0763228290067382
7.935212,10.484248552270788,0.0762413900711984
7.937595999999999,10.470282964731982,0.0762007887739457
7.9399799999999985,10.459390413126233,0.0761442073586366
7.942375999999999,10.45543532931951,0.0760576094579421
7.944763999999999,10.455903755886204,0.0759400139990594
7.947143999999998,10.458234513572457,0.0758176444616419
7.949539999999999,10.463079228684316,0.0756967485088132
7.951927999999999,10.470205583796316,0.0755584913477177
7.954324,10.47812333484124,0.075422359171583
7.956720000000001,10.488462495513154,0.0752652840122928
7.959108,10.503085396931624,0.0750813909361911
7.961487999999999,10.5171964416709,0.0748862515304172
7.963892000000001,10.534939600850668,0.0746589185880391
7.966280000000001,10.552822529657298,0.0744276549082529
7.96866,10.568982896971232,0.0741966434478709
7.971056000000001,10.581558371672912,0.0739711367502861
7.97344,10.5912005800684,0.0737579023005417
7.975823999999999,10.599120226971188,0.0735452971307299
7.97822,10.605596851635,0.0733248468286071
7.980608,10.611282080365896,0.0731029962288744
7.982987999999999,10.625255251336178,0.0728394550873868
7.985384,10.644303558985932,0.0725527882595331
7.987772,10.664702341076046,0.0722525748077341
7.990151999999998,10.68500857536754,0.0719323168750848
7.992547999999999,10.698237572233149,0.0716427843888899
7.994935999999999,10.714027748352612,0.071330573992585
7.997332,10.728794211113682,0.0709991262631815
7.999728000000001,10.744911148315111,0.0706553488017692
8.002116000000001,10.761866703277702,0.0702886936516193
8.004496,10.776959927120735,0.069927525994763
8.006896000000001,10.795265956523686,0.069550794101752
8.009284000000001,10.818507352979246,0.069157413450068
8.011664,10.83932733980781,0.0687846964623038
8.014064000000001,10.860566635516957,0.0684008313467095
8.016448,10.882085470479815,0.0680082545118534
8.018832,10.904535471002465,0.0676136335997422
8.021228,10.927125241151968,0.0672159354182253
8.023616,10.950785946488107,0.0668131279416171
8.025996,10.975238047757168,0.066413273581168
8.028400000000001,10.999690149026229,0.066014548370221
8.030788000000001,11.01613384730962,0.0656462401990871
8.033168,11.028713113727038,0.0652888447570525
8.035564,11.03915050977118,0.0649431418164035
8.037952,11.043674151374688,0.0646408030600904
8.040332,11.05820829671028,0.0643043987285822
8.042728,11.06724799648582,0.0639999045262081
8.045116,11.074517912940422,0.063720740031779
8.0475,11.078295484581384,0.063466027637682
8.049896,11.079511876968493,0.0632340091103044
8.052284,11.075373593422404,0.0630275225258353
8.054663999999999,11.066951569129769,0.0628423558709177
8.05706,11.057738148904209,0.0626549470571812
8.059448,11.046662397559093,0.0624694401176789
8.061827999999998,11.034096402146758,0.0623005474276342
8.064228,11.02511529934668,0.0621305010654007
8.066616,11.016925592479511,0.0619629561155281
8.069008,11.010318677478187,0.0618010257093028
8.071404000000001,11.00450315840978,0.0616419188049692
8.073795999999998,11.000549970460929,0.0614807990905512
8.076176,10.99817957437791,0.0613254513154667
8.078575999999998,10.999673610160867,0.0611616679006935
8.080963999999998,11.002890207436522,0.0609994149309124
8.083348,11.005827265458455,0.0608447133865015
8.085740000000001,11.01304806422694,0.0606700873170557
8.088124,11.01412279112932,0.0605180224784733
8.090504,11.016408222845197,0.0603569502598692
8.092908000000001,11.021766690494124,0.060185414022035
8.095296000000001,11.02633376221014,0.0600107197077303
8.097672,11.03290293467257,0.0598303900754785
8.100075999999998,11.04519887012053,0.0596396346396029
8.10246,11.055632474448933,0.059450443132449
8.10484,11.064715604336977,0.0592743572764957
8.107232,11.080736202024047,0.0590806921280392
8.10962,11.09903843971126,0.0588740674207949
8.111996000000001,11.115478346278913,0.0586701637327875
8.114391999999999,11.134060123219845,0.0584577368009198
8.116775999999998,11.149988173108303,0.0582447413599006
8.119156,11.162982956690565,0.0580383041377053
8.121552000000001,11.173184243593491,0.057834946031433
8.123936,11.179660868257304,0.0576350734613443
8.126316,11.186277262547978,0.0574320975428181
8.128727999999999,11.194895757585066,0.0572244095063756
8.131111999999998,11.209008698182208,0.0569915213485484
8.133492,11.221259307659794,0.0567605296037018
8.135887999999998,11.234441082697158,0.0565289076787058
8.138272,11.24948518885408,0.0562963400893437
8.140652,11.261875567958528,0.0560627994706447
8.143063999999999,11.278409918182666,0.0558160104239873
8.145447999999998,11.296154973220307,0.0555625117831906
8.147828,11.314598876392248,0.0552916214541783
8.150223999999998,11.335836276243525,0.0550186484480546
8.152612000000001,11.35428017941546,0.0547471126436052
8.154992,11.367648945907929,0.0544907364362629
8.157391999999998,11.376082345347786,0.0542442000782668
8.159779999999998,11.3846555144145,0.0539943866245352
8.16216,11.389364251615245,0.0537506098425936
8.164576,11.39314182325621,0.053506969083212
8.16696,11.400132200457088,0.0532510443796015
8.169339999999998,11.405120476911549,0.0529990972877278
8.171751999999998,11.410248522992871,0.0527428565919018
8.174140000000001,11.410301432394723,0.0524993591392884
8.17652,11.408631780303878,0.052253566907795
8.178923999999999,11.4005365170932,0.0520325508545136
8.181307999999998,11.392720793136244,0.0518038477352088
8.183688,11.38425344287323,0.0515679617272539
8.186091999999999,11.37392376149066,0.0513326828999916
8.188475999999998,11.360241504921312,0.0511119789503038
8.190856,11.342555046859133,0.050899516977461
8.193252000000001,11.315369941744066,0.0507178761695871
8.195636,11.28469249181536,0.0505547131272815
