Time,Force,Position
8.539131999999999,7.232561062269607,0.1632642028229189
8.541512,7.348002841387689,0.1626978833273043
8.543907999999998,7.436956467667136,0.1624016391600135
8.546295999999998,7.523167610811232,0.1618816709907291
8.548680000000001,7.59937393779685,0.1612287896777216
8.551075999999998,7.644625171457912,0.1607279510693156
8.55586,7.636388242762508,0.1606240752109897
8.558264000000001,7.626009443693823,0.1605670608597146
8.560652000000001,7.631367911342753,0.1602566066261001
8.563032,7.637378005297742,0.159948913046751
8.565428,7.650510662648993,0.1595880095470232
8.567812,7.666901451530536,0.1592291141379383
8.570191999999999,7.684455723397332,0.1588770693792884
8.572596,7.701311147129827,0.1585652275661824
8.574984,7.71811934903408,0.1582899467425507
8.577364,7.741258718401678,0.1579648720070859
8.57976,7.7720797296729796,0.1575500308387264
8.582144,7.805554467996756,0.1571031570722511
8.584523999999998,7.842009694454971,0.1565838439880152
8.58692,7.875439106808372,0.1560847381036845
8.589307999999999,7.892619395764964,0.1558306588009421
8.591687999999998,7.911941555094829,0.1555322862945489
8.594092,7.92204460662553,0.1553973549214893
8.596476,7.930984175170976,0.1552566110840715
8.598855999999998,7.948304233754427,0.1550052396458725
8.601251999999999,7.972095229428081,0.154696779021721
8.603635999999998,8.001286227005304,0.1543550073362128
8.606031999999999,8.032199786075221,0.1540051373259765
8.608428,8.056595186226692,0.1537509622640452
8.610816,8.075496140818109,0.1535974685560323
8.613195999999999,8.089461728356916,0.153517885187867
8.615587999999999,8.111203401455912,0.1532946186920892
8.617975999999999,8.142351173809178,0.1528881061133217
8.620372,8.17303431131149,0.1524427890788861
8.622764,8.205859319187075,0.1519609624580224
8.625152,8.233888729636911,0.151541503801746
8.627531999999999,8.264199780086884,0.1510826223056944
8.629928,8.296420383484657,0.1505729072325732
8.632316,8.325335633523897,0.1501001645480907
8.634695999999998,8.352760639495918,0.1496630766967979
8.6371,8.388379144050841,0.1491589526617837
8.639484,8.428094397897214,0.1486248303648014
8.641867999999999,8.47451480211714,0.1479752030687776
8.644264,8.51348588185884,0.1474208987572154
8.646647999999999,8.545659263428366,0.1469620253649642
8.649031999999998,8.581045450557813,0.1464515513000726
8.651432,8.616199320261781,0.1459237153948314
8.65382,8.645161792129265,0.1454323555456694
8.656199999999998,8.672960781011493,0.1449354342128986
8.658604,8.704763971386555,0.1443798895368528
8.660992,8.742945551053204,0.1437571914522652
8.663371999999999,8.77698315960016,0.143205691462909
8.665768,8.80208119960167,0.1427806728875519
8.668156,8.824106203670127,0.142400195625764
8.670535999999998,8.843058171805524,0.1420614505726861
8.67294,8.868108989978792,0.1416695639021825
8.675324,8.891157707405641,0.1413072451918333
8.677707999999999,8.908247344421483,0.1409927601452827
8.6801,8.919889757705516,0.1407326080880425
8.682488,8.934325667668885,0.1404426530234934
8.684884,8.95239369207275,0.140089332875725
8.687280000000001,8.971999182372075,0.1396744108056983
8.689668000000001,8.982200469275,0.1393299372051956
8.692048,8.99147059061815,0.1389926996718332
8.694451999999998,9.005489087558805,0.1386349063828866
8.696839999999998,9.018296879685964,0.1383000655143823
8.69922,9.029010023268087,0.137965177448204
8.701623999999999,9.036929670170876,0.1376582067060727
8.704007999999998,9.040937663379449,0.1374265659763522
8.706392000000001,9.044758665132916,0.1372330226909687
8.708787999999998,9.046065709460771,0.1370566203613766
8.711171999999998,9.043835083004614,0.1368793236317969
8.713552,9.038578642443648,0.1367087708797826
8.715948000000001,9.034625454494796,0.1365432044634718
8.718336,9.036259259904616,0.1363224215960887
8.720716,9.039011222329314,0.1360561482235249
8.723112,9.04050715397014,0.1357531419927664
8.7255,9.043446107849944,0.1354494837735629
8.727879999999999,9.04712923583442,0.1351737281353689
8.73028,9.050113515684597,0.134927455160193
8.732668,9.045788240683406,0.1347475059302398
8.735047999999999,9.036946907510185,0.134606402743117
8.737444,9.032714180307613,0.1344525251299012
8.739832,9.032578202396492,0.1342772435910088
8.742228,9.026063835193783,0.1341583518318475
8.744632,9.019596689819316,0.1340072732238459
8.74702,9.01354885332543,0.1338385087291324
8.749399999999998,9.00759356463016,0.1336954712222636
8.751795999999999,9.003780146308168,0.1335224072151066
8.754179999999998,8.997360222761944,0.133337349763246
8.75656,8.991359608096303,0.1331347759486721
8.758955999999998,8.9845203756695,0.1329670743991599
8.761344000000001,8.981218814026704,0.1328015867404427
8.763724,8.979919353130327,0.1326126413782516
8.76612,8.974895229994836,0.132459543689315
8.773288,8.936539929878169,0.132402202546152
8.775676,8.924111808234827,0.1323780365193698
8.778056,8.911591138792867,0.1323272242801224
8.780459999999998,8.905448858642494,0.132220445187296
8.782844,8.900190522223655,0.1321372532088561
8.785228,8.89320962431212,0.1320656516852872
8.787624000000001,8.88529756084081,0.1320027878128342
8.790012,8.881389698862332,0.1318929195382014
8.792392,8.876503449495834,0.1318242817942008
8.794795999999998,8.870638812741312,0.1317967464809337
8.797183999999998,8.868918147106484,0.1317166935338454
8.79956,8.867057711844797,0.1316424051625404
8.801960000000001,8.873298227367394,0.1315019972482088
8.804348000000001,8.877117333262994,0.1314025771166852
8.806728,8.884009475091647,0.1312654532664629
8.809124,8.89374233542788,0.1310714107972049
8.811512,8.900541929457919,0.1309092722310451
8.813907999999998,8.908784545726933,0.1307476864101152
8.816303999999999,8.924895795354754,0.1305010736542205
8.818691999999999,8.941985432370597,0.1302138706479918
8.821072000000001,8.958423443080381,0.129923654788267
8.823467999999998,8.976584015282862,0.1296231517055903
8.825855999999998,8.996979005657238,0.1293218209160992
8.828236,9.012438628979002,0.1290746585505771
8.830631999999998,9.027526165248428,0.1288133878540143
8.833020000000001,9.045966276704627,0.1285055509309375
8.8354,9.064825697041412,0.1281809532261831
8.837796,9.08582698775147,0.1278305952747125
8.840184,9.108458292155609,0.1274446335983931
8.842568,9.12964657432077,0.1270568031344262
8.844964000000001,9.150974626112797,0.1266665773084104
8.847352,9.176446649024513,0.1262295116801033
8.849747999999998,9.197542383391058,0.1258251802408405
8.852144,9.219197196265045,0.1253979088586246
8.854531999999999,9.23992084357925,0.1249798687404183
8.856912000000001,9.257291915706684,0.1246102899685944
8.859307999999999,9.27773602376717,0.1242076540565081
8.861695999999998,9.294223152163068,0.1238144937202544
8.864079999999998,9.307265157573571,0.1234440154510787
8.866475999999999,9.320027623730356,0.123085406348922
8.868867999999999,9.334792190633555,0.1227071663241785
8.871244,9.351838397536897,0.1223006415622019
8.873643999999999,9.36651041664148,0.1219008286154226
8.876027999999998,9.38267267981328,0.1214707181239017
8.878412,9.396972611865529,0.1210552084468042
8.880816,9.409922069477414,0.1206659558048984
8.883204,9.426084332649216,0.1202415173420492
8.885583999999998,9.440104725447744,0.1198441423294773
8.887979999999999,9.452914413432769,0.1194659348831431
8.890367999999999,9.470799238097268,0.119037934571524
8.892748000000001,9.485890566082434,0.1186323520386452
8.895147999999999,9.497117462201622,0.1182616625572052
8.897531999999998,9.508204588693957,0.1178971106515718
8.899912,9.518872406305704,0.1175482304952107
8.902315999999999,9.527817662424756,0.1172073999495695
8.904703999999999,9.534388730745055,0.1168703720216067
8.907084000000001,9.536303971266465,0.1165675315353797
8.909479999999999,9.54459760107946,0.116222639523147
8.911863999999998,9.553403087571652,0.1158880351804023
8.914259999999999,9.563279509250483,0.1155423307455838
8.916656,9.571805456488956,0.1152200515550458
8.919044,9.574976727794237,0.1149579242925826
8.921423999999998,9.577077063912878,0.1147071200480526
8.92382,9.580899961524215,0.1144488138947331
8.926203999999998,9.585374485441616,0.1141939002703418
8.928587999999998,9.587055512679672,0.113958626704424
8.930983999999999,9.582450698424765,0.1137890826359947
8.933371999999999,9.577985653796716,0.1136142734877708
8.935752,9.572589443608884,0.113445796587028
8.938156,9.56505136304778,0.1133009822938022
8.940539999999999,9.559235843979373,0.1131486059393435
8.942923999999998,9.55314078565724,0.1130064201098241
8.945319999999999,9.547837123268032,0.1128631815277508
8.947707999999999,9.546817201625371,0.1126743898752751
8.950088000000001,9.549521942221832,0.1124609098017884
8.952492,9.557534136923238,0.1122210154771525
8.95488,9.569131224236896,0.1119614439850887
8.957259999999998,9.579005750057858,0.1117108828227405
8.959664,9.587157714386125,0.1114677317413799
8.962048,9.594378513154613,0.1112313380735083
8.964427999999998,9.599876750430404,0.1110015066675532
8.966828,9.607656627706334,0.1107439179998798
8.969211999999999,9.620371872034877,0.1104469991035778
8.971592000000001,9.63602038266961,0.1101299370185835
8.973987999999999,9.652739828490985,0.1098019006560331
8.976375999999998,9.672532310245412,0.1094465326412987
8.978772,9.697260159052457,0.1090519225447381
8.981168,9.720917072672858,0.1086686307779258
8.983556,9.747786791853176,0.1082545442832479
8.985935999999999,9.77265441028708,0.1078580235697067
8.98834,9.797801567974702,0.107453580805257
8.990728,9.822157329729407,0.1070487640398855
8.993108,9.845721695551193,0.1066460289083836
8.995504,9.864862550999566,0.1062928066534261
8.997892,9.881070140141745,0.1059625084691884
9.000271999999999,9.89061980073861,0.1056761677456084
9.002676000000001,9.89844689984278,0.1053963481239201
9.005064,9.90599445969323,0.1051275780941565
9.007444,9.91419364584974,0.1048633031936381
9.009847999999998,9.923463767192889,0.1045894914615184
9.012232,9.93752948596179,0.1042845339221959
9.014616,9.95159520473069,0.1039802579033066
9.017012,9.96472975793981,0.1036839456832615
9.019396,9.971066612976765,0.1034349197990116
9.021776,9.979685108013852,0.1031619572978721
9.024172,9.987232667864305,0.1028998221203655
9.02656,9.989984630289005,0.1026680992528874
9.02894,9.994738693460116,0.1024216224490816
9.031336,9.99520901588468,0.1022149868029426
9.03372,9.99675027349588,0.1019984571082247
9.036116,9.993076624800748,0.1018259619499196
9.038512,9.993127638344728,0.1016334747800534
9.040896,9.991036781515431,0.1014604332150639
9.043276,9.986431967260518,0.1012920378745094
9.045683999999998,9.98583135449844,0.1010942644866145
9.048068,9.993239144722027,0.1008375953494999
9.050448,10.002369496438314,0.1005762505772704
9.052848,10.006704250728852,0.1003438624515596
9.055232,10.00838527796691,0.100120929253813
9.057616,10.007644895577975,0.0999274380718721
9.060012,10.001457289457226,0.0997586495055055
9.0624,9.9931278129632,0.0996090646185253
9.064775999999998,9.979723199789705,0.0994982070746874
9.06718,9.967249752175984,0.0993820569511839
9.069568,9.950492563815711,0.0993045605017403
9.071948,9.9314537354553,0.0992512188928558
9.074344,9.918141670080422,0.0991635035873738
9.076732,9.90082540321271,0.0991046486896126
9.079112,9.885511237091414,0.0990310557234101
9.081516,9.86791543096998,0.0989816125702258
9.083904,9.856465696714656,0.0988833178556126
9.086284,9.843013861712915,0.0987994600718105
9.08868,9.830632961897816,0.0987056945397223
9.091068,9.824118594695108,0.0985729638718223
9.093448,9.811597925253148,0.0984834880383077
9.095848,9.793070953571936,0.0984366554295576
9.098232,9.774823521144446,0.0983795552313434
9.100616,9.760440520582929,0.0982986912567394
9.10302,9.750853117447164,0.0981892651147503
9.105408,9.741545253565116,0.0980699418018366
9.107788,9.735542743041606,0.0979462039005475
9.110184,9.732613268451146,0.0977986007096419
9.112572,9.733687995353524,0.0976223753908431
9.114952,9.738347614868154,0.0974325010329104
9.117348,9.747942601435398,0.0972102075031867
9.119736,9.762752494308971,0.0969461285439194
9.122132,9.773697955316573,0.096706276614983
9.124527999999998,9.78664551707059,0.096451590314959
9.126915999999998,9.800664014011248,0.0961883336599508
9.129296,9.815893215765405,0.0959101040743758
9.131692,9.828189151213362,0.095651364472965
9.13408,9.841975330728545,0.0953697749460679
9.13646,9.859625942109696,0.0950668586674798
9.138856,9.876997014237126,0.0947756978079169
9.141244,9.898512057484252,0.0944526983901512
9.143624,9.92482269815713,0.0941044214996631
9.14602,9.948851698829872,0.0937799065341997
9.148408,9.974091404316107,0.0934430013356769
9.150804,9.997468778682794,0.0931163812347754
9.153199999999998,10.020846153049478,0.0927895800789259
9.155587999999998,10.046644937043158,0.0924381885921763
9.157968,10.07165232510392,0.0920878411800184
9.160367999999998,10.094937151671983,0.0917421294600404
9.162755999999998,10.116778956001074,0.0913921098744489
9.165136,10.132893997344633,0.0910715622433046
9.167531999999998,10.143282275702663,0.0907803260826413
9.16992,10.157814525180385,0.0904607448933101
9.1723,10.176490745777803,0.0901132853747689
9.174699999999998,10.190231599322608,0.0897938304527769
9.177084,10.205322927307773,0.0894570800707983
9.179468,10.222276586412494,0.0891133665535959
9.181864,10.23750768402452,0.0887739743857689
9.184255999999998,10.248362493091374,0.0884453540746237
9.186636,10.255911948799694,0.0881184549193673
9.189032,10.260388368574958,0.0878118367012219
9.19142,10.26020896055133,0.0875240439867674
9.1938,10.260588631035144,0.0872177443281258
9.196196,10.259105970399402,0.0869189502542077
9.198584,10.257483540136798,0.0866248650016038
9.200968,10.260284620247614,0.0862950090351203
9.203364,10.260012664425366,0.0859858611347288
9.205752,10.259740708603124,0.0856770396333513
9.208147999999998,10.26119131427358,0.0853662222220797
9.210544,10.261710754384255,0.0850588552943125
9.212932,10.269447201547678,0.084706757788498
9.215315999999998,10.281048080577076,0.0843369321299782
9.217712,10.285851261434306,0.0839992434936561
9.2201,10.28679001042556,0.083680029078441
9.22248,10.292803896096288,0.0833308744285514
9.224884,10.299609177699931,0.0829839770370684
9.227272,10.302550027437604,0.0826537901947211
9.229651999999998,10.306933899414254,0.0823311575103403
9.232048,10.312621024003017,0.0820197822877616
9.234436,10.3196114012039,0.0817197376634826
9.236816,10.329535044710973,0.0814061632416914
9.23922,10.341181249710743,0.0810907122400052
9.241608,10.354270476949493,0.0807831081184072
9.243987999999998,10.368802726427214,0.0804832158918973
9.246384,10.38147264478538,0.0801890898505556
9.248772,10.387577182396855,0.0799441715021039
9.251152,10.392610784821692,0.0797066479889826
9.253552,10.398296013552589,0.0794755419076984
9.25594,10.399697501536927,0.0792733032147395
9.25832,10.401610846200466,0.0790813307492549
9.260716,10.396027644557536,0.0789404044609467
9.263103999999998,10.38508976698141,0.078835347549648
9.265484,10.3766658468309,0.0787300587361607
9.267879999999998,10.369545179292508,0.0786365946265082
9.270272,10.361213806940611,0.0785546833727707
9.272652,10.351531960148364,0.0784886283128254
9.275047999999998,10.347437106714782,0.0784058170475906
9.277435999999998,10.339989678094424,0.0783487388722321
9.279816,10.331750853541148,0.0782899400313836
9.282215999999998,10.325514129734293,0.0782212837664678
9.2846,10.316344139621236,0.0781650212758872
9.286984,10.306382753575264,0.078106918284288
9.289379999999998,10.293488101223096,0.0780611362136345
9.291768,10.280081592191731,0.0780047319501408
9.294164,10.27147068058612,0.0779305430867893
9.296564,10.26793490565998,0.0778300266136177
9.298952,10.260255159614143,0.0777527587267694
9.301332,10.250293773568174,0.07769387843517
9.303732,10.247689164201809,0.0775903122861765
9.30612,10.242151288529254,0.0774987871491887
9.3085,10.242340175842225,0.0773870474927153
9.310896,10.252679336514142,0.0772233006173083
9.313284,10.266882929052032,0.0770453746728663
9.315663999999998,10.281505830470504,0.0768550939739967
9.31806,10.295057796702336,0.0766717648004648
9.320448,10.305956035881696,0.0764914406254458
9.322827999999998,10.315131713568356,0.0763129522484426
9.325228,10.327799736068654,0.0761053170524045
9.327611999999998,10.34167846338245,0.0758868164946452
9.329995999999998,10.35397439883041,0.0756656209941691
9.332392,10.369203600584566,0.0754329552145154
9.33478,10.385224198271642,0.075202382423929
9.33716,10.405388767078406,0.0749497595606073
9.339555999999998,10.428486602191368,0.0746876302757243
9.341943999999998,10.450141415065357,0.0744196860712257
9.34434,10.470213436073506,0.0741493807932953
9.34674,10.499644334507682,0.0738294546856861
9.349128,10.528191289210325,0.073483788216881
9.351508,10.550871711300577,0.0731618822795497
9.353904,10.579186348577736,0.0728000955337952
9.356292,10.602333301376811,0.0724395194139476
9.358672,10.618822325630578,0.0721009965328789
9.361068,10.631866226898952,0.0717637773644966
9.363456,10.64318756667463,0.0714271705570305
9.365835999999998,10.66000335201036,0.0710573447549855
9.368236,10.68268566995848,0.0706679893414124
9.37062,10.704716361600545,0.0702738424842885
9.373003999999998,10.724744952496188,0.0698886239539347
9.3754,10.743702608205195,0.0695099394060747
9.377788,10.759587227981145,0.0691447986673178
9.380168,10.772678351077762,0.0687855752643783
9.382568,10.78632855268182,0.0684107286730044
9.384956,10.795043387233266,0.0680534238275152
9.387335999999998,10.799614250665018,0.0677167001499617
9.38974,10.799761603723352,0.0674072470366309
9.392124,10.80042081346089,0.0671088291894837
9.394507999999998,10.794933951332313,0.0668376233153916
9.396904,10.794754543308686,0.0665647242090831
9.399288,10.796577236031478,0.0662842825701421
9.401671999999998,10.793836648753992,0.0660348168757067
9.404068,10.791747687782568,0.065790920552087
9.406451999999998,10.787656626064724,0.0655535720626268
9.408848,10.785148356212718,0.0653212957643009
9.411248,10.783571251920488,0.065087455961118
9.413632,10.773706205388873,0.0648900310285526
9.416011999999998,10.759836957364422,0.0647067849301335
9.418412,10.743686069339834,0.0645380297720153
9.4208,10.73125984355436,0.0643635954816172
9.42318,10.72176688407508,0.064180942235319
9.425576,10.715067421275135,0.0639936341013272
9.427964,10.714094721460722,0.0637944690575211
9.430348,10.711212468698507,0.063624504314541
9.432744,10.714056978921828,0.0634426396685907
9.435132,10.71676171951828,0.0632645431506522
9.437511999999998,10.720537395301378,0.0630804320267717
9.439908,10.7204486392185,0.0629053823860274
9.442296,10.725155480561371,0.0627201132524259
9.444676,10.724647415597913,0.0625575354154715
9.447076,10.725722142500292,0.0624007959314576
9.449464,10.7325236323882,0.0622329969185105
9.451847999999998,10.747053986008051,0.0620484933894103
9.454244,10.767683189665773,0.0618678025988689
9.456632,10.786450062203937,0.0616898797712575
9.459028,10.803726690674884,0.061529066171333
9.461424,10.826590312504498,0.0613610695861397
9.463815999999998,10.849174395080396,0.0612008381837011
9.466196,10.873481039148986,0.0610422146814305
9.468595999999998,10.892852316164966,0.0608978099521756
9.470983999999998,10.910873118740588,0.0607671820072899
9.473364,10.931966957249266,0.0606263235568714
9.47576,10.951989860571302,0.0604920323970302
9.478151999999998,10.9733632383337,0.0603449926778659
9.480532,10.993805450536318,0.0602002641683666
9.482931999999998,11.017320698671991,0.0600452896497231
9.485319999999998,11.043489673860138,0.0598913017090124
9.4877,11.07366285054112,0.0597257476288228
9.490099999999998,11.100111364982991,0.059565177704714
9.492487999999998,11.131635016104331,0.0593887745335976
9.494872,11.158363069799922,0.0592212013176856
9.497267999999998,11.178433194950202,0.0590645491165291
9.499655999999998,11.18877235562212,0.0589292759423981
9.50204,11.193804062189088,0.0587921746543239
9.50444,11.199906703942696,0.0586504282268952
9.506828,11.208151216069576,0.0584993779534331
9.509211999999998,11.215883871517262,0.0583384521969791
9.511612,11.23018190771164,0.0581469822321276
9.513996,11.249694850212348,0.0579377146452716
