Time,Force,Position
10.916528,5.978665563158676,0.1710175781214589
10.918916,6.204432450460729,0.1688527951841213
10.921296000000002,6.422287274291472,0.1667052540422487
10.9237,6.645919874651727,0.1640717643501718
10.926088,6.854706735457381,0.161559655574954
10.928468,7.024530099952811,0.1597870706575852
10.930872,7.180342550939061,0.1581716455034226
10.93326,7.314041241773979,0.1568637770144908
10.985808,7.330186442224952,0.1564352859949468
10.988216,7.341732515994629,0.1562965943720666
10.9906,7.362031166854648,0.1560551386477542
10.99298,7.393318708834772,0.1555998878261077
10.995384,7.422232063016144,0.1551729310187249
10.997768,7.454171231302327,0.1547346806224991
11.000148,7.495654372611771,0.1541787104273838
11.002544,7.551664075825332,0.1533750421172933
11.004932,7.605299591240137,0.1526075057806961
11.007312,7.656887679938153,0.1518341498578631
11.009708,7.702516688225161,0.1511227285236194
11.012092,7.734550300167833,0.1506146409292094
11.014476000000002,7.770308574349617,0.1500536367960727
11.016876,7.798385206627695,0.1495721134736669
11.019264,7.821573693681407,0.1491351489724794
11.021644000000002,7.846344972600953,0.1486861906163597
11.02404,7.886014900476954,0.1480201637768568
11.026428,7.934297635816436,0.1472626421454571
11.028808,7.980158961528922,0.1465889047079804
11.031212,8.014566761270345,0.1460908281295923
11.033596,8.043806876533681,0.145636963043525
11.035976000000002,8.06708791138601,0.1452399451632834
11.038372,8.089949637357758,0.1448665632053319
11.040756000000002,8.107596457023172,0.1445870163918569
11.043152,8.122497001837495,0.1443093031322128
11.045548,8.133812654039563,0.1440694936673431
11.047936,8.143638062174414,0.1438656574700783
11.050316,8.15094951288365,0.1436826095654891
11.057484,8.133077959224236,0.1435319761454907
11.05988,8.128796114335554,0.1435019352798754
11.062268,8.130380802059259,0.1433920801584401
11.064648000000002,8.139462036089435,0.1431598741875204
11.067052,8.1443067512013,0.1429616284641864
11.06944,8.150362171126664,0.1427391095319626
11.07182,8.157069217358085,0.1425194136468122
11.074224,8.159539744671195,0.1423352993609075
11.076608,8.155958643774682,0.1421725032717361
11.078988,8.15405477840049,0.1419316720222744
11.081392,8.156247662317748,0.1416620673221582
11.08378,8.1599761162726,0.1414190161275927
11.08616,8.164962496869196,0.1411191138241117
11.088564000000002,8.166178889256301,0.1407988290366963
11.090952,8.161668518657876,0.1405458485471456
11.093332,8.15776255253727,0.1403297397008218
11.095728,8.160886602014306,0.1400502656978448
11.098112,8.173509298544229,0.1396317777662386
11.100496,8.187529691342755,0.1391524396698788
11.102892,8.202993106380257,0.1386657342452175
11.105276,8.229071429627657,0.1380771929527419
11.10766,8.256220688061696,0.137475922844496
11.110064,8.275967843845752,0.1369280984157361
11.112448,8.284960321793047,0.1364830242166754
11.114828,8.297258153098879,0.136015331615359
11.117224,8.31123132406916,0.1355710183205058
11.119608,8.326554969479801,0.1350998778778966
11.122004,8.338480713733295,0.1346188187346358
11.1244,8.343748529441477,0.1342117595303623
11.126788,8.341984433694146,0.1339622731753636
11.129164,8.34683104466388,0.1336734500529188
11.13156,8.357731179701105,0.1332741714059068
11.133948,8.364953874327462,0.1328814180034092
11.136332,8.367193980072964,0.1325823794737587
11.138728,8.371481512535258,0.1323188894687048
11.141112,8.379633476863525,0.1320098541347972
11.143508,8.382944517795664,0.1316932641680651
11.145904000000002,8.371217140144491,0.1315373356818243
11.148292,8.351294368052548,0.1315236916622245
11.150672,8.342126273797364,0.1314146506368693
11.153076,8.329792595810504,0.1313177635176399
11.155463999999998,8.31271054222614,0.1312387409195768
11.157844,8.293207079014776,0.1312035308505315
11.160248,8.277892912893481,0.1311758253251692
11.167412,8.228969926395155,0.1311597605985954
11.169796000000002,8.214819243259116,0.1311432063104413
11.172176,8.207419036467003,0.1310836447715354
11.174576000000002,8.208446541541138,0.1309042730846091
11.17696,8.201652635084706,0.1307839591851814
11.17934,8.188992196015887,0.1307315660518442
11.181744000000002,8.175213599932185,0.130729204835273
11.184132000000002,8.171957364259763,0.1306132038735094
11.186512,8.177827688587893,0.1303500921331323
11.188908,8.183325925863683,0.1300724206534669
11.191292,8.192641373177205,0.1297887497705933
11.193672,8.209778232021291,0.1294491620916823
11.196076,8.239858860903658,0.1289583952480638
11.198464,8.263561100494433,0.1285293137192728
11.20084,8.284981700085075,0.1281341115923298
11.203244000000002,8.308496948220746,0.1277427017350033
11.205632,8.336016397849255,0.127303376200208
11.208012,8.366656105239061,0.1267933455854191
11.210404,8.39613232964361,0.1262725347264404
11.212792,8.424397849234662,0.1257690433269981
11.215184,8.452244059945134,0.125283339186726
11.217588,8.481161205842243,0.1247884122241404
11.219976,8.507424624686877,0.1243142370892876
11.222356,8.529264533158099,0.1239070972552411
11.224752,8.558693535734406,0.1234271537413139
11.22714,8.586772063870354,0.1229725165290885
11.22952,8.615781757566081,0.1225085584386193
11.231924,8.639344227529996,0.1220949941085979
11.234312,8.65713271268014,0.1217769200182143
11.236692,8.673570723389924,0.1214862955077612
11.239088,8.689077568539929,0.1212063308194282
11.241476,8.70328116107782,0.1209209459811677
11.243856,8.70575168839093,0.1207545775891924
11.24626,8.709153381263818,0.1205808159435809
11.248648,8.719492541935736,0.1203357806668524
11.251028000000002,8.731042407421151,0.1200719450688693
11.253432,8.744314834399264,0.1198008128989832
11.25582,8.755957247683297,0.1195680916174033
11.2582,8.766900812833029,0.1193644790130925
11.260596,8.78371091059515,0.1191047689209002
11.262984,8.803594044290328,0.1188119629454761
11.265364000000002,8.820264372425592,0.118560366966726
11.26776,8.841870067613465,0.118262681109683
11.270148,8.867479964294173,0.1179255121970464
11.272528,8.889085659482047,0.1176314587823162
11.274924,8.914975095416475,0.1172869569056264
11.277312000000002,8.938071034671568,0.1169623781308901
11.279692,8.96060789541922,0.1166607907426242
11.282088000000002,8.983284525793731,0.1163547448952994
11.284472,9.004750451354747,0.116066647309367
11.286856,9.02170031874373,0.1158087611874839
11.28926,9.037811568371552,0.1155857057831684
11.291648,9.064165639156933,0.1152853326699357
11.294028,9.087306904382398,0.115022807707444
11.296424000000002,9.109237464794369,0.1147822587134453
11.298812000000002,9.132099190766112,0.1145367401907098
11.301196,9.150956715245028,0.1143308648420949
11.303596,9.16967447009708,0.1141313406992439
11.305984,9.190813634576129,0.1138972889415727
11.308364,9.210230237562484,0.1136735338070217
11.310760000000002,9.22778450942928,0.1134643707249942
11.313148000000002,9.247760190923074,0.1132216052809521
11.315528,9.263871440550895,0.1130124999731223
11.317932,9.275746171260408,0.1128204825624276
11.32032,9.2856188012235,0.1126463143218468
11.3227,9.292930251932736,0.1125124939559428
11.325095999999998,9.307318940067862,0.1123130654393278
11.327484000000002,9.324408577083704,0.1120700533677854
11.329868,9.340567048539768,0.1118339765533481
11.332264,9.358075994436192,0.1115754005392402
11.334652000000002,9.378238667385087,0.1113024284532478
11.337032,9.394304591042538,0.1110386876416069
11.339428000000002,9.4010588591022,0.1108392839634667
11.341816,9.41158501122922,0.1105836981047548
11.344212,9.417734874811073,0.1103495599851596
11.346608,9.419089140967168,0.1101520065659244
11.348996,9.421002485630709,0.1099328742451197
11.351376000000002,9.419470707308854,0.1097277930158587
11.353776,9.41714753305408,0.1095243344185987
11.35616,9.414684589172444,0.1093266237459292
11.35854,9.412081875663953,0.1091342428148938
11.360944,9.403984716595406,0.1090040261761937
11.363328,9.392954291220668,0.1088972106042295
11.365708,9.389512959951013,0.1087365916340559
11.368112,9.388493038308356,0.108542581923025
11.3705,9.385238698493804,0.108345101102534
11.37288,9.37597805644,0.1081998203958426
11.375276,9.361502508079868,0.1081051916835593
11.37766,9.341579735987924,0.10804124491976
11.38004,9.323007438336338,0.1079547090835382
11.382436000000002,9.303783514378694,0.1078632499158523
11.38482,9.285630525607688,0.1077602115003195
11.387216,9.270410803142878,0.1076334734728512
11.389612,9.253421297357129,0.1075442836184217
11.392,9.238294122690936,0.1074426407220595
11.394380000000002,9.228102315077354,0.1073001593104706
11.396784,9.21749119858319,0.1071733172572967
11.399168,9.21274661470142,0.1069999758655017
11.401548000000002,9.203858059699956,0.1068660178988062
11.403944,9.1891029720861,0.1067781561385376
11.406332,9.175558589285744,0.1066734090294675
11.408712,9.16671725611252,0.1065073399361843
11.411116,9.160809189245493,0.1063176605917403
11.413504,9.141817582713328,0.1062425336444155
11.415884000000002,9.12254643692744,0.1061775027354982
11.418284,9.106580644500085,0.1061046998465173
11.420672,9.095689988752202,0.1059861154196054
11.423052000000002,9.087592829683654,0.1058496226735943
11.425448,9.087876160653112,0.1056596642513602
11.42784,9.088531578674909,0.1054859950667648
11.430219999999998,9.089838623002764,0.1053171260410639
11.432624,9.098734761435702,0.1050975464025325
11.435008,9.108422295801562,0.1048775144757542
11.437388,9.117178664607644,0.1046629541022994
11.439792,9.12765759490642,0.1044432515685167
11.44218,9.134272093339224,0.1042519881410413
11.44456,9.142748922891585,0.1040495462127333
11.446956,9.149083882070666,0.1038702563881265
11.44934,9.1602144386755,0.1036578432395405
11.451724,9.18214689494534,0.1033641809268275
11.45412,9.20114608490898,0.1030927513520851
11.456508,9.218934570059124,0.1028388050417349
11.458888000000002,9.237793990395904,0.1025752753662925
11.461284,9.26708322334535,0.1022144967311099
11.463672,9.293439189988602,0.101874420780204
11.466068,9.322496105512572,0.1014954605168765
11.468464,9.348619754730343,0.1011407946367736
11.470852,9.37409177764206,0.1007813488420381
11.473232,9.395699368687806,0.100449682565942
11.475628,9.409857635255324,0.1001587746648041
11.478016,9.427508246636476,0.0998284335027614
11.480396,9.441294426151655,0.099527168504582
11.4828,9.456570849734051,0.0992015551005517
11.485184,9.47454822219717,0.098836157256337
11.487564,9.489732097980951,0.0984867927046147
11.489964,9.50584713932451,0.0981316890040445
11.492348,9.519727762496178,0.0977715738642512
11.494732,9.533096528988644,0.097402504940812
11.497128,9.542089006935942,0.0970481085753484
11.499516,9.545774030778286,0.0967156978634703
11.501896,9.555605126486745,0.0963362759595874
11.504292,9.564644826262285,0.0959568854926948
11.50668,9.57075125973163,0.0955965764469924
11.509064,9.573365348387338,0.0952765673216249
11.51146,9.581194343349376,0.0949139128816089
11.513848,9.584879367191723,0.0945856909708773
11.516244,9.585770894354738,0.0942703594739918
11.51864,9.58680219114461,0.0939498243401149
11.521024,9.590394667188342,0.093596138489512
11.523404,9.60199554621774,0.0931860906246063
11.5258,9.608241749313944,0.0928239663470198
11.528188,9.610623520544175,0.0924839822968191
11.530572,9.61207412621463,0.0921492788282449
11.532964,9.610032387071444,0.0918520296896423
11.535352,9.6102722879284,0.0915318226331201
11.537748,9.61279382878549,0.0911888632252974
11.540144000000002,9.62062282374753,0.0908318396706027
11.542532,9.625099243522795,0.0905061710103825
11.544912,9.632089620723674,0.0901772324769425
11.547312000000002,9.635447883484058,0.0898894677475915
11.5497,9.631449369564834,0.0896602329815535
11.55208,9.629033647511443,0.0894326765694098
11.554476,9.631413522883808,0.0891804416999014
11.556864,9.632210606390332,0.0889262324577131
11.559244,9.630726049896722,0.0886952490373653
11.561644,9.629893119709168,0.0884698625043235
11.564032,9.634507413253424,0.0882258513461275
11.566412,9.641775433850157,0.0879756426748113
11.568816000000002,9.648344606312586,0.0877504374627195
11.571204000000002,9.654494469894432,0.0875409329905212
11.573584,9.664788304595977,0.0873024638697356
11.575988,9.681879837469689,0.087029268463698
11.578372000000002,9.699343457395738,0.0867723705821676
11.580756,9.71974034362798,0.0864997714004976
11.583152000000002,9.737715820233229,0.0862541815842038
11.585540000000002,9.754201052771256,0.0860320670946122
11.58792,9.765890687883532,0.0858337890941986
11.590316,9.783307085981338,0.0856098212985979
11.592704,9.800723484079144,0.0853863116947513
11.595084,9.820141982923367,0.0851500244612707
11.59748,9.840771186581089,0.0848994973632849
11.599868,9.857396188745977,0.0846723707940742
11.602248,9.869225593485114,0.0844685026806384
11.604644,9.881566854903449,0.0842748136282786
11.607032,9.893628577068064,0.0840907454548467
11.609428,9.904898903299758,0.083905513885718
11.611824,9.91323596322526,0.0837363474423254
11.614212000000002,9.91943115277748,0.0835841050435723
11.616592,9.923903780837009,0.0834342108096924
11.618988000000002,9.925582912217198,0.0832948820156977
11.621376,9.926051338783893,0.0831687972108782
11.623756,9.920513463111332,0.0830769113592153
11.62616,9.91204232113258,0.0829995625437607
11.628548,9.905713049527106,0.0829064515638208
11.630928,9.902456813854686,0.0827943964381959
11.633324000000002,9.901202678928682,0.0826715005885991
11.635712000000002,9.899948544002678,0.0825484286787726
11.638092,9.894969746837562,0.0824383589869785
11.640496,9.889851180045586,0.0823328408880204
11.642880000000002,9.883941217320691,0.0822256378451391
11.645264,9.88189568646177,0.082101199326834
11.647660000000002,9.885856457842095,0.081944245854152
11.650044,9.89382143071526,0.0817659613228816
11.652424,9.9039282739617,0.0815724673176315
11.65482,9.91459419571558,0.0813610280037483
11.657208,9.92526011746946,0.0811494415451656
11.659604000000002,9.934483016984366,0.0809302150687539
11.662,9.942123124633431,0.0807077852290128
11.664384000000002,9.95176533302892,0.080475055956866
11.666768,9.961547311051266,0.0802376492399747
11.669164,9.969606727580915,0.0800020684383121
11.671552000000002,9.97966824485698,0.0797556506584086
11.673932,9.996015603626017,0.0794696181787184
11.676332,10.004494329036246,0.0792207971885674
11.678720000000002,10.01003978814028,0.0789858998065163
11.6811,10.0130712898187,0.0787511777112069
11.683504,10.01624256112398,0.0785117002123907
11.685892,10.021695472429398,0.0782533081914605
11.688272,10.026496757428756,0.0779886821849993
11.690668,10.033300143174532,0.0777136737950878
11.693056,10.040522837800896,0.0774268946298635
11.695436,10.043089704628358,0.0771544318186467
11.697832000000002,10.045656571455822,0.0768833970527188
11.700216,10.04864274716387,0.076599899929518
11.702596,10.050697757312136,0.0763191425472764
11.704996,10.05489463783368,0.0760246916723751
11.70738,10.062676410967478,0.0757249334318782
11.709776000000002,10.072320515220834,0.0754199988277244
11.712176,10.081452762794992,0.0751053854885862
11.71456,10.090585010369148,0.0747906479777614
11.716944000000002,10.099717257943306,0.0744757864367835
11.71934,10.11019997995782,0.0741462267218531
11.721728,10.113745234173306,0.0738473593364294
11.724108,10.122505394695128,0.0735180083769924
11.726503999999998,10.12847205853761,0.0731944772476996
11.728892000000002,10.136301053499652,0.072866845203279
11.731272,10.14506121402147,0.0725370570867174
11.733672,10.151679504170012,0.0722212762880862
11.736060000000002,10.162162226184527,0.0718932803975253
11.73844,10.173576113758823,0.0715639398296452
11.740836000000002,10.181637426146342,0.0712595885132754
11.743224,10.189698738533858,0.0709545093075423
11.74562,10.191893518308987,0.0706708590216885
11.748016,10.192086197337698,0.0703961935179348
11.750408,10.19586376897866,0.0701183820210329
11.752788,10.199641340619625,0.0698415260168293
11.755192,10.1975523796482,0.0695850668849633
11.757576,10.19853645460983,0.0693150186599407
11.75996,10.200032386250657,0.0690565008524517
11.762356,10.206603454570958,0.0687768940635611
11.764744,10.21703895475723,0.0684866416502218
11.767124,10.224121879756728,0.0682190354638229
11.769528,10.236140171808836,0.0679340700024476
11.771912,10.248810090167002,0.0676567606672564
11.774292,10.26655514520464,0.0673578082849044
11.776688,10.282158329869002,0.067071438830069
11.779076,10.298692680093144,0.0667842647599894
11.78146,10.31615819587706,0.0664957598553852
11.783856,10.32775717904859,0.0662262545212055
11.78624,10.339495931846976,0.0659536676618381
11.788624,10.351234684645366,0.0656808910156651
11.79102,10.367629265242645,0.0654009541837112
11.793404,10.389890378452316,0.0651033048197176
11.795784,10.413734283527823,0.0648116832440818
11.798184,10.43199119524466,0.0645300154901622
11.800568000000002,10.446383675095523,0.0642587289811031
11.802948,10.468784557932054,0.0639595566507837
11.805348,10.486901700022033,0.0636841364067186
11.807732,10.499943705432536,0.0634278955385251
11.810128,10.505628934163433,0.0632071527207102
11.812528,10.505168091028214,0.0630115249092066
11.814916,10.505778183079636,0.0628099137370677
11.817296,10.50424640475778,0.0626198209212192
11.8197,10.501503921622426,0.0624395573678944
11.822088,10.498342129606492,0.0622720176335687
11.824468,10.495180337590558,0.0621042270149283
11.826864,10.493229250388124,0.0619275125858097
11.829248,10.48927606243927,0.0617571541484542
11.831627999999998,10.488256140796612,0.0615785885739633
11.834032,10.48630505359418,0.0614015422905204
11.83642,10.484353966391742,0.0612242493682986
11.838804,10.481751252883251,0.0610408899959143
11.8412,10.474864798628204,0.0608783519404806
11.843588,10.4661160132536,0.0607180338486695
11.845968,10.462954221237666,0.0605510539327097
11.848364,10.464308487393764,0.0603826097963022
11.850748,10.461798321683888,0.0602231972548892
11.853132,10.459427925600874,0.0600595204260533
11.855528,10.465345471757246,0.0598637127115698
11.857916,10.473404888286892,0.0596571982776081
11.860296000000002,10.485608275936237,0.0594343400622006
11.862692,10.500093303585716,0.0591979647162923
11.865076000000002,10.515649266421834,0.0589572600707003
11.867472,10.535628739631369,0.0586943670690158
11.869868,10.558681248773956,0.0584226962021536
11.872256,10.583735858662962,0.0581458826681651
11.874636,10.605437893365192,0.0578885430526198
11.877032,10.629933424746756,0.0576288569854132
11.879416,10.654289186501458,0.0573737476700151
11.881812,10.67929657456222,0.057126691922616
11.884208,10.70658560262312,0.0568671159026742
11.886592,10.732384386616802,0.0566255202833812
11.888976,10.7596734146777,0.0563672828988744
11.891372,10.7881731475521,0.0561010187602592
11.89376,10.814019153374025,0.0558346869886569
11.89614,10.838282367330107,0.0555631964522026
11.898544,10.861195106845836,0.0553044103718799
11.900932,10.886249716734843,0.0550372576266345
11.903312,10.907951751437077,0.0547895928986156
11.905708,10.93072472132594,0.0545377945103291
11.908096,10.951775129722115,0.0542840826981453
11.910476,10.971614833304788,0.0540396776845673
11.91288,10.985727773901932,0.0538019259350421
11.915268,10.991692541886543,0.0535879569755629
11.917648,10.986995179833018,0.0533905388065865
11.920044,10.978573155540378,0.0531946949501273
11.922432,10.970430670501454,0.0529908083183733
11.924812,10.961496789529615,0.0527836759767946
11.927208,10.955124087811638,0.052556927014114
11.929596,10.95010186053402,0.0523190025912446
