Time,Force,Position
9.567111999999998,7.535412787724962,0.1551020975496018
9.569508,7.5409525592553885,0.1550625241335165
9.571896,7.55431374231638,0.1549378318594673
9.574292,7.569117947616347,0.1548106260039742
9.576688,7.589788685528704,0.1545913589112122
9.579076,7.611018501948501,0.154343429641982
9.581456,7.633785784263761,0.1540177136991361
9.583852,7.652875626168151,0.1537072946299404
9.58624,7.664004286915117,0.1534866604288722
9.58862,7.680255306169799,0.1531421610098096
9.59102,7.69827610874542,0.1527444241336267
9.593408,7.712432479455066,0.1524091650843003
9.595788,7.724307210164576,0.152119001506308
9.598184,7.738695898299701,0.1518039887748933
9.600572,7.759974832405611,0.1514238107835852
9.602956,7.793311696960396,0.1509286571210203
9.60536,7.829674375619994,0.1504253073215591
9.607748,7.870972421332203,0.1498493343648933
9.610132,7.912829545551855,0.1492417001869279
9.612528,7.953662956413108,0.1486169305552261
9.614916,7.99403173242341,0.1479600561223699
9.6173,8.030490750597364,0.147302256178633
9.619699999999998,8.053401594255222,0.1467958772274976
9.622084,8.07100498380813,0.146343691042706
9.624464,8.085303020002508,0.1459182525021415
9.626872,8.101742926570163,0.1454597460444399
9.629255999999998,8.117763524257239,0.1450248963037471
9.63164,8.13294550418315,0.1446293358422248
9.634032,8.15767145713232,0.1441415073943192
9.63642,8.18342112343989,0.1436771401927462
9.6388,8.21424592642693,0.1431497292641286
9.641196,8.242044915309158,0.1426335530022309
9.643584,8.271334148258605,0.1420776704865576
9.645964,8.299180358969076,0.1415219064397765
9.648367999999998,8.316271891842787,0.1410795575175321
9.650756,8.323307595014041,0.1407181107029925
9.653136,8.328947497774562,0.1403258725491618
9.655532,8.327417615310576,0.1400025610011624
9.65792,8.324816797659954,0.1396951798647502
9.6603,8.322867606315388,0.139390727017897
9.662696,8.316914213477986,0.1391416186478215
9.665084,8.309982433252566,0.1389373982645689
9.667464,8.312734395677264,0.1386455625985592
9.66986,8.319722877020274,0.1383207908673585
9.672248,8.332298351721956,0.137936977792426
9.674644,8.345432904931078,0.1375323744650765
9.677039999999998,8.356333039968305,0.1371330726190235
9.679427999999998,8.367652483886111,0.13671302260684
9.746316,7.940850349804783,0.1365632093328041
9.74872,7.951325488387823,0.1364778548109225
9.751108,7.97036810846397,0.1362636640631603
9.753488,7.991133290032813,0.1360390113845184
9.755892,8.013341493840633,0.1358153378960654
9.75828,8.042300173992379,0.1355476102121465
9.760659999999998,8.080710279368766,0.1351795834811296
9.763056,8.120982715864711,0.1347949724486892
9.765439999999998,8.165538893107211,0.1343525274799381
9.76782,8.211538092588686,0.1339115118157612
9.770228,8.267408026175385,0.1333486779257167
9.772612,8.326258447896523,0.1327188258031336
9.774992,8.385203313274147,0.1320260120850533
9.777387999999998,8.440610507867762,0.1313281586709858
9.779775999999998,8.495366076155317,0.1306267262333132
9.782156,8.543603485524423,0.1299929094662022
9.78456,8.595100922281691,0.1292840318268349
9.786948,8.639056486762115,0.1286201438254106
9.789328,8.682360424936478,0.1279591341865881
9.791732,8.723662262364426,0.1273274317999687
9.79412,8.758818027926266,0.1267787874117864
9.796499999999998,8.788386800129434,0.1262872227080526
9.798896,8.809435312667736,0.1258834607017379
9.801284,8.828761263713341,0.1254939748895988
9.803663999999998,8.84836675401267,0.1250945193003475
9.806072,8.866017365393818,0.124688341810081
9.808456,8.87477563005777,0.1243492057218901
9.81084,8.881299476549826,0.1240122133355425
9.813244,8.881305164123434,0.1237332112972655
9.815632,8.881358073525284,0.1234219324675927
9.818012,8.876103528822187,0.1231477371995787
9.820408,8.865122221133557,0.1229265873756734
9.822796,8.850369029377573,0.1227693336682387
9.825176,8.841202830980258,0.122564507704082
9.827572,8.831896862956082,0.122365136456211
9.829956,8.830459528290712,0.1220863216010219
9.83234,8.824738452878792,0.1218621002747816
9.834736,8.826466701945096,0.1215762107893392
9.837124,8.828846577317456,0.1212954702620998
9.839503999999998,8.830062969704564,0.121001530667014
9.8419,8.832117979852834,0.1206728487744162
9.844288,8.832869737388984,0.1203352718614711
9.846668,8.838696631604607,0.1199429110148259
9.849063999999998,8.840007467648201,0.1195816047070967
9.851447999999998,8.839176433318517,0.1192470477688917
9.853832,8.83271118380192,0.1189895202165623
9.856227999999998,8.830482453203633,0.1187109363843948
9.858615999999998,8.827554874471044,0.1184608112067892
9.861012,8.827653109843268,0.1182089873461621
9.863404,8.826493418573753,0.1180093182304206
9.865792,8.829570246222545,0.1177899406767418
9.868175999999998,8.841027563909345,0.1175045033563444
9.870572,8.853416047155921,0.1172106691505664
9.87296,8.85858752334975,0.1169976266115469
9.875343999999998,8.863898769170437,0.1167784811669417
9.87774,8.861201612005459,0.116642157056117
9.880128,8.860227016333177,0.1164968778271722
9.882511999999998,8.854968679914338,0.1164040000496468
9.889675999999998,8.825409387000516,0.1163810370836307
9.89208,8.825596378455618,0.1163428083443951
9.894468,8.82494475214956,0.1163386010741413
9.896848,8.831462911068009,0.116289314016139
9.899244,8.838912235546236,0.1162329791634205
9.901632,8.851716235957653,0.1161126648236495
9.904011999999998,8.865591171555714,0.1159806806224035
9.906408,8.883470308646604,0.1158102648140935
9.908796,8.89990642349852,0.1156370999726837
9.911179999999998,8.916761847231015,0.1154469665805135
9.913584,8.930963543911036,0.1152733775426134
9.915972,8.939158938351808,0.115158944305475
9.918356,8.949356433538995,0.1150255431057059
9.920752,8.96742256208499,0.1148211080691014
9.92314,8.988002648056598,0.1146080191526483
9.92552,9.011516000334405,0.1143679293898504
9.927924,9.034098187052429,0.114135427126866
9.930312,9.058822244143734,0.1138786099876586
9.932692,9.086898876421811,0.1135781062618824
9.935088,9.119958097580747,0.1132022524898248
9.937476,9.150410813515451,0.11281265329938
9.93986,9.173274435345068,0.1124847059844668
9.942263999999998,9.189899437509958,0.1121908105938978
9.944648,9.19907511519662,0.1119502417519857
9.947032,9.209461497696775,0.1116928137450598
9.949428,9.21784577945052,0.1114544695837765
9.951816,9.224507499711567,0.1112247009425287
9.954196,9.22958642810678,0.1109984754380761
9.956592,9.235736291688628,0.1107605181719963
9.95898,9.243236629710836,0.1105006870368734
9.96136,9.251016506986764,0.1102305869647572
9.963756,9.26228872907633,0.1099156243774516
9.966144,9.269976058553642,0.1096200625193245
9.968524,9.272495703552863,0.1093468322533666
9.970928,9.27399163519369,0.1090547778392728
9.973316,9.275115479782178,0.1087475262578819
9.975696,9.275867237318328,0.1084250536474037
9.978092,9.275036202988645,0.1081043211575978
9.98048,9.278209370151792,0.1077509460043451
9.98286,9.278449271008745,0.1074221689880332
9.985256,9.277198927798478,0.1071201765554747
9.987644,9.279161390148126,0.106785092994748
9.990023999999998,9.288201089923664,0.1063879974563046
9.99242,9.306320127871508,0.1059144770331357
9.994808,9.322716604326656,0.1054483172758777
9.997191999999998,9.344327987088136,0.104936328007891
9.999588,9.366079139476476,0.1044205261622338
10.001976,9.384897025558622,0.103927244842255
10.004372,9.402783746080988,0.1034399352172749
10.006768,9.414803933990964,0.1029947453619956
10.009156,9.424822021154524,0.1025656175175561
10.011536,9.43069613719839,0.1021746017050895
10.013936,9.443088412160703,0.1017467542707678
10.016324,9.455713004548496,0.1013384922269391
10.018704,9.468709683988624,0.1009469787966713
10.0211,9.484080551227509,0.1005563246463205
10.023488,9.49982350551873,0.1001812798623701
10.025872,9.516078316489148,0.0998166024487913
10.028268,9.526047285966596,0.0995102608874379
10.030656,9.532244371376686,0.0992545861414788
10.033036,9.537370521600142,0.0990086136838619
10.035436,9.53914409663682,0.0987987580910518
10.037824,9.539567197233136,0.0986102699254926
10.040204,9.533844225963346,0.0984733062572119
10.042607999999998,9.53049544249231,0.0983365269456553
10.044996,9.52179198308808,0.098249926938136
10.047376,9.511598279616631,0.0981881778061448
10.049775999999998,9.501916432824382,0.0981364435745438
10.052164,9.493817377897964,0.0980847648928317
10.054544,9.49088600744964,0.0980184781933736
10.05694,9.489257889613429,0.0979624060960246
10.059328,9.489352333269917,0.0979013869042368
10.061712,9.483580244314012,0.0978801307332415
10.064108,9.478227464238689,0.0978436395513663
10.066496,9.471943518603585,0.0978119512284153
10.068876,9.463937011475789,0.0977847710286351
10.071272,9.455278878041929,0.0977522259191925
10.07366,9.447831449421573,0.0977046811454021
10.07604,9.441594725614712,0.0976421761440948
10.07844,9.440852447367908,0.097525358807023
10.080824,9.444114370613937,0.0973793918392415
10.083208,9.449657933860102,0.0972085424740391
10.085604,9.456412201919768,0.0970238602389058
10.087992,9.46288693072571,0.0968489043391113
10.090372,9.467778867665816,0.0966739910012299
10.092768,9.471739639046149,0.0965033060062887
10.095156,9.476259488933913,0.0963123633641101
10.097552,9.482269582888904,0.0960966561432273
10.099951999999998,9.489769920911112,0.0958574487192388
10.102339999999998,9.50118191262754,0.0955667034114149
10.10472,9.512501356545346,0.0952508419868517
10.107124,9.523308943783956,0.0949248121764794
10.109512,9.5393314373289,0.0945575492805676
10.111892,9.55642486606048,0.0941814049976941
10.114296,9.57351829479206,0.093805831813901
10.116684,9.588469853150364,0.0934486909159833
10.119063999999998,9.606214908188004,0.0930795449920951
10.121464,9.623680423971924,0.0927216643496397
10.123852,9.641285709382702,0.0923587285710697
10.126231999999998,9.654886793300648,0.0920237120865863
10.128628,9.66462344535262,0.0917113176135721
10.131016,9.672497766285034,0.0914073354220706
10.133396,9.67222391460492,0.0911610799197774
10.1358,9.67115866699189,0.0909135157611036
10.138184,9.667160153072665,0.0906832119162888
10.140564,9.666374444713352,0.0904251438807273
10.142968,9.664098492286822,0.090190512120526
10.145352,9.66354510135299,0.0899529481664701
10.147731999999998,9.6587079696726,0.0897519936416908
10.150128,9.648516162059025,0.0895966108981799
10.152516,9.63962760705756,0.0894523818978922
10.154896,9.63311323985485,0.0893105670701547
10.1573,9.622454901532448,0.0891994112854402
10.159684,9.61323958544902,0.0890947546833709
10.162064,9.60509520455223,0.0889812701133569
10.164468,9.600955025148275,0.0888424591852309
10.166856,9.593741809811265,0.0887249832344881
10.169235999999998,9.58387486742178,0.0886141720102887
10.171632,9.573868155405432,0.0885078627947954
10.17402,9.568657040814838,0.0883775394219969
10.1764,9.567310358090216,0.0882272061430104
10.178795999999998,9.568617402418072,0.0880702465209517
10.181183999999998,9.580866116037788,0.0878477781288091
10.183564,9.59618786559056,0.0876045535759317
10.185963999999998,9.61816754368864,0.0873312387436539
10.188351999999998,9.63972791290614,0.0870736158102828
10.190732,9.666782727683692,0.086770384915486
10.193136,9.688762405781771,0.0864998092705094
10.195524,9.716748386119107,0.0861947421855437
10.197904,9.746596697575994,0.0858831846761308
10.200308,9.77779548347324,0.0855561109334162
10.202692,9.806480311944874,0.0852314554592161
10.205071999999998,9.836236075603145,0.0848991002986888
10.207472,9.867482083328635,0.0845478741230833
10.209855999999998,9.897796925494347,0.0842016838750886
10.212236,9.928251537286917,0.083853914075415
10.21464,9.962198493893126,0.0834749119229141
10.217028,10.000429191245887,0.083066045555235
10.219407999999998,10.039591054158429,0.0826543252069639
10.221804,10.075168024458716,0.0822536419451013
10.224187999999998,10.110233138079806,0.0818458877689558
10.226572,10.147579891701032,0.0814217681321991
10.228967999999998,10.178268716776952,0.0810266928807667
10.231355999999998,10.207374749987034,0.0806302119038602
10.233736,10.232756120958,0.0802485076536513
10.236131999999998,10.25883634006327,0.0798465630881031
10.23852,10.281703753608625,0.0794693201674547
10.240904,10.308063511967614,0.0790608713589806
10.243299999999998,10.329767442527713,0.0786691806118753
10.245688,10.349748811595116,0.0782794046405385
10.248084,10.366796914356325,0.0779036447125878
10.25048,10.385847117863946,0.0775189283181774
10.252868,10.40475755174471,0.0771392462509016
10.255247999999998,10.416730517826448,0.0767918991418047
10.257644,10.428703483908182,0.0764451376320995
10.260032,10.43788295331058,0.0761073098731998
10.262412,10.44170774677979,0.0758043196105089
10.264808,10.439898325062082,0.0755444694444843
10.267195999999998,10.43743727703832,0.0752784227625392
10.269576,10.433765524201055,0.075023028199048
10.271971999999998,10.42753259210994,0.0747944044219509
10.274359999999998,10.417155688899124,0.0745889471281313
10.276751999999998,10.410643217554282,0.074369384266359
10.279152,10.407715638821694,0.0741449835800015
10.281536,10.403856894529328,0.0739228548593519
10.283919999999998,10.39943907172952,0.0737182850372755
10.286324,10.393810544116215,0.0735244162241927
10.288708,10.390556204301664,0.0733369995781607
10.291092,10.383809519673475,0.0731769455861211
10.293496,10.377854230978208,0.0730187403668682
10.295884,10.374832208589137,0.0728497270108416
10.298264,10.370739251013426,0.0726873572013737
10.300667999999998,10.367856998251211,0.0725145390578077
10.303055999999998,10.372563839594086,0.0723204179171922
10.305436,10.379412551310237,0.0721143989896007
10.307832,10.385702184518944,0.071925039969643
10.31022,10.395716479966769,0.0717270365828652
10.3126,10.414158487280837,0.0714837731824148
10.315003999999998,10.43511445202052,0.0712436394115202
10.317388,10.460866014185958,0.0709900232351529
10.319768,10.487688511538035,0.0707303374658592
10.322167999999998,10.514511008890109,0.070470654216496
10.324556,10.539191635868908,0.0702246797656361
10.326936,10.560799226914652,0.0699944067889589
10.329339999999998,10.582267048333534,0.0697683821273286
10.331727999999998,10.600010207513304,0.069550015803633
10.334108,10.62189733781277,0.0693125777814313
10.336507999999998,10.63884910105962,0.0690933114092898
10.338891999999998,10.661946936172583,0.0688459185297313
10.341276,10.684113605725772,0.0686006304897425
10.343671999999998,10.703998635278817,0.0683725287318489
10.346056,10.722672960018365,0.0681547151161319
10.348436,10.739205414384632,0.0679493701646001
10.350832,10.750942271325153,0.0677580870395526
10.35322,10.758255617892258,0.0675946774741144
10.3556,10.770132244459637,0.067400449941435
10.358004,10.782428179907596,0.0671947289787334
10.360392,10.786436173116169,0.0670275805292138
10.362772,10.787790439272266,0.0668616634819613
10.365175999999998,10.786351208749029,0.0667011938687768
10.367563999999998,10.783980812666012,0.0665422544108864
10.369944,10.781750186209855,0.0663790715638088
10.37234,10.778076537514726,0.0662067421150887
10.374728,10.774542658446451,0.066030426601382
10.377112,10.7742215849381,0.0658376973099561
10.379507999999998,10.778696108855495,0.0656333531521016
10.381892,10.781168532026472,0.0654369815032994
10.384276,10.78620213445131,0.0652175277171716
10.386679999999998,10.78858200982367,0.0649989130263276
10.389064,10.79310375556931,0.0647697344297402
10.391444,10.795111543889334,0.0645363736834832
10.393847999999998,10.79753864108994,0.064290826962352
10.396235999999998,10.801967839036962,0.064038751414976
10.398612,10.805465871424206,0.0637875698334101
10.40102,10.811245543811587,0.0635213753176049
10.403403999999998,10.808597504332722,0.0632937341008166
10.405784,10.805809695226994,0.0630705985532454
10.408184,10.806374461308042,0.0628270911267724
10.410571999999998,10.80787039294887,0.0625822854714861
10.412952,10.808295389403057,0.0623427109109642
10.415347999999998,10.81272458735008,0.0620908110265627
10.417735999999998,10.81780541160316,0.0618455898319956
10.42012,10.825120654028131,0.061612674877755
10.422524,10.828152155706556,0.0613998327684166
10.424912,10.828902017384836,0.0612019102703399
10.427291999999998,10.826718612756922,0.0610117600225477
10.429688,10.81946007144954,0.060838876227904
10.432071999999998,10.814855257194628,0.0606669528265856
10.434456,10.813043939619051,0.0604919340466451
10.43686,10.8090907516702,0.0603270115575203
10.439248,10.808722456333603,0.0601615404637129
10.441627999999998,10.80993695286284,0.0600019580011783
10.444024,10.809289118272522,0.0598445608533844
10.446412,10.811574549988396,0.0596801963395762
10.448795999999998,10.812789046517636,0.0595207367488525
10.451192,10.819078679726342,0.0593438554313415
10.453575999999998,10.82122434181536,0.0591825408014205
10.45596,10.8212281335311,0.0590309206449235
10.458355999999998,10.824025421926171,0.0588769870417744
10.460739999999998,10.830035515881162,0.0587089251899772
10.46312,10.83045861647748,0.0585465351399574
10.465519999999998,10.83223219151416,0.058371852842319
10.467904,10.83228320505814,0.0581950839358175
10.470288,10.84104146972209,0.057976856250153
10.472684,10.848077172893342,0.0577562978922319
10.475068,10.855392415318317,0.0575279019351725
10.477452,10.867131168116703,0.0572763332446186
10.479855999999998,10.875145258675978,0.0570288620702546
10.482243999999998,10.882228183675476,0.0567832547121784
10.484624,10.89080135274219,0.0565217542318477
10.48702,10.89900243475657,0.0562462890268779
10.489411999999998,10.906691660091752,0.0559606597198202
10.491792,10.914380885426931,0.0556749157053845
10.494188,10.921418484456057,0.0553828844649031
10.496576,10.931017262739037,0.0550711732834065
10.49896,10.94117511952946,0.0547448131249144
10.501355999999998,10.956036025947014,0.0543896336879962
10.50374,10.973038802737848,0.0540257631287934
10.50612,10.987667391729929,0.0536538676075761
10.508523999999998,10.99829177922917,0.0532921488958591
10.510915999999998,11.011709663407752,0.0529288588279379
10.513296,11.023544755720495,0.0525597420827203
10.515691999999998,11.0355196176601,0.0521866522056181
10.518083999999998,11.040137702920097,0.051839803139761
10.520464,11.04568695373987,0.0514920969117325
