Time,Force,Position
10.288276,7.203441814577654,0.156791332402354
10.290655999999998,7.294450451005368,0.1559858267711815
10.324132,7.305293884925011,0.1556849913196551
10.326516000000002,7.329502293621379,0.155461169396522
10.328912,7.354037463399711,0.1551864027713494
10.331296000000002,7.383927309111232,0.1548092409909739
10.333676,7.416378334076615,0.1543693388150906
10.336072,7.4538591697510945,0.1537698510131378
10.33846,7.4895248961342595,0.1531718196433122
10.340856,7.520022938039335,0.1526364653409922
10.343252,7.541581411398966,0.152234244900482
10.345636,7.567236634050047,0.1517869658788021
10.348020000000002,7.595266044499883,0.1513243984833956
10.350424,7.635493155025455,0.1507222274409417
10.352808,7.676604209282561,0.1501541724796871
10.355188000000002,7.711848730927277,0.1496818882063004
10.357584,7.750678145184248,0.1491673342554681
10.359968,7.782337774216711,0.1487431581616271
10.362348,7.809668336532248,0.1483304954347864
10.364744000000002,7.838256825489523,0.1478575931817213
10.367132000000002,7.866101140342126,0.1473435101367303
10.369528,7.887055209223941,0.1468944028204461
10.388636000000002,7.850050383547633,0.1468535919149428
10.39102,7.856056685786883,0.1467639457203654
10.393424,7.863925319145692,0.1466497794457553
10.395812,7.880501203624467,0.1463875000044189
10.398192000000002,7.894378035080394,0.1460915109745141
10.400588,7.90006136795342,0.1458510812684839
10.402976,7.903742600080027,0.1456376236146154
10.405356,7.902348695527164,0.1455006601300537
10.40776,7.907380402094131,0.1452571152644491
10.410148,7.918837719780931,0.144909645590079
10.412528000000002,7.92428873522848,0.144647723332433
10.414932,7.933929047766096,0.1443852807377801
10.41732,7.952973563700112,0.1440385093817806
10.4197,7.978443690753959,0.1435870987179316
10.422104,8.00475243556897,0.1431024167765123
10.424492,8.031340719637699,0.1426042776393737
10.426872,8.063376227438237,0.1420426999897782
10.429268,8.099136397477888,0.141434535100788
10.431656,8.135642637480084,0.1407683842348376
10.434036,8.166609105951853,0.1401365732539794
10.436432,8.189195084385618,0.1395998582191942
10.43882,8.202282415766497,0.1392123037285522
10.441199999999998,8.222958841252462,0.1387362491733689
10.443596,8.228596848155114,0.1384396883421359
10.44598,8.232092984684488,0.1381785740156231
10.44836,8.241500979796626,0.1379050313203598
10.450768,8.259382012745387,0.1375678249923075
10.453152,8.287832627933673,0.1370738341733863
10.455532000000002,8.308042522710815,0.1366678060073042
10.457928,8.317450517822953,0.1363990834187413
10.460316,8.32681129110685,0.136162344182593
10.462712,8.34059557476416,0.1358542811347807
10.465112,8.355125928384012,0.1354827399459547
10.4675,8.360391848234327,0.1351765799365523
10.46988,8.356997738792916,0.1349712424945253
10.472276,8.35434780345618,0.1347971534901553
10.474664,8.35314089035842,0.1346230337468547
10.477044,8.351561890208323,0.1344336927239566
10.47944,8.342393795953138,0.1343279906139415
10.481828,8.335552667668464,0.1342468080664229
10.484212,8.335275024272612,0.1341612127713211
10.486608,8.343657410168486,0.1339749558660878
10.488996,8.346500024533933,0.133813875913599
10.491376,8.353067301138497,0.1336134784012418
10.493772,8.356374550354897,0.1334956256716995
10.49616,8.363406461810412,0.1333399702554411
10.500944,8.352376036435672,0.1332521724475852
10.503332,8.343066276695756,0.1332494098680612
10.505712,8.341438158859546,0.1331927179001741
10.508112,8.346887278449225,0.1330437965735502
10.510496,8.34861173579979,0.1329337821543037
10.512876,8.347635244269638,0.1328805554880572
10.515284,8.353921085762611,0.1327937567460529
10.517668,8.370682065838619,0.1326273073633079
10.520052,8.389584916287907,0.1324307248161992
10.522448,8.406253348565299,0.1322376229342128
10.524836,8.422270154536633,0.1320422750923346
10.527216,8.439729982746947,0.1318461075857387
10.52962,8.458028428718416,0.1316142423636774
10.532008,8.478423419092792,0.1312919872720588
10.534388,8.493138868309881,0.1309970642318901
10.536792000000002,8.505572677526832,0.1307385871254121
10.539176,8.52056766599764,0.1304335927285582
10.54156,8.536960350737052,0.1300655541913959
10.543956,8.54581116319962,0.1297409408221707
10.546344,8.555453371595105,0.12941255785326
10.548724,8.573615839655456,0.1289962241264004
10.55112,8.592569703648723,0.1285787830683518
10.553508,8.6075665879774,0.1281759058869587
10.555888,8.621911846000021,0.1277735854892145
10.558288,8.637607578463,0.1273461316949713
10.560676,8.654933324620059,0.1268826581604727
10.563056,8.668302091112526,0.1264341995156603
10.565452,8.670404323089038,0.1260598409168007
10.56784,8.667478640214318,0.1257117392579752
10.57022,8.66548412289938,0.1253550875849818
10.572616,8.662698209651523,0.1250007589496947
10.575004,8.66247347565752,0.1245999772337035
10.577384,8.659035936103606,0.1242420848539021
10.579784,8.653828613228747,0.1239294185696801
10.582172,8.65364920520512,0.1235917899154044
10.584568,8.658265394607248,0.1232084826278371
10.586964000000002,8.65738713844932,0.1229009905058816
10.589352000000002,8.660745401209702,0.1225720538810531
10.591732,8.670062744381095,0.1222102030985166
10.594132000000002,8.681801497179483,0.1218096603131606
10.596516,8.6903746662462,0.1214192509557356
10.5989,8.694292007514024,0.1210671106877254
10.601296,8.702213550274683,0.1206727435273417
10.603684,8.7090641578487,0.1202941700079402
10.60606,8.713493355795721,0.119954766666004
10.608467999999998,8.712707647436412,0.1196767647740612
10.610852,8.714435896502714,0.1193881977362118
10.613236,8.72570811859228,0.1190446831489753
10.615632000000002,8.742659881839131,0.1186830842716181
10.61802,8.757190235458985,0.1183591908620705
10.6204,8.771021740944539,0.1180639169186221
10.622800000000002,8.786156499042207,0.11777936752509
10.625184,8.803805214565491,0.1174837930377197
10.627568,8.817729267849662,0.1172178938679242
10.629964,8.8271372629618,0.1169842429881245
10.632352,8.832680826207968,0.1167869866623185
10.634732,8.839295324640766,0.1165752814815863
10.637128,8.842045391207597,0.1163997859511339
10.639516,8.842141730721952,0.1162408900791921
10.6419,8.83753502060917,0.1161514328757584
10.644296,8.837676686093898,0.1160530042710039
10.646684,8.845127906429996,0.1159025940148709
10.649068,8.848807242698737,0.1158140909406591
10.651464,8.851275874153979,0.1157443766912043
10.653852,8.856677771915413,0.1156478549525287
10.656236,8.865804331915962,0.1155226685368832
10.658632,8.872277164864038,0.1154136117468592
10.661012,8.876375810013357,0.1153095795734949
10.663392000000002,8.877448641057864,0.1152055855249208
10.665788,8.88094288172937,0.1150650422799203
10.668171999999998,8.88713807128159,0.1148771629599317
10.670548,8.888677433034925,0.1147240746806944
10.672944,8.889704938109059,0.1145613276116589
10.675328,8.894177566168587,0.1143820487603427
10.677708,8.901303921280586,0.1141877516119567
10.68012,8.909221672325506,0.113992177849704
10.682508,8.921003855236403,0.1137639135809733
10.684884,8.935299995572908,0.1135269584435945
10.6873,8.955322898894948,0.113246158573959
10.689684,8.979769312590403,0.1129097868494001
10.692063999999998,8.99583523624785,0.1126345475311241
10.69446,9.01031836803946,0.1123644887662429
10.696844,9.026431513525152,0.1120599524163357
10.699224,9.041613493451065,0.1117619009019449
10.701636,9.05279127188414,0.1115016029472531
10.704024,9.06210671919766,0.1112547079776826
10.706404,9.0697921528171,0.1110412268628824
10.708796,9.07612711199618,0.110851414520105
10.71118,9.08376532378738,0.1106708030267149
10.71356,9.094848658563969,0.1104764745026534
10.715952,9.1050933755794,0.1103158526887895
10.71834,9.11734019334125,0.1101366694796827
10.720716,9.130098867782294,0.1099680265757128
10.723112,9.146349887036976,0.1097551754233288
10.7255,9.164882546291793,0.1095156556496814
10.727876000000002,9.18355497517347,0.1092711906805109
10.730292,9.199294137748952,0.1090514442416477
10.732679999999998,9.211588177339042,0.108845876637053
10.73506,9.21922638913024,0.1086726665583814
10.737472,9.230729032787414,0.1084722172680456
10.739856,9.250100309803392,0.1082087854168807
10.742236000000002,9.267329716446095,0.1079689934684612
10.744652,9.284279583835076,0.1077402219062163
10.747036,9.302952012716757,0.1075051129884196
10.749416,9.32469747753149,0.1072418651090207
10.75182,9.349236439025562,0.1069618253307863
10.754204,9.378198910893047,0.1066324200913017
10.756588,9.40623021720075,0.1063083573470918
10.758992,9.436403393881736,0.1059646533366267
10.761375999999998,9.463131447577323,0.1056364226513562
10.763756,9.48762508310102,0.1053044910536099
10.766148,9.512118718624714,0.1049732938805439
10.768532,9.537031663028989,0.1046280851421201
10.770912,9.555518996313433,0.1043491191100816
10.773308,9.56986235847818,0.1041091927498927
10.775692,9.582995015829432,0.1038849769005118
10.778072000000002,9.59799000430024,0.1036499034802007
10.780468,9.619503151689496,0.1033778709765832
10.782852000000002,9.637663723891976,0.1031419650255419
10.785232,9.649817993855208,0.1029558686156873
10.787644,9.658107831952464,0.1027976863145895
10.790032,9.663743942997248,0.1026501299721661
10.792412,9.66979936292261,0.1024876475412148
10.794816,9.675622465422498,0.102305691663226
10.7972,9.67865207124305,0.1021396082421934
10.79958,9.679027950011124,0.1019845528874111
10.801976,9.676191023219282,0.1018604878006704
10.80436,9.674052944561744,0.1017110750513534
10.80674,9.669400908478588,0.1015675799720667
10.809156000000002,9.66647143388813,0.1014190655043961
10.81154,9.668989183029485,0.1012454328170156
10.81392,9.672438097730613,0.1010670989215709
10.816316,9.672674206871829,0.1009186564792675
10.818704,9.672118920080123,0.1007695607067877
10.821079999999998,9.6724947988482,0.1006152851178451
10.82348,9.676223252803052,0.1004262030419367
10.825864,9.67743774933229,0.1002422470261254
10.828244000000002,9.67134269101016,0.100093738222325
10.830660000000002,9.669531373434582,0.0999051416025558
10.833044,9.667999595112729,0.0997063241788288
10.835428,9.664885024925038,0.0995072640585658
10.83784,9.666426282536236,0.099283257642383
10.840228,9.668619166453496,0.0990647179902552
10.842604,9.67118413742309,0.0988615680896855
10.845008,9.67654260507202,0.0986437723144472
10.847396,9.685113878280866,0.0983973521643282
10.849776,9.699319366676624,0.0980941502524241
10.852172,9.713385085445523,0.0977961725487936
10.85456,9.726379869027785,0.0975082436101008
10.856940000000002,9.735789759997791,0.0972346572016818
10.859344,9.738821261676216,0.0969893864545928
10.861732,9.740130201861938,0.0967487094095992
10.864112,9.7432089253686,0.0964736792191354
10.866516,9.751921864062178,0.0961417280455968
10.8689,9.760122946076557,0.0957998072702588
10.87128,9.768324028090936,0.0954600526220187
10.873684,9.781320707531066,0.0950942410617616
10.876072,9.796179718090752,0.094718606231555
10.878452,9.8111784982773,0.0943398804596682
10.880848,9.825106343277207,0.0939697380776986
10.883232,9.84168791532959,0.0935917621028631
10.885616,9.857757630702777,0.093205920212306
10.888016,9.872104784583264,0.0928245068237908
10.890404,9.884869146597918,0.0924425239394991
10.892784,9.896981882306514,0.0920563171074123
10.895188,9.904159250962495,0.0917010520857569
10.897572,9.901977742192452,0.0914167085345378
10.899956,9.901239255661384,0.0911385433564026
10.902352,9.902363100249874,0.0908524095725438
10.904736,9.904278340771286,0.0905663490401063
10.907115999999998,9.910989178718443,0.0902552841542931
10.90952,9.91756024703874,0.0899487162593502
10.911908,9.924363632784518,0.0896620966669207
10.914288,9.927534904089798,0.0894167196960147
10.916692,9.933639441701274,0.089155537634064
10.919076,9.933877446700356,0.0889271131284588
10.921456,9.933463825393384,0.0886945497548116
10.923852,9.934121139273053,0.0884535111937926
10.926236,9.930914021286744,0.0882320511036824
10.928632,9.931850874420128,0.0879817322136633
10.931024,9.931856561993738,0.087735591917284
10.933412,9.927718278447651,0.0875179399502857
10.935792,9.924650930088204,0.0872918689594245
10.938196,9.922654516915395,0.0870574415547854
10.94058,9.920518334115725,0.0868278198679884
10.94296,9.92117564799539,0.0865869519984767
10.945356,9.929981134487583,0.0862939318967282
10.947744,9.93920592986036,0.0859880263411422
10.950120000000002,9.9444265237403,0.0857052504420453
10.952524,9.951928757620376,0.0854020272101421
10.954912,9.955426790007618,0.0851224027601921
10.957292,9.96106669276814,0.084826995078127
10.959688,9.969128005155657,0.0845073818842763
10.962072,9.976397921610255,0.084185837352231
10.964452,9.980455032504942,0.083889051348891
10.966848,9.989307740825378,0.0835702773180418
10.969236,9.992666003585764,0.0832959863691154
10.971616,9.997746827838842,0.0830205979596569
10.974012000000002,10.005341609517536,0.0827439334460594
10.976400000000002,10.009723585636316,0.0824915577516867
10.97878,10.015036727314872,0.0822365423037449
10.981176,10.023143365672766,0.0819713430068602
10.98356,10.03017906884402,0.0817141517357761
10.985936,10.038285707201911,0.0814501351323325
10.988332,10.047603050373304,0.0811747975058802
10.99072,10.05892249429111,0.0808899465140624
10.993100000000002,10.06344424003675,0.0806357426391252
10.995512000000002,10.06610365466283,0.0803879595698023
10.997896,10.071324248542773,0.080111027182227
11.000276,10.074402972049434,0.0798494807772984
11.002672,10.08269660186243,0.0795561221524124
11.00506,10.092061166862065,0.0792570265945528
11.00744,10.097421530368866,0.0789787392116163
11.009856,10.10692586499536,0.0786764320851412
11.012239999999998,10.11992254443549,0.07834480950929
11.014624,10.13319876312934,0.0780058497581667
11.017036,10.15168988812952,0.0776358957697773
11.019424,10.165664954957672,0.0772753458286951
11.021804,10.180199100293263,0.0768978468927638
11.0242,10.195943950442356,0.0765092452218149
11.026588,10.207964138352336,0.0761309453464978
11.02898,10.221474570329535,0.0757337527001223
11.031384,10.234845232679874,0.0753407192879389
11.033772,10.245003089470291,0.0749687623933109
11.036152,10.250085809581243,0.0746219972607659
11.038556,10.25023316263958,0.0742964220463079
11.040944,10.257038444243229,0.0739493970825298
11.043324000000002,10.26463512177979,0.0736045365336809
11.04572,10.275397383048023,0.0732689135405326
11.048108,10.28709080987604,0.0729311554169042
11.050488,10.290356524837806,0.0726424388179265
11.052892,10.28840733349324,0.0723827642642883
11.05528,10.28939140845487,0.0721118333569685
11.057659999999998,10.287162677856582,0.0718612166967489
11.060056,10.28037066725802,0.0716456440650452
11.062444,10.271436786286182,0.0714430827588363
11.064824000000002,10.255425667888458,0.071272535939423
11.06722,10.244722003595678,0.0710974523122721
11.069604000000002,10.2345301959821,0.0709331617263582
11.071984,10.226852345794132,0.0707714601606849
11.074376,10.222619618591564,0.0706097403882388
11.076764,10.217408504000968,0.0704782627575088
11.079160000000002,10.217132756462984,0.070328511000606
11.081564,10.2185795704177,0.0701787956917686
11.083948,10.226265004037144,0.0700234973406671
11.086328000000002,10.238746035082338,0.0698540993944018
11.088732,10.246803555754118,0.0697144184428142
11.09112,10.255233163478234,0.0695900098728
11.0935,10.2576564689631,0.0694900965249993
11.095892,10.259520695940523,0.0694071983724459
11.09828,10.271255657023175,0.0692880218155512
11.10066,10.286855049971798,0.0691568047954405
11.103064,10.301895364412982,0.0690431401857038
11.105448,10.31758730516022,0.0689360646898458
11.107828,10.33407064184038,0.0688310268799645
11.110224,10.349994900013096,0.068742910278904
11.112612,10.37457918747754,0.0686291810244138
11.114992,10.394088338262511,0.0685379577139043
11.117388000000002,10.412386784233982,0.0684574079716497
11.119772,10.425749863152843,0.0683949719043221
11.122152,10.437110841325287,0.0683405689574741
11.124556000000002,10.449962063564952,0.0682677531022091
11.126944000000002,10.459320940990976,0.0682220037311906
11.129324,10.46961098397678,0.0681745892864908
11.131728,10.479389170283389,0.0681168983033224
11.134116,10.491681314015606,0.0680628977729787
11.136496,10.505743241068773,0.067982511257135
11.1389,10.519433081069591,0.0678875582067322
11.141288,10.539268992936528,0.0677659343862231
11.143668000000002,10.557661882564489,0.0676351616454443
11.146072,10.570328009206914,0.0675196450117094
11.148456,10.584065071035983,0.0673990586414972
11.150836000000002,10.59701073693213,0.0672762291518871
11.15324,10.61037571170886,0.0671413356711104
11.155628,10.626813722418646,0.0669936630742425
11.158008,10.646604308315206,0.0668251387819868
11.160404,10.66108744010682,0.0666589883827554
11.162792,10.6813445567122,0.0664532003004207
11.165172000000002,10.702440291078746,0.0662237527458158
11.167568,10.72502626951251,0.0659762951685263
11.169952,10.748450865707436,0.065704717599306
11.172328,10.766428238170551,0.0654384519349063
11.174732,10.782590501342357,0.0651485406762942
11.17712,10.798660216715543,0.0648369097961211
11.179496,10.810074104289836,0.0645327711625291
11.181892,10.813666580333566,0.064225968794878
11.184276,10.817259056377296,0.063919700737076
11.186656,10.821270841301608,0.0636018936838442
11.18906,10.823187977680886,0.0632694888358335
11.191448,10.829668394060436,0.0629087282479338
11.193832,10.837778824134066,0.062527216318414
11.196228,10.843515066408942,0.0621384596678531
11.198612,10.8491587608852,0.0617273911195321
11.200992,10.858434569801956,0.0612913538757507
11.203408,10.865475960546815,0.0608440113342141
11.205792,10.871214098679562,0.0603847685461217
11.208172,10.879094107185583,0.0599156944722755
11.21058,10.880828043825495,0.0594689401093078
11.212964,10.884424311584963,0.0590218312086707
11.215344000000002,10.889231284157932,0.0585664085865645
11.217748,10.89254801266368,0.0581267495813571
11.220136,10.90038079934146,0.0576859818338904
11.222516,10.90900498195216,0.0572480279345434
11.224912,10.913065884562585,0.0568357168224778
11.2273,10.9212707582927,0.0564085650673831
11.229684,10.93198958944843,0.0559856963751243
11.23208,10.939076306163663,0.0555876592045443
11.234464,10.949887685118014,0.0551890915633828
11.236844,10.955856244818367,0.0548235068574107
11.239248,10.960055021197784,0.054483263522032
11.241632,10.960481913509842,0.0541713516422444
11.244012,10.960349727314458,0.0538746244085055
11.246416,10.960449858544552,0.0535966206406805
11.248804,10.953565300147377,0.0533604673781839
11.251184,10.9442593321232,0.0531399484687666
11.253588,10.931321249658527,0.052943349743131
11.255976,10.918755254246191,0.0527616079427694
11.258356,10.908982755513192,0.0525779562065898
11.260752,10.895578142339696,0.0524186098240631
11.26314,10.879472580285483,0.0522826018025214
11.26552,10.8685819245376,0.0521292469768599
11.267924,10.85783103841658,0.0519722175218102
11.270312,10.84731246972104,0.0518336279340563
11.272692,10.84452276475744,0.0516847664536386
11.275096,10.840103046099768,0.0515553246038143
11.27748,10.838476824121424,0.0514251496820232
11.27986,10.842205278076278,0.0512746414411965
11.282264,10.83750602016488,0.0511527604070028
11.284652,10.838952834119596,0.0510140995338399
11.287032,10.835604050648556,0.0508801195112664
11.289428,10.836259468670354,0.0507374252075259
11.291816,10.835704181878652,0.0506022187480536
11.294196,10.832075859153893,0.0504749603517016
11.296596,10.832731277175691,0.0503314079071271
11.298984,10.83790275336952,0.0501905686134765
11.301364,10.84586772624268,0.0500488299276857
