Time,Force,Position
11.847535999999998,8.819279826949792,0.1521543542806577
11.849936,8.982775815697616,0.1507138861944501
11.852324,9.128209467615187,0.1494806435904285
11.90488,9.089245971304967,0.1490319023889517
11.907276,9.097671787313349,0.1489978829019416
11.916832,9.139472210415406,0.1489611369290736
11.919228,9.15543800284276,0.1489603057110647
11.921623999999998,9.18006382456184,0.148852002792289
11.924012,9.208833617400613,0.1486850330218752
11.926396,9.234250835052608,0.1485751909780535
11.928795999999998,9.257526182331327,0.1484996986242401
11.93118,9.27526175807962,0.1484532077185197
11.933564,9.30277552013452,0.1482561328598637
11.935959999999998,9.33289768327152,0.1479812529224181
11.938347999999998,9.357619844504953,0.1477355171550824
11.940728,9.378757113126134,0.1475258221350278
11.943127999999998,9.400266468799652,0.1473258885211946
11.945512,9.423358616339009,0.1471167575981334
11.947896,9.45217752686389,0.1468445606998941
11.950292,9.480716898135055,0.1465915686220161
11.95268,9.518660472802615,0.1462697593047849
11.95506,9.55110960191013,0.1460294905673546
11.957456,9.580765234338305,0.1458199127910203
11.959844,9.617498104192371,0.1455230232870188
11.962228,9.653439578113518,0.1452304936388731
11.964624,9.690871296101886,0.1449080948479782
11.967012,9.731143732597827,0.1445295741720045
11.969396,9.771323621295156,0.1441284474130106
11.971792,9.808849782940008,0.1437530626412176
11.97418,9.849356432719302,0.143319768433073
11.97656,9.8852072546997,0.1429300722208049
11.97896,9.924363430038634,0.14251903801949
11.981348,9.958212151272615,0.1421564654438576
11.983728,9.989639462879603,0.1418384538367212
11.986124,10.019716300046229,0.1415488799698227
11.988512,10.051375929078691,0.1412550185739319
11.990908,10.094628853709075,0.1408439066854434
11.993303999999998,10.136950612779678,0.140439546456175
11.995696,10.175035852931972,0.1400662722766823
11.998076,10.206882473419537,0.1397461326860173
12.000476,10.234120487936456,0.1394434886829547
12.002859999999998,10.264199220960952,0.1390858139195707
12.005244,10.291531679134357,0.1387248895949609
12.00764,10.315046927270032,0.1383780095917854
12.010027999999998,10.339680332420588,0.137991177310264
12.012412,10.35993744902597,0.1376352370814969
12.014808,10.375538737832462,0.1373206073987877
12.017195999999998,10.38941746514626,0.1370175702708763
12.019579999999998,10.404274579848078,0.1366802884221093
12.021976,10.417129593803478,0.1363672107266188
12.024363999999998,10.437061845184768,0.1359788710690472
12.026747999999998,10.45769294470036,0.1355660657984024
12.029144,10.47939497940259,0.1351420066525063
12.031532,10.498862595932923,0.1347224955504218
12.033915999999998,10.516375333545088,0.1342971293197733
12.036312,10.52886015630602,0.1338976740495797
12.0387,10.530170992349612,0.1335911099711516
12.041083999999998,10.53059788466167,0.1332634581434748
12.04348,10.530932229175107,0.1329137345394438
12.045868,10.531174025889932,0.1325414445997527
12.048248,10.527411621111922,0.1322085910126736
12.050648,10.523369677080192,0.1318854887444356
12.053036,10.521981460100935,0.1315448217747751
12.055419999999998,10.517380437561764,0.1312416240474421
12.057816,10.512639645395732,0.1309441102392475
12.060208,10.511903054722533,0.1306067965940217
12.062587999999998,10.513959960728672,0.1302468156475744
12.064979999999998,10.518018967481224,0.12986756644341
12.067367999999998,10.519936103860502,0.1295140988658813
12.069748,10.518547886881246,0.1291750907760019
12.072152,10.51143290691646,0.1288843788284249
12.07454,10.505249092511452,0.1285868488707312
12.07692,10.495992242173388,0.1283202341512643
12.079324,10.487574009596488,0.1280240170246421
12.081708,10.47580320183281,0.1277676218963618
12.084087999999998,10.468268912987444,0.1274902889693948
12.086484,10.464179747127467,0.1271934422934399
12.088872,10.465398035372443,0.1268644973309117
12.091255999999998,10.46498630992334,0.1265673561903982
12.093652,10.46187363559352,0.1263132575402804
12.09604,10.464208184995508,0.1260218544668616
12.09842,10.470267396636608,0.1257035240752037
12.100815999999998,10.475395442717932,0.1253928423496027
12.103203999999998,10.485878164732448,0.1250240731691607
12.105588,10.492077146000408,0.1247021685985911
12.107983999999998,10.496134256895091,0.1244043772499497
12.110371999999998,10.496978562229865,0.1241411527700048
12.112752,10.495541227564496,0.1239063931917605
12.115156,10.490379230660016,0.1236981330931332
12.117544,10.483447450434593,0.1235255912355957
12.119924,10.479169397261646,0.1233371565380821
12.122319999999998,10.471119460021344,0.1232036293359345
12.124707999999998,10.464792084273736,0.1230612418898491
12.127088,10.45627561632461,0.1229700139773818
12.129483999999998,10.454417076920793,0.1228262827885889
12.131871999999998,10.44948550158392,0.1227126535835476
12.134268,10.447487192553242,0.1225739520520482
12.136664,10.442974926096948,0.1224457696686079
12.139052,10.439813134081012,0.1222961293210128
12.141431999999998,10.443728579490967,0.1220809457844285
12.14384,10.44391936266181,0.1218922688691185
12.146224,10.43945431803376,0.1217364767327333
12.148608,10.434337647099651,0.1215773186985524
12.151004,10.422935134672574,0.1214811111381855
12.153392,10.416467989298107,0.1213428298623843
12.155772,10.411443866162616,0.1212062296472338
12.158168,10.408142304519822,0.1210612323215325
12.160556,10.407122382877166,0.1208888067251627
12.162935999999998,10.409547584219904,0.1206998231278152
12.165332,10.418118857428752,0.120452884568727
12.16772,10.4254794258241,0.120222143810635
12.170099999999998,10.434330238286666,0.1199647701224524
12.1725,10.443740129256676,0.1196883222936264
12.174888,10.450775832427928,0.1194151132907712
12.177267999999998,10.451153607053872,0.1191920401070771
12.227452,10.134659518435695,0.1190514787378
12.229848,10.137964871794226,0.1190410462236803
12.232236,10.148859319257843,0.1189750405151224
12.234616,10.165620299333856,0.1188620716079552
12.237012,10.189039207955174,0.1186992333741395
12.2394,10.216462318069324,0.1185022675444432
12.24178,10.239881226690644,0.1183396965146835
12.244176,10.273590178297765,0.1180793441261782
12.246564,10.304226093971833,0.1178482070261456
12.248943999999998,10.335653405578816,0.1176174058261516
12.25134,10.370153753118858,0.1173579712850854
12.253728,10.40665620140532,0.1170849328019399
12.256111999999998,10.44143608819908,0.1168195925443318
12.258508,10.473142939059787,0.1165840276429398
12.260891999999998,10.504849789920492,0.1163484627415478
12.263288,10.534694309661642,0.1161262275968481
12.265688,10.564818368656512,0.1158954452331812
12.268076,10.59736383727838,0.1156332944278657
12.270456,10.625672786981934,0.1153878879287061
12.272856,10.650024757020898,0.1151508133550928
12.275244,10.67679813668686,0.1148845798569351
12.277624,10.705481069300625,0.114582657458666
12.280024,10.734071454115773,0.1142611462683419
12.282412,10.757586702251448,0.1139839865658315
12.284792,10.784734064827616,0.1136655912543289
12.287192,10.810019096284227,0.1133605912131766
12.28958,10.841589969233814,0.1129997514808801
12.29196,10.867434079197867,0.1126791794187529
12.294356,10.895047972482862,0.1123258898402601
12.296744,10.918937203528742,0.111994792848461
12.299128,10.94389736976126,0.1116556408846182
12.301524,10.963130773008247,0.1113548112434128
12.303912,10.98278348513582,0.1110402612330477
12.306296,11.001132944651271,0.110718036581433
12.308692,11.02311451860722,0.1103545340622023
12.31108,11.04751750219017,0.1099641081774666
12.31346,11.068335593160866,0.1095900926214948
12.31586,11.0885020578255,0.1092135221076246
12.318252,11.109459918423054,0.1088356308710851
12.320632,11.13148871420725,0.1084496841930026
12.323028,11.14993261737919,0.1080816305439954
12.325412,11.160787426446046,0.1077598572554224
12.327796,11.164704767713866,0.1074866770405967
12.330188,11.17011235304891,0.1071905174221149
12.332576,11.168582470584926,0.1069440661104048
12.334972,11.164678400322186,0.1066992149577385
12.337367999999998,11.156118502260554,0.1064793540257203
12.339755999999998,11.14890907863928,0.1062411236753
12.34214,11.140628719831373,0.1060120355448196
12.344535999999998,11.13504930990418,0.1057463804291529
12.346923999999998,11.12681617292451,0.1054910780075464
12.349304,11.119933510385202,0.105217190630341
12.3517,11.116635740458143,0.1049290458767009
12.354088,11.114129366464008,0.1046400090185409
12.356472,11.1048252942977,0.1043929227345876
12.358868,11.089794459145862,0.1041780974991899
12.361252,11.080630156606418,0.1039261997491808
12.363636,11.073607724440247,0.1036566446326712
12.366032,11.070869033020632,0.10335187586153
12.36842,11.065197075294824,0.1030650709500403
12.3708,11.058593952009238,0.1027822571837811
12.3732,11.056646656522538,0.1024762993379145
12.375584,11.061776598461734,0.1021208704935222
12.377968,11.06504420928137,0.1017743092873262
12.380364,11.069522524914504,0.1014140983645037
12.382752,11.074792236480556,0.1010533823899803
12.385148,11.083134983979663,0.1006710020941901
12.387543999999998,11.091477731478772,0.100289429272979
12.389931999999998,11.101822579724296,0.0998955391294502
12.392312,11.107604147969548,0.0995443132116135
12.394707999999998,11.11231478102816,0.0992012856878817
12.397095999999998,11.118747975579469,0.0988545381781153
12.39948,11.119082320092907,0.0985250188513962
12.401875999999998,11.12463157091268,0.0981584985498263
12.40426,11.131903383225149,0.0977863509602411
12.406644,11.143831023336512,0.0973927106226846
12.40904,11.1518942315819,0.0970216450367277
12.411428,11.15795533908087,0.0966646053967383
12.413812,11.160943410646786,0.0963298475355622
12.416208,11.166864748518895,0.0959789923315512
12.418596,11.173577482323926,0.0956279211946385
12.420976,11.180429985755811,0.0952738608488388
12.423372,11.18821365474748,0.094918347091608
12.42576,11.20000152523198,0.0945398194300751
12.428155999999998,11.21057869090298,0.094173195921413
12.430552,11.224880518813096,0.0937928061657062
12.43294,11.234479297096076,0.0934566321719532
12.435323999999998,11.243798536125336,0.0931294440977737
12.43772,11.24883403440804,0.0928337519727249
12.440108,11.255871633437163,0.0925249460381016
12.442491999999998,11.26477156358584,0.0922084875260242
12.444888,11.272600558547884,0.0919007331916205
12.447271999999998,11.28266397168182,0.0915978221773258
12.449656,11.287232939255702,0.0913397677850219
12.452051999999998,11.294315864255198,0.0910791188755538
12.454439999999998,11.301398789254696,0.0908194156589206
12.456824,11.30727100944069,0.0905712996074006
12.459219999999998,11.314726021492524,0.0903252633815767
12.461607999999998,11.31817683205152,0.0901012191517236
12.463988,11.319066463356664,0.0899052626975087
12.466387999999998,11.319676555408083,0.089717421451426
12.468771999999998,11.317725468205646,0.0895575362212204
12.471156,11.31228203618957,0.0894292245653992
12.473551999999998,11.301204388986587,0.0893470468548437
12.475939999999998,11.2906385984628,0.0892736723444991
12.478324,11.2739267360729,0.0892374081558151
12.480719999999998,11.263640484802831,0.0891555102685881
12.483107999999998,11.252283298346123,0.0890809898033924
12.485488,11.243859378195616,0.088991891050737
12.487887999999998,11.243443861030771,0.0888594145141909
12.490275999999998,11.243028343865932,0.0887270272182557
12.492656,11.241541891514451,0.0886020523854447
12.495052,11.242848935842304,0.0884672952407142
12.49744,11.24215387942374,0.0883428741882753
12.499824,11.243600693378454,0.0882041183167514
12.502223999999998,11.241694932146393,0.0880915899051553
12.504611999999998,11.245515933899858,0.0879556838604719
12.506992,11.243051094160352,0.0878595942993294
12.509391999999998,11.2471044133393,0.0877407220376613
12.511776,11.25530170363794,0.0875969887094452
12.51416,11.269505296175833,0.0874227220832896
12.516555999999998,11.28692169427364,0.0872271456888983
12.518947999999998,11.304617631625163,0.087023794286876
12.521328,11.32953057602944,0.0867786386943628
12.523732,11.358727261180269,0.0865058217601125
12.52612,11.392207687077653,0.0862042641413756
12.528496,11.422615077041982,0.0859222453213898
12.5309,11.456886898872284,0.0856253289407921
12.533288,11.497165022941838,0.0853014967956318
12.535668,11.528224039212224,0.085030324818998
12.538072,11.55914328585575,0.0847638146811632
12.54046,11.594066733992111,0.0844791537547482
12.542839999999998,11.629269721382192,0.0841887881437084
12.545244,11.67075855026524,0.0838623707306155
12.547632,11.70866248653604,0.0835453120368581
12.550012,11.75364366023273,0.0831946973696488
12.552408,11.793969006130522,0.0828602248049577
12.554796,11.839788797588373,0.0824877400336231
12.557175999999998,11.884956962740164,0.0821134114409505
12.55958,11.924118825652704,0.0817676270741809
12.561964,11.95354972408688,0.0814612983649012
12.564348,11.98125806102836,0.0811579866054552
12.566744,12.009618024275898,0.0808605193511744
12.569128,12.031971685284184,0.0805914976074557
12.571511999999998,12.05032114479964,0.0803416118960684
12.573908,12.068530834688236,0.0800966161317677
12.576292,12.087392150882886,0.0798572553393925
12.578672,12.10318043114448,0.0796340390572358
12.581076,12.108166811741077,0.0794539695659881
12.583464,12.119299264203782,0.0792441014649511
12.585843999999998,12.132294047786042,0.079029927831492
12.588248,12.139282529129051,0.0788419960071226
12.590632,12.144780766404844,0.078672112187104
12.593011999999998,12.148276902934215,0.0785115886772045
12.59542,12.149072090582877,0.0783777755584485
12.597804,12.141067479312944,0.0782765661621739
12.600188,12.134645659908854,0.0781780644519408
12.602584,12.125942200504625,0.0780953429372674
12.604972,12.114165705167336,0.0780269132658525
12.607352,12.104531080203328,0.0779462287864383
12.609756,12.103556484531044,0.0778372129737312
12.612144,12.098298148112208,0.0777520694352409
12.614524,12.091317250200678,0.0776677750220485
12.61692,12.088620093035695,0.077559392069324
12.619308,12.088995971803774,0.0774369058802278
12.621688,12.091234181691403,0.077310436894346
12.624084,12.089887498966783,0.0771890222259895
12.626472,12.087889189936105,0.077062367076468
12.628851999999998,12.090826247958038,0.076916752124088
12.631256,12.08882793892736,0.0767898070133136
12.633644,12.084315672471067,0.0766621362469781
12.636024,12.080874341201415,0.0765281246743523
12.63842,12.077200692506285,0.0763778831360033
12.640808,12.071245403811012,0.076243063167688
12.643192,12.073205970302794,0.0760565323084761
12.645588,12.082523313474184,0.0758332048113105
12.647976,12.087324598473543,0.0756163202487119
12.650356,12.095618228286542,0.0753752151015478
12.652752,12.103120462166618,0.0751321638443069
12.65514,12.113044105673692,0.0748706798972879
12.657524,12.11793983432954,0.0746076545795567
12.65992,12.129121404478354,0.0743140368608413
12.662304,12.140862053134612,0.0740057919498911
12.664687999999998,12.148738269924896,0.0737096996591785
12.667084,12.154891925222485,0.0734148131375223
12.669472,12.152665090482063,0.0731367897817296
12.671868,12.155792931674846,0.0728310840868586
12.674264,12.161202412867755,0.0725111239994978
12.676652,12.169824699620584,0.072176024513516
12.679032,12.18179956156019,0.0718212444804709
12.681432,12.194985128313292,0.0714579176979613
12.68382,12.209660939133611,0.0710781008050852
12.6862,12.223405584394158,0.0707005894112567
12.6886,12.236638372975502,0.0703134603717749
12.690984,12.24293369375782,0.0699504155290862
12.693368,12.244014108233804,0.0696109296311716
12.695764,12.252591069016258,0.0692351188684213
12.698152,12.259165929052298,0.0688674120792805
12.700536,12.270815925767808,0.0684820099530668
12.702928,12.279392886550262,0.0681088190454497
12.705316,12.288202164758191,0.0677516147330823
12.707696,12.295288881473429,0.0673951296919148
12.710092,12.303166994121582,0.0670411137447679
12.71248,12.311976272329511,0.0666853267370973
12.714876,12.315570644231112,0.066349900670428
12.717271999999998,12.32610248393174,0.0659930064932254
12.719656,12.33449245325909,0.0656473773787922
12.72204,12.336876120347192,0.0653200472456838
12.724436,12.332182550009405,0.0650163611429354
12.726824,12.321482677432366,0.0647305142603913
12.729204,12.309711869668687,0.0644493072330325
12.731607999999998,12.301665724144122,0.0641634690448228
12.733995999999998,12.29254864343292,0.0638818454614021
12.736376,12.283571332348576,0.0635959263343195
12.738779999999998,12.277107978689846,0.0633128951687314
12.741167999999998,12.27064462503112,0.0630291060636656
12.743548,12.259757760998976,0.0627681089438922
12.745943999999998,12.24579786103378,0.0625169667289074
12.748331999999998,12.226762824389109,0.0622819473006322
12.750712,12.207588018117578,0.0620496000305211
12.753108,12.187761585539995,0.0618106333951581
12.755496,12.168726548895323,0.0615739694101852
12.757876,12.149411972996935,0.0613440903679391
12.760279999999998,12.1319597282181,0.0611119786465908
12.762667999999998,12.121584720865156,0.0608583148358309
12.765048,12.111721570191408,0.0606146911250248
12.767444,12.099437009890664,0.0603865437338298
12.769832,12.094741543695005,0.0601470702923477
12.772212,12.096983545298375,0.0598906617899736
12.774608,12.105743705820196,0.059627539841506
12.776996,12.115015723021212,0.0593741590116177
12.779376,12.118793294662176,0.0591465123834335
12.781772,12.1232224926092,0.0589246595758488
12.78416,12.130165647981835,0.0587073822749874
12.786544,12.136969033727611,0.058493799739226
12.78894,12.145494980966085,0.0582819516672349
12.791328,12.152530684137338,0.058084512217147
12.793724,12.164222215107484,0.0578832282211247
12.796119999999998,12.176705142010547,0.0576844431533114
12.798507999999998,12.193983666339362,0.0574789545575281
12.800888,12.215778248840206,0.0572739024506461
12.803287999999998,12.237153522460472,0.0570801478601265
12.805675999999998,12.258389026453878,0.0568902560322162
12.808056,12.27534078970073,0.0567169732905003
12.810451999999998,12.293083948880495,0.0565477650845455
12.812839999999998,12.304029409888097,0.0563898977862759
12.815224,12.316185575709198,0.0562243164509958
12.817619999999998,12.325408475224105,0.0560648123038428
12.820007999999998,12.332629273992596,0.0559108108123713
12.822392,12.343994043880777,0.0557456742474903
12.824787999999998,12.3534964826494,0.0555815994047183
12.827175999999998,12.36742243179144,0.0553986539225529
12.82956,12.384421416866536,0.0552078574841027
12.831955999999998,12.401420401941628,0.0550177657236271
12.834343999999998,12.418698926270444,0.054821359114243
12.836724,12.43611722022612,0.0546219401240252
12.839119999999998,12.454885988622154,0.0544116951450387
12.841508,12.470861260338854,0.0542034604220504
12.843888,12.48804723686905,0.0539883069073226
12.846287999999998,12.500437615973498,0.0537793210033325
12.848672,12.51017426802547,0.0535691160008805
12.851052,12.51432392671877,0.0533608909729184
12.853452,12.515680088732736,0.0531535155508124
12.855836,12.522670465933617,0.0529209117468706
12.858235999999998,12.520861044215913,0.0527013266048079
12.860632,12.527199795110732,0.0524620448944776
12.863015999999998,12.533538546005556,0.0522226647787936
12.8654,12.537083800221042,0.0519839704618416
12.867791999999998,12.535553917757056,0.0517565152556402
12.870179999999998,12.522151200441431,0.0515494067874021
12.87256,12.508748483125803,0.0513416344693849
12.874956,12.490270629130706,0.0511449735796573
12.877344,12.468859508829414,0.0509523316020773
12.879739999999998,12.443583956662147,0.0507634890273229
12.882136,12.415235368561826,0.050581287508705
12.884524,12.384093283782168,0.050398948706684
