Time,Force,Position
11.95884,9.07798821970889,0.1543407901663241
11.961236,9.124402936355208,0.1539826424503041
11.963632,9.17566047225552,0.1535297654917652
11.96602,9.222775932894008,0.1530443182722262
11.9684,9.25746137603128,0.1526608232230479
11.9708,9.28534912099639,0.1523736464639322
11.973184,9.301643570363575,0.1522351998854445
11.975568,9.310209155998816,0.1521921133589332
11.977964,9.321475690514772,0.1520906252377339
11.980348,9.334464786523425,0.1519735929503179
11.982732,9.349268991823392,0.1518705258296753
11.985136,9.373477400519755,0.1516929072903977
11.987524,9.413887710784692,0.1513554859730575
11.989908,9.449362653997015,0.1510817938118111
11.992304,9.48116015679847,0.1508227534324809
11.994692,9.514867212547722,0.1505172093386793
11.997072,9.55434825311075,0.1501201712612958
11.999468,9.59443559400946,0.1496723543489619
12.001856,9.635361552669332,0.1491902971015664
12.00424,9.673029379798916,0.1487069377287652
12.006636,9.69943067241254,0.1483178521756274
12.009024,9.727042669839667,0.1479122136427715
12.011404,9.751162322453157,0.1475624239614632
12.013804,9.777795932492255,0.1471939352556923
12.016192,9.81094770144981,0.1467603620649631
12.018572,9.84302853522072,0.146344064991846
12.020968,9.881068449402642,0.1458860013398986
12.023356,9.929071645488404,0.1453375893384522
12.02574,9.984152079000053,0.1447073760701837
12.028144,10.040071130272866,0.1440468974228198
12.030532,10.08896016594803,0.1434504831710422
12.032912,10.13175035158533,0.1429106446326519
12.035312,10.167929830505562,0.1424176202644012
12.0377,10.209511207187232,0.1418294480276885
12.04008,10.24713560420431,0.1412600413107499
12.042479999999998,10.280383712676215,0.1407271938039331
12.044868,10.309627619655286,0.1402441072634015
12.047248,10.339243613686696,0.1397767537450072
12.049644,10.368999377344966,0.1393056972035742
12.052036,10.393680004323766,0.1388915634717643
12.054416,10.42580995578079,0.1384136683353882
12.056815999999998,10.456868972051174,0.1379534621829975
12.0592,10.49486545612059,0.1374239631627651
12.061584,10.53635428500364,0.1368481365360772
12.06398,10.570813098289046,0.1363213580978701
12.066368,10.60373634153686,0.1357739371249853
12.068748,10.63270260512008,0.1352432688176207
12.071148,10.654778622732511,0.1347575404970855
12.073536,10.667542984747168,0.1343504350141888
12.075916,10.677281532657007,0.1339496520701962
12.078312,10.68757915907429,0.1335292311378804
12.0807,10.696386541424353,0.1331372511648818
12.083084,10.701422039707056,0.1328024992037277
12.085487999999998,10.697890056496654,0.1325682414071575
12.087875999999998,10.697011800338728,0.132316360286565
12.090256,10.697995875300355,0.1320500762772028
12.092655999999998,10.698700411008264,0.1317942826667275
12.095043999999998,10.699404946716172,0.1315392408668001
12.097428,10.69652458981183,0.1313081549462614
12.099823999999998,10.692992606601424,0.1310733235993372
12.102211999999998,10.683361773353155,0.130875845915371
12.104592,10.676012580105022,0.1306495869385388
12.106987999999998,10.661865688684722,0.1304836979182574
12.109376,10.64250389095809,0.1303727626601526
12.11176,10.625004424351014,0.1302471578122213
12.114155999999998,10.60866844072919,0.1301313256043781
12.116544,10.593775479346345,0.1300156192751246
12.118924,10.579254605015835,0.1299120035676589
12.121323999999998,10.570180954417138,0.1297698305786582
12.123712,10.56026868605728,0.1296569378735585
12.126092,10.547935008070422,0.1295780531100317
12.128491999999998,10.536951804523923,0.1294770176099529
12.130879999999998,10.527319075417784,0.1293536863460813
12.13326,10.520759382244702,0.1291980943196344
12.135659999999998,10.51205781869834,0.1290669180314922
12.138047999999998,10.496838096233532,0.1289863500951355
12.140428,10.481525825970108,0.1288826762419734
12.142827999999998,10.461278188654068,0.1288248256884396
12.145215999999998,10.443404739136785,0.1287600661375784
12.176275999999998,10.191293260338696,0.1287270902361475
12.178676,10.172673740858867,0.1287132925166955
12.183436,10.137110041563664,0.1287047115979701
12.188216,10.10904099271706,0.1286896249901337
12.190592,10.102571951484723,0.1286320988579517
12.193008,10.10075873805128,0.128538243227811
12.195391999999998,10.102809956483808,0.1284109024346389
12.197772,10.10434931823714,0.1282757720022764
12.200176,10.112034751856582,0.1280773089887011
12.202564,10.118649250289383,0.127890588831727
12.204944,10.13127005096144,0.1276452298822491
12.207348,10.14803482275319,0.1273572254213257
12.209732,10.162425406746184,0.1270756579737368
12.212111999999998,10.17546551629882,0.1268159121339574
12.214516,10.189436791411232,0.1265497912072373
12.216904,10.20741226801648,0.1262445954256555
12.219283999999998,10.225387744621727,0.1259391164354601
12.221676,10.24708788346609,0.1256069581478817
12.224059999999998,10.269439648616505,0.1252780073108324
12.22644,10.291651644140062,0.1249569600414734
12.228844,10.317076445223536,0.1246022653033742
12.231232,10.347064526307284,0.124190310812105
12.233612,10.37961378664489,0.1237447659267852
12.236007999999998,10.416726326982772,0.1232418355867113
12.238395999999998,10.445318607655787,0.122807804575046
12.240776,10.466461563850578,0.1224282042922862
12.24318,10.482297065940417,0.1220804905598057
12.245563999999998,10.499343272843753,0.1217177702168973
12.247944,10.511454112694476,0.1213980092243742
12.250339999999998,10.52584659254534,0.1210502066119419
12.252727999999998,10.540378842023062,0.1206999208811343
12.255124,10.550906890007951,0.1203865142585513
12.25752,10.566090765791731,0.1200423019057618
12.259904,10.586349778254988,0.1196528837131827
12.262284,10.609821596278158,0.1192336383724454
12.264679999999998,10.637577155047882,0.1187750531762867
12.267063999999998,10.670268080870215,0.1182792717964061
12.26946,10.700165510013216,0.1178047003909969
12.271856,10.72941131285016,0.1173269313657545
12.274244,10.754792683821128,0.1168788222040007
12.276623999999998,10.780174054792097,0.1164352029370505
12.27902,10.801551224270233,0.1160253637650082
12.281403999999998,10.815851156322475,0.1156763983063265
12.283784,10.829592009867286,0.1153473020654143
12.286179999999998,10.84426402897187,0.1150110384656628
12.288567999999998,10.862800479942424,0.1146459368142198
12.290964,10.882779953151957,0.1142829972870947
12.29336,10.899127311920994,0.1139655125368306
12.295748,10.919339102556004,0.113620022188275
12.343519999999998,10.63840302565942,0.1135898637222106
12.345904,10.637146994875543,0.1135559956565312
12.348284,10.642688662263843,0.1134750237820551
12.3507,10.65316569670475,0.1133580801046267
12.353084,10.670300659690966,0.1131985973830273
12.355463999999998,10.692091450476076,0.1130125321914138
12.357868,10.722682040179771,0.1127621976691291
12.360256,10.75783590988374,0.1124620474213189
12.362635999999998,10.79871654257324,0.1121260832523864
12.365032,10.83908531858354,0.1117815514282437
12.367416,10.8808045690342,0.1114200411933727
12.369796,10.926016164298494,0.111020743034811
12.3722,10.974300795495845,0.1105960431040881
12.374588,11.01937262113328,0.1102036049191674
12.376967999999998,11.063932590091518,0.1098041566335174
12.379364,11.100623925690948,0.1094618886734095
12.381752,11.13680340461118,0.1091146494316963
12.384135999999998,11.17060869573266,0.1087706039836077
12.38654,11.200270015734445,0.1084608329594647
12.388924,11.22913993980331,0.1081529464428244
12.391303999999998,11.253913114580728,0.1078528699296512
12.3937,11.274449770439832,0.1075683341449475
12.396088,11.294334799992876,0.107282324292067
12.398484,11.312776807306948,0.1069951218553254
12.40088,11.326842526075849,0.1067244566171173
12.403268,11.337602891486211,0.1064611884031863
12.405648,11.346128838724686,0.1061957229294518
12.408051999999998,11.350790354097184,0.1059538382532747
12.410439999999998,11.34828208424518,0.1057418874720577
12.41282,11.345122188087116,0.1055256279578774
12.415216,11.338377399316796,0.1053241654980473
12.417604,11.32576607793409,0.1051596106025262
12.419988,11.308638698379347,0.1050140701047367
12.422384,11.288345735092935,0.1048697417401428
12.424772,11.267913002179665,0.1047294696837149
12.427152,11.251484470759229,0.1045610411497754
12.429548,11.230260341913036,0.1044203007257726
12.431936,11.209967378626624,0.1042744196889211
12.434316,11.193678616833044,0.1041006005688604
12.436712,11.176598459106549,0.1039267399299691
12.439096,11.16124086287275,0.1037473244938466
12.441475999999998,11.141739295519256,0.1035993902887638
12.44388,11.118233526672928,0.1034785318408948
12.446268,11.090304247453185,0.1033978318619556
12.448652,11.061164263419943,0.1033304606326181
12.451048,11.03295544494648,0.1032576376599275
12.453432,11.010193850204828,0.1031604891014797
12.455816,10.993019248821849,0.103035489039536
12.458212,10.981431640797537,0.1028827313654785
12.4606,10.975431026131895,0.1027029400220949
12.462996,10.973015304078505,0.102509596434733
12.465391999999998,10.978188676130202,0.102276400844842
12.467779999999998,10.989088811167427,0.1020121619332407
12.47016,11.005575939563323,0.1017214596137342
12.472556,11.021411441653164,0.1014268080248493
12.474944,11.037246943743,0.1011327453919174
12.477324,11.054944776952397,0.1008292662845233
12.47972,11.070920048669096,0.1005303041279614
12.482108,11.086895320385796,0.1002325616503147
12.484492,11.101520117662137,0.0999516805003265
12.486895999999998,11.120568425311893,0.0996335556831391
12.489283999999998,11.143620934454484,0.0992897190677598
12.491668,11.170957184343624,0.0989127555154971
12.494063999999998,11.200714843859764,0.0985089515872803
12.496451999999998,11.235547640055376,0.0980713246757194
12.498832,11.268657874758292,0.0976385609491373
12.501236,11.29417901535612,0.0972458075296995
12.503624,11.314113162595278,0.0968788544322554
12.506004,11.328180777222046,0.0965452728793925
12.508395999999998,11.33358836255709,0.0962575334285489
12.510784,11.33662176009338,0.0959699630032075
12.513164,11.333416537964942,0.0957027010670185
12.51556,11.32741781915717,0.0954477783117032
12.517944,11.320627704416475,0.0951932158078774
12.52034,11.311695719302508,0.0949542664104935
12.522744,11.302903503815402,0.0947110663600577
12.525128,11.295833849820989,0.0944643024402432
12.527508,11.293280253998608,0.0942026999083637
12.529912,11.290075031870169,0.093936911856496
12.5323,11.292224485674923,0.0936316563155776
12.534679999999998,11.29167299059896,0.0933602054284651
12.537076,11.290050560336356,0.0930970349716749
12.539464,11.286146490073616,0.0928542062143501
12.541844,11.284104750930432,0.0926042743385378
12.544248,11.28020068066769,0.0923620657768867
12.546636,11.277460093390207,0.0921329894366219
12.549015999999998,11.277513002792055,0.0918928072497571
12.55142,11.278077768873104,0.091660548360484
12.553808,11.284369297939682,0.0914024912940588
12.556188,11.29745852517843,0.0911107994040325
12.558584,11.309709134656012,0.0908439068254131
12.560972,11.32498555823841,0.0905834070099374
12.563356,11.339842672940229,0.0903352687739627
12.565752,11.353209543574826,0.0901079593364806
12.56814,11.37230317719495,0.0898559175757072
12.570519999999998,11.389115170814945,0.0896232372938598
12.572916,11.40406483331538,0.0893978649000232
12.575304,11.412868423949703,0.0892099588834695
12.577687999999998,11.420042000889948,0.0890462342392781
12.580084,11.42078996671036,0.08892806211748
12.582472,11.422097011038211,0.0887937628309976
12.584851999999998,11.423124516112344,0.0886677548558624
12.587248,11.42187038118634,0.0885606637176678
12.589636,11.421407642193255,0.0884546423773256
12.592016,11.422527695066004,0.0883504141097074
12.59442,11.42471868312539,0.0882389300596194
12.596808,11.42569896637128,0.0881388563999874
12.599187999999998,11.43268555185642,0.0880072643282335
12.601592,11.439392598087844,0.0878844244870767
12.60398,11.442886838759344,0.0877835939241729
12.60636,11.447591784244354,0.0876714537703547
12.608756,11.453786973796577,0.0875404956984919
12.61114,11.459190767415878,0.0874084251144138
12.613523999999998,11.46459456103518,0.0872764244150922
12.61592,11.465202757228734,0.0871644420635033
12.618308,11.468464680474764,0.0870469768586909
12.620687999999998,11.473588934840343,0.0869233578617197
12.623088,11.48420763476598,0.0867600592185322
12.625476,11.497759600997814,0.0865836280642315
12.627859999999998,11.51931997021531,0.0863670957846405
12.630256,11.537387994619175,0.0861800764275163
12.632644,11.556666723836535,0.0859825503630658
12.635023999999998,11.57515405712098,0.0857831296384965
12.63742,11.59070812409923,0.0855975302636351
12.639808,11.603468694398146,0.0854215328922249
12.642188,11.614926012084943,0.0852360026528062
12.644583999999998,11.630387531264578,0.0850311624144205
12.646971999999998,11.64612858969793,0.0848206754841786
12.649352,11.658564294772752,0.084610398199441
12.651751999999998,11.677937467646602,0.0843696226452781
12.654139999999998,11.698241806080228,0.0841266063731036
12.65652,11.712539842274603,0.0839123705320496
12.658915999999998,11.733495807014288,0.0836755356710763
12.661303999999998,11.754079684701637,0.0834262704673163
12.663688,11.779598929441594,0.0831561972490389
12.666083999999998,11.804606317502357,0.0828778666265709
12.668468,11.827099748137506,0.082600426468753
12.670868,11.847451308399377,0.0823375168371866
12.673268,11.86663938567599,0.0820618949872675
12.675656,11.879029764780435,0.0818137626669924
12.678036,11.894772719071655,0.0815424632156888
12.68044,11.908793111870182,0.0812731302084832
12.682824,11.92909934616168,0.0809697144885249
12.685204,11.949545350080037,0.0806624167330384
12.687608,11.973343929185171,0.0803333111314105
12.689996,12.00044786164884,0.0800069368983058
12.692376,12.023827131873391,0.0796919034231226
12.694768,12.03733566799272,0.0794168873708112
12.697152,12.05363770079138,0.079134865289425
12.699531999999998,12.061419473925175,0.0788797287740183
12.701936,12.06575612407358,0.0786265720802078
12.704324,12.079172112394296,0.0783336998382864
12.706699999999998,12.088211812169831,0.0780469064257212
12.709096,12.100045008624708,0.0777540544144399
12.711479999999998,12.10722237728069,0.0774733778695262
12.71386,12.116029759630752,0.0771727774638569
12.716255999999998,12.128701573846786,0.0768601992861992
12.71864,12.145517359182518,0.0765296261062731
12.72102,12.159260108585192,0.0762128937717076
12.723436,12.174353332428224,0.0758827298255742
12.72582,12.18972609552498,0.0755466233217457
12.7282,12.206169793808373,0.0752052573132825
12.730604,12.217398585785432,0.0748897330590094
12.732988,12.231979952949269,0.0745545570964796
12.735371999999998,12.244559219366684,0.0742284083922945
12.737768,12.251970801306015,0.0739036480002228
12.740156,12.261012396939424,0.0735592901285722
12.742535999999998,12.278621474065943,0.073170286171674
12.74494,12.29744125600596,0.072774128463797
12.747328,12.317751282013194,0.0723610414453641
12.749707999999998,12.342996675073042,0.0719322963928346
12.752104,12.36279484440108,0.0715137145443472
12.754492,12.3805909129827,0.0711024914105427
12.756871999999998,12.394382780071489,0.0707061463483964
12.759276,12.409245582346914,0.0703043182645511
12.76166,12.42261814055512,0.0699197927077071
12.764039999999998,12.434268137270632,0.0695365226396549
12.766444,12.441122536560387,0.069166543913443
12.768832,12.451701598089258,0.0687901380424946
12.771211999999998,12.46228065961813,0.0684138647337602
12.773616,12.468715750027313,0.0680543859908511
12.776004,12.474219674876707,0.0676967311516964
12.778384,12.48521804528616,0.0673114395624742
12.780787999999998,12.494074545322334,0.066937517248546
12.783172,12.499718239798591,0.0665779798683256
12.785552,12.50629309983463,0.066216210073689
12.787948,12.51137771580345,0.0658702315366541
12.790336,12.512830217331771,0.065550087635188
12.792716,12.5101387477404,0.0652460156628116
12.79512,12.507819365201366,0.0649541336506454
12.797504,12.502426946729276,0.0646734692165774
12.799884,12.495544284189968,0.064407462613873
12.802288,12.48866162165066,0.0641407731986107
12.804676,12.483920829484626,0.0638644159818841
12.807056,12.480902598811292,0.0635892961459901
12.809459999999998,12.47788436813796,0.0633143561087881
12.811847999999998,12.472444727837622,0.0630553113898215
12.814228,12.465002986790871,0.0628013624296979
12.816624,12.45369681387815,0.0625550290338676
12.819012,12.445044368017902,0.0623090110293658
12.821392,12.438394022904069,0.0620566983390372
12.823795999999998,12.431324368909657,0.0618144488989786
12.826183999999998,12.420622600474749,0.061596523988308
12.828564,12.407219883159122,0.0614009586187397
12.830963999999998,12.398752532896108,0.0611932438139488
12.833351999999998,12.39065726968543,0.0609978500780834
12.835732,12.380280366474617,0.0608142198404359
12.838136,12.370834628823582,0.060629434886224
12.840519999999998,12.361109351918827,0.0604510094609585
12.8429,12.353106636506768,0.0602740840956446
12.845295999999998,12.344964151467847,0.06010033837804
12.847684,12.337752831988707,0.0599252691999006
12.850064,12.332124304375402,0.059755019924937
12.852467999999998,12.32421413676196,0.059596710628951
12.854855999999998,12.315233033961878,0.0594428120463051
12.857236,12.305180995975158,0.0592930558737148
12.85964,12.296199893175077,0.0591386249815896
12.862023999999998,12.28973274780061,0.0589881969332716
12.864404,12.289271904665396,0.0588225258426583
12.866808,12.284806860037344,0.0586670423393573
12.869196,12.283275081715493,0.05850596390259
12.871576,12.284956108953551,0.058332569923242
12.87398,12.28784784100511,0.0581518841660726
12.876368,12.295582392310669,0.0579411899938696
12.878747999999998,12.29945251175025,0.0577370404907364
12.881144,12.306675206376603,0.0575175900608777
12.883532,12.317902102495792,0.0572884523959302
12.885911999999998,12.331131099361402,0.0570553508022954
12.888316,12.347572901786924,0.056810258870731
12.8907,12.363363077906389,0.0565596643707511
12.893083999999998,12.381155354772272,0.0563049555023974
12.89548,12.401880897944348,0.056045815598743
12.897863999999998,12.421954814810368,0.0557808333358166
12.900244,12.44803503391564,0.0555033792392972
12.902648,12.472252921901354,0.0552272024287067
12.905032,12.498472910633485,0.0549472725367034
12.907412,12.527626165671808,0.0546633720232408
12.909816,12.556127794404077,0.0543737227334964
12.912204,12.582208013509346,0.0541001102827584
12.914583999999998,12.614434304480726,0.0538116913872082
12.91698,12.64344778989219,0.0535355670995706
12.919368,12.667386138624185,0.0532720100414047
12.921748,12.686528889930424,0.0530138260898181
12.924152,12.698314864557055,0.052778231635274
12.92654,12.711311543997189,0.0525355753137747
12.928919999999998,12.724447993064178,0.0522910281852561
12.931316,12.733859779892056,0.0520477722040151
12.933699999999998,12.73940713485396,0.0518093807312197
12.936084,12.742160993136528,0.0515719912728439
12.938479999999998,12.742772981045816,0.0513415569477814
12.940863999999998,12.7384496019025,0.0511186216023971
12.943244,12.726117819773512,0.0509102151452598
12.945647999999998,12.716719303950716,0.0506979290296724
12.94804,12.6974500540227,0.0505005355716403
12.950419999999998,12.67911196965446,0.0503023485670675
12.952816,12.653836417487195,0.0501144624020639
12.955199999999998,12.6216233975209,0.0499370164909787
12.957584,12.584195471248272,0.0497724654858626
