Time,Force,Position
12.718240000000002,8.816215200831593,0.1577170369544211
12.72062,8.943204949577224,0.1570479268580379
12.723016,9.052785883656524,0.1564536683882978
12.7254,9.157762003480917,0.155714242566399
12.72778,9.250359119348074,0.1548806074054614
12.730176,9.322336510846858,0.1540488254370833
12.732564,9.370386928760864,0.1533550199252432
12.734944,9.389386118724504,0.1529791635535081
12.73734,9.392787811597392,0.1528086414771638
12.739724,9.393488555589563,0.1526946514901801
12.742104,9.398565588126909,0.1525406754951325
12.7445,9.405831712865767,0.1523238775172531
12.746887999999998,9.411515045738792,0.1521175524375133
12.749268,9.41817487014197,0.1519580185677262
12.75168,9.432469114620607,0.151769017482247
12.754068,9.45402569212237,0.1515345491719145
12.756448,9.48689602596833,0.1511722120538448
12.75886,9.524282417986324,0.1507647823044276
12.761247999999998,9.563531141123873,0.1503393180740063
12.763628,9.611300123926288,0.1498284781343818
12.766024000000002,9.658557250049505,0.1493164108259847
12.768412,9.707212072441324,0.1487419450265427
12.770792,9.745438978078344,0.1482272634782812
12.773208,9.775192845878747,0.1477843569073858
12.775592,9.802292986626677,0.1473692986869507
12.777976,9.83125545849416,0.1469344521547119
12.780372,9.860217930361642,0.146500967834665
12.782756,9.886247135922927,0.1460987436764216
12.785139999999998,9.913067737417135,0.1456956599214703
12.78754,9.935697145963406,0.1453773279432028
12.789928,9.9638663260401,0.1450337119300371
12.792307999999998,9.99454946354241,0.1446764710763504
12.794712,10.02057677324583,0.1443655100151669
12.7971,10.045999678471436,0.1440275365177729
12.79948,10.067837691084788,0.1437221995890285
12.801876,10.091165947765356,0.1433872770301633
12.804264,10.110397455154477,0.1430777744496204
12.806644,10.128093392506004,0.1427481062194708
12.80904,10.146627947618692,0.1423894056279684
12.811428,10.15184664564076,0.1421644871147915
12.813808000000002,10.156646034782248,0.1419564348695277
12.816204,10.162608906908996,0.1417572253038125
12.818592,10.174810398700467,0.1415081708029814
12.820972,10.182448610491663,0.1413246636750849
12.823372,10.191110535641258,0.1411569198997499
12.825755999999998,10.20521968452266,0.1409451909293719
12.82814,10.217047193403928,0.1407658630902914
12.830544,10.234229378218387,0.1405176706128395
12.832932,10.2461041089279,0.1403096965943188
12.835312000000002,10.262961428518263,0.1400213179464229
12.837716,10.277212242884396,0.1397265367582848
12.840104,10.28615560314558,0.1394718085198395
12.842484,10.297008516354564,0.1391716077778286
12.844888,10.300923961764518,0.1389453498130655
12.847272,10.30726081680147,0.1386824096723872
12.849652,10.313178362957842,0.1384359747031525
12.852056,10.319747535420271,0.1381920005547886
12.854444,10.323475989375124,0.1380004980698199
12.856824,10.32371209851634,0.1378598896384705
12.85922,10.334982424748034,0.1376279778582941
12.861608,10.34476250691251,0.1374251891220607
12.863988,10.35868656019668,0.1371759595882037
12.866384,10.36916549049546,0.1369487184887501
12.868768,10.387700045608147,0.1366101603486036
12.871152,10.40521088736244,0.1362587988259309
12.873548,10.41727450538492,0.1359516852091885
12.875936,10.432039072288122,0.1355985157385767
12.878316000000002,10.441356415459513,0.1352867697057088
12.880712,10.4518844634444,0.1349556569007901
12.8831,10.458268540309591,0.1346720799877202
12.885496,10.462091437920932,0.1344291661629081
12.887888,10.470430393704302,0.1341529793083665
12.890276,10.481003767659566,0.1338750142353321
12.89266,10.495022264600223,0.1335751271889012
12.895056,10.508621452660302,0.1332923877783687
12.89744,10.526644151093793,0.1329574581272591
12.899820000000002,10.539451943220946,0.1326785133546373
12.902216,10.555752080161742,0.1323517457952359
12.904604,10.57088873411728,0.1320144630943758
12.906987999999998,10.576341645422698,0.1317412188458332
12.909384,10.578908512250162,0.1314669993808326
12.911772,10.575748616092095,0.1312430082486927
12.914168,10.571378015120532,0.1310357944359011
12.916564,10.558439932655862,0.1309287886462289
12.918948,10.543359979817913,0.1308464583345583
12.921332,10.526650013285884,0.1307967166956288
12.923728,10.509380968246417,0.1307664945214511
12.926112,10.495137737311758,0.1307317495348113
12.928496,10.48620196048205,0.1306621152572552
12.9309,10.47870920589132,0.1305926895339632
12.933288,10.473218552047008,0.1305032749186572
12.935668,10.466005336709994,0.1304235560692568
12.938064,10.454136293574091,0.1303805000101515
12.95,10.357221486137222,0.1303363307585543
12.952396,10.33781057072448,0.1303273596535105
12.95478,10.319842677550708,0.1303191512330176
12.957164,10.30983596553436,0.1302598259046488
12.95956,10.304485081316908,0.1301640142765499
12.961944,10.302998628965426,0.1300339955422559
12.964324,10.310591514786251,0.1298139335223822
12.96674,10.320326270980352,0.1295698452366239
12.969124,10.331691040868536,0.1292928103743416
12.971504,10.3422644148238,0.1290181048839727
12.9739,10.354607572100004,0.1287068425498957
12.976284,10.363505606390811,0.1284158976281975
12.978668,10.370448761763448,0.1281163657845716
12.981064,10.378602621949582,0.1278006005274643
12.983452,10.382332971762304,0.12753698938775
12.985836,10.38978798381414,0.1272447169937648
12.988232,10.396823686985394,0.1269677683665011
12.99062,10.40837544832868,0.1266606160482463
12.993004,10.426585138217272,0.1262972696882896
12.9954,10.444607836650764,0.1259678218306565
12.997784,10.462211226203674,0.1256529399846394
13.00018,10.479954385383444,0.1253353171539738
13.002580000000002,10.501841515682909,0.1249755236632986
13.004964,10.516419091131002,0.1246678482634995
13.007348,10.528063400272904,0.1243866649346349
13.009744,10.540918414228305,0.1240903719127777
13.012132,10.54618433407862,0.1238543285033028
13.014512,10.549308383555656,0.1236418143520527
13.016908,10.553223828965612,0.1234275848953978
13.019296,10.557930670308483,0.1232115804416252
13.02168,10.564360073144057,0.1229885906074208
13.024076,10.571720641539404,0.1227596492644788
13.026464,10.584528433666565,0.1224977480101631
13.028844,10.59719645616686,0.1222418984435151
13.031244,10.616150320160129,0.1219231491948522
13.033628,10.636454658593754,0.1215857583799197
13.036012,10.65918040665438,0.121218324535564
13.038408,10.67939219728939,0.1208615474357762
13.040796,10.69988352717812,0.1204969684168687
13.043192,10.720561848521951,0.1201017738163569
13.045592,10.742870183559866,0.1196770376352244
13.04798,10.761314086731806,0.1192823919645427
13.050364000000002,10.776684953970694,0.118916713830854
13.05276,10.795780483448691,0.1185265113116719
13.055148,10.81394484736691,0.1181416231842323
13.057528,10.829315714605796,0.1177763942393424
13.059928,10.846269373710516,0.1174072704220205
13.062316,10.865225133561657,0.1170219222564345
13.064696,10.886043224532347,0.1166262163443484
13.067092,10.90793225068968,0.1162210100896647
13.06948,10.923814974607764,0.1158662984392607
13.071864,10.937835367406288,0.1155241188049705
13.07426,10.944266666099727,0.1152344151336234
13.076648,10.94790446811383,0.1149624097705803
13.079028,10.9475380686351,0.1147233379253776
13.081432,10.943027698036676,0.1145215827966824
13.08382,10.9354442915052,0.1143465309447045
13.086204,10.92651041053336,0.1141907538017093
13.0886,10.9172969903078,0.1140442732703992
13.090988,10.907804030828522,0.1139067989112266
13.093372,10.897891762468662,0.1137829551482131
13.095768,10.89026113410894,0.1136337970047518
13.098156,10.886634707242052,0.1134532977087616
13.100536000000002,10.882077114815385,0.1132785138830873
13.102932,10.877519522388718,0.1131032387644544
13.10532,10.872542621081472,0.1129414847573552
13.107704000000002,10.865563619027808,0.1127950434017364
13.1101,10.856722285854586,0.1126596439563949
13.112488,10.84494768637517,0.1125453627056332
13.114868,10.831170986149337,0.1124464818486623
13.117272,10.822329652976116,0.1123108040393832
13.11966,10.813208780549171,0.1121840726169498
13.122039999999998,10.806182556667268,0.1120634446037948
13.124436,10.802741225397613,0.1119253125995686
13.126824,10.801022455620656,0.111780566550711
13.129204,10.798744607336255,0.1116538558863367
13.131608,10.796047450171276,0.1115408621799891
13.133996,10.800147991178466,0.1113803370876181
13.136375999999998,10.80131526587946,0.1112408986013629
13.138772,10.801783692446154,0.1111245770700432
13.14116,10.805185385319042,0.1109877376826884
13.143540000000002,10.80788823005763,0.1108739775446791
13.145936,10.805376168489882,0.1108056736119294
13.148324,10.805657603601473,0.1107214969746728
13.150704,10.81245719763151,0.1106005661060271
13.153108,10.820979353154245,0.110473642798808
13.155496,10.837649681289507,0.1102826978349714
13.157876000000002,10.854692096477107,0.1101045407563505
13.160272,10.872525907597623,0.1099257098750172
13.16266,10.891011345024202,0.1097506432008059
13.165044000000002,10.9073549120775,0.1095958864932234
13.16744,10.924629644690576,0.1094358871940778
13.169823999999998,10.94446555655751,0.1092430003751077
13.172208,10.958295166185192,0.1090945675717086
13.174612,10.974266646186152,0.1089274466628806
13.177,10.991868139881191,0.108731953261265
13.179384,11.010680338389736,0.1085221549670903
13.18178,11.019901342046769,0.1083736485880743
13.184168,11.031124446450216,0.1082100782703059
13.186547999999998,11.045839895667308,0.1080093126550722
13.188944,11.055340438578064,0.107852602643732
13.191332,11.062047484809485,0.1077108199920904
13.193715999999998,11.069965235854404,0.1075544535585941
13.196112,11.069734814286797,0.1074619168806621
13.1985,11.063126003427602,0.1074010870946095
13.200880000000002,11.057076271075848,0.1073222303577524
13.20328,11.04488046685798,0.1072915526843559
13.205668,11.032312575587778,0.1072479471628266
13.208048000000002,11.02295748987749,0.1071757186734538
13.210448,11.016163583421058,0.1070712764476868
13.212832,11.010720151404987,0.1069486066441598
13.215216000000002,11.006627193829274,0.1068078293237935
13.21762,11.00453633699998,0.1066534113178204
13.220008,11.009802256850293,0.1064388035877004
13.222388,11.01441655039455,0.1062211916727643
13.224784,11.02382644136456,0.1059765929485574
13.227172,11.033376101961426,0.1057279790225769
13.229556,11.049863230357325,0.1054330306320968
13.231952,11.06756106356672,0.1051256406463101
13.23434,11.079532133790584,0.1048511388023172
13.236720000000002,11.092202052148751,0.1045540004493052
13.239116,11.10901594162661,0.1042248244542602
13.241504,11.126760996664247,0.1038910834849316
13.243884,11.15093166282172,0.1035018591219731
13.24628,11.172960458605912,0.1031288432321448
13.248668,11.193918319203467,0.1027662227387326
13.251052,11.214364323121824,0.102394561095411
13.253448,11.2368124277866,0.1020101313374991
13.255836,11.25553587021226,0.1016459809403031
13.258232,11.271186276704864,0.1013055021577233
13.260628,11.284834582451056,0.1009791200134749
13.263016,11.295549621891046,0.1006708778456071
13.2654,11.302400229465066,0.1003858926126205
13.267796,11.308179901852446,0.100111439218959
13.270184,11.31153816461283,0.0998631550454322
13.272568,11.31024059957432,0.0996373084103895
13.274964,11.307080703416256,0.0994197892460429
13.277352,11.302058476138637,0.0992111829741391
13.279732,11.297036248861014,0.0990029375806763
13.282136,11.296949388636005,0.0987653416621382
13.284524,11.298864629157414,0.0985151129049101
13.286908,11.302781970425237,0.0982536229305503
13.289304,11.30804978613342,0.0979760516189512
13.291692,11.311734809975766,0.0976986666291725
13.294072,11.32435940236356,0.0973692577993811
13.296468,11.338194699564852,0.0970285743073963
13.298856,11.35617396788584,0.0966608083763123
13.301236,11.374013466579964,0.0962986658483665
13.303632,11.391852965274088,0.0959366829744211
13.30602,11.410903168781712,0.0955631169769237
13.308404,11.43288663859553,0.0951751980816338
13.3108,11.45622058284971,0.0947710905502356
13.313188,11.479554527103884,0.0943669724450647
13.315568,11.49823264355917,0.0939822492939509
13.317968,11.51653867296212,0.0935843170682999
13.320356,11.538848903857907,0.0931652960832488
13.322731999999998,11.565163336246524,0.0927244483303103
13.325136,11.593340099754696,0.0922784005985533
13.327524,11.618723366583534,0.0918439413214418
13.329904,11.635167064866929,0.0914570016320052
13.3323,11.654124720575933,0.0910694857019075
13.334688,11.668985626993488,0.0906849711433165
13.337072,11.680913267104849,0.0903154629824104
13.339476,11.694283929455183,0.0899519924457773
13.341864,11.69755154027482,0.089622565044884
13.344248,11.695744014414982,0.0893217403316526
13.346644,11.692958101167124,0.0890502116221022
13.349032,11.685144273068037,0.08878191799956
13.351412,11.672115538662617,0.0885452029666874
13.353808,11.664534027989005,0.0882935834856581
13.356196,11.649782732090888,0.0880593642835463
13.35858,11.634984214364527,0.0878497707802143
13.360976,11.621536171078525,0.087624546233165
13.363364,11.608088127792524,0.0873982996757971
13.365744,11.60059916491753,0.087166084450835
13.368144,11.587243669430146,0.086960823576967
13.370532,11.571234446890283,0.0867607979201194
13.372912,11.552803814723427,0.0865829645697562
13.375308,11.53516457848949,0.0864054643353593
13.377696,11.526464910800994,0.0861835643357619
13.38008,11.517765243112503,0.0859625737199333
13.382476,11.506224856916434,0.0857745302592085
13.384864,11.493194226653149,0.0856048202683436
13.387248,11.481886157882553,0.0854333741652461
13.389644,11.475745773590043,0.0852550927676683
13.392032,11.474912843402493,0.0850665399267666
13.394416,11.4737078261626,0.0848655780807554
13.396812,11.475249083773797,0.0846798425841445
13.3992,11.489314802542696,0.0844438683315102
13.401584,11.492858160900312,0.084248843688177
13.40398,11.50101012522858,0.0840632707979055
13.406368,11.511723268810702,0.0838524193761744
13.408752,11.522808499445164,0.0836552580981646
13.411148,11.539061414557713,0.0834530419949847
13.413536,11.550146645192177,0.0832572386148384
13.41592,11.559462092505695,0.083086954512555
13.418316,11.570732418737393,0.0829323988177343
13.420708,11.579908096424056,0.0827663408454064
13.423088,11.58787306929722,0.0826108028682492
13.425484,11.597932690715416,0.0824678734140515
13.427876,11.60147415321516,0.0823444895804094
13.430256,11.611533774633358,0.0822016941444545
13.432656,11.632674834970276,0.0820063850291232
13.435044,11.647577275642467,0.0818225686176015
13.437424,11.66885810560625,0.0816256238845767
13.439824000000002,11.687904517398133,0.0814216595354461
13.442212,11.701224166204488,0.0812372035852125
13.444596,11.721481282809874,0.0810239630231929
13.446996,11.729773016765002,0.0808412354827474
13.449383999999998,11.742441039265298,0.0806525880264878
13.451764,11.75939280251215,0.0804390562147132
13.454164,11.77168873796011,0.0802386980090989
13.456552,11.780911637475011,0.0800536258279361
13.458932,11.787480809937444,0.0798729201196246
13.461328000000002,11.7901855505339,0.0797055052352308
13.463716000000002,11.801038463742882,0.0794987010838223
13.4661,11.81245045545931,0.0792775173724756
13.4685,11.826236634974489,0.0790602837390387
13.470888,11.846960282288697,0.0788153519036833
13.473264,11.863866719565175,0.0785613766399135
13.47566,11.884218279827046,0.0783047784718104
13.478044,11.9020558826633,0.0780488527280278
13.480428,11.906158319528362,0.0778459713553757
13.482824,11.917430541617929,0.0776321910688755
13.485212,11.919391108109709,0.0774424959509387
13.487608000000002,11.922282840161266,0.0772505907352197
13.490004,11.931413191877557,0.0770498988145383
13.492392,11.932302823182695,0.0768665964884315
13.494772,11.94422667157832,0.0766604631244204
13.497168,11.95684936810824,0.0764359063101621
13.499552,11.962814136092858,0.0762309787437939
13.501936,11.97408635818242,0.0760207164757838
13.504332000000002,11.988990694712482,0.0757817538690682
13.50672,12.004034800869404,0.0755394345352747
13.5091,12.027599166691193,0.0752745256493491
13.511504,12.047578639900724,0.0750160039213683
13.513888,12.061272271617284,0.0747883850238269
13.516272,12.077107773707125,0.0745500478187295
13.518676,12.088287447998074,0.0743234880552437
13.521068,12.101049914154856,0.0741012569681592
13.523447999999998,12.111438192512884,0.0738737188336214
13.525852,12.12368880199047,0.0736429929694424
13.52824,12.145018749640364,0.0733763042850755
13.53062,12.162112178371943,0.0731096501265501
13.533024,12.184140974156138,0.072826453198007
13.535412,12.208171870686748,0.0725372636407066
13.537792,12.23183068016502,0.0722368522769092
13.540196000000002,12.259074382255545,0.0719329271690839
13.542584000000002,12.280079464681345,0.0716366431847696
13.544964,12.299873842293644,0.07134981716298
13.547368,12.325814291772051,0.0710388754299566
13.549752000000002,12.349240783824849,0.0707274452898741
13.552136,12.37438983737034,0.0704183878705441
13.554532000000002,12.400889365356193,0.0700982762029396
13.556920000000002,12.419799799236952,0.0697955619340326
13.5593,12.43684790199816,0.069496277935143
13.561696,12.46074092475978,0.0691556617591822
13.564084,12.480909285282282,0.0688222167503878
13.566464,12.498004609871732,0.0685002817791371
13.56886,12.512446207408708,0.068180470410519
13.571248,12.530612467184795,0.0678546707522103
13.573632,12.544262668788855,0.0675332274722863
13.576028,12.555910769646498,0.0672200508959534
13.578412,12.567419100877276,0.0669104843691752
13.580796,12.57320066912253,0.0666129491085615
13.583192,12.574978035874944,0.0663283947283186
13.58558,12.574893071507804,0.0660469554464816
13.58796,12.574156480834608,0.0657603821700232
13.59036,12.571278019788132,0.0654828181888527
13.592744,12.568679097995378,0.0651980804799743
13.595128,12.560073873963374,0.0649317138834256
13.597524,12.549885858065531,0.0646606280791723
13.599912,12.535833410301718,0.0643983468170702
13.602291999999998,12.5205702577244,0.0641442461691314
13.604688,12.5102424721997,0.0638766630793835
13.607076,12.505781219287387,0.0635956295724871
13.60946,12.501040427121357,0.0633224978326743
13.611856,12.495228699768685,0.0630530260433297
13.61424,12.499567245774958,0.0627532856315965
13.616624000000002,12.501624151781098,0.0624653115542929
13.61902,12.503960597040956,0.0621713536561265
13.621403999999998,12.510301243793648,0.0618665031318815
13.623788,12.513708624240143,0.0615682471713395
13.626184,12.514042968753584,0.061278871094304
13.628571999999998,12.523316881812471,0.0609678791363986
13.630952,12.533941269311718,0.0606456107791789
13.63336,12.545496822370742,0.0603228230619687
13.635744,12.554770735429626,0.0600119556250027
13.638128000000002,12.568980015541127,0.0596901627077575
13.640524,12.58598279233196,0.059366786049001
13.642907999999998,12.608991871362043,0.0590290432282375
13.645292,12.633723511884824,0.0586935968932842
13.647688,12.657384217220963,0.0583622410159137
13.650076,12.680113756997327,0.0580322002876528
13.652472,12.701912131213913,0.0577041342896644
13.654868,12.719846073564524,0.0573843044601843
13.657256,12.729492073675749,0.0570896189346593
13.659636,12.744073440839584,0.0567850999872905
13.662032,12.74557126833828,0.0565132573519749
13.66442,12.75121306695667,0.0562287260703184
13.6668,12.754712995201782,0.0559525153884908
13.6692,12.759004319379812,0.0556800639491465
13.671588,12.76487843542368,0.0554129120662266
13.673968,12.777178162587376,0.0551227212043802
13.676364,12.781329717138547,0.054854178151881
13.678752,12.787203833182415,0.0545883583539501
13.681132000000002,12.790936078853006,0.0543300140109967
13.683532,12.79895206527015,0.0540570433574345
13.685916,12.80296385019446,0.0537927724647117
13.688300000000002,12.803902599185715,0.0535367834581709
13.690696,12.801768312243915,0.0532893212253918
13.693084,12.80228775235459,0.0530447065591353
13.695468000000002,12.80667162433124,0.0527956439450925
13.697864,12.811986661867667,0.0525463672881654
13.700252,12.81902426089679,0.0523003954586259
13.702636000000002,12.820055557686665,0.0520651191889981
13.705032,12.827093156715788,0.051817428782332
13.70742,12.832268424625353,0.0515710902667619
13.709803999999998,12.843449994774172,0.0513125970708795
