Time,Force,Position
14.059076,7.594372819965526,0.1533292538023438
14.068624,7.586090565299747,0.1531464311886001
14.07102,7.601686166532631,0.1530140820291477
14.073408,7.624870861870605,0.152769586004025
14.075788,7.647776017954857,0.1525410732125769
14.078188,7.673614440345304,0.1522728459844062
14.080572,7.696938905310137,0.152026927528594
14.082956,7.716398938408995,0.151836755268791
14.085352,7.734648266694357,0.1516708054478075
14.08774,7.754807147927519,0.1514359331880365
14.090124,7.770729510242368,0.151250415169682
14.102083999999998,7.791024369386649,0.1512292069467944
14.104464,7.802196460246122,0.1511855666622108
14.10686,7.819699718568938,0.1511010518321516
14.109248,7.842370661369845,0.1509652814177899
14.111628,7.867602783424608,0.1507705532275469
14.114031999999998,7.89474445842717,0.150518832619733
14.116419999999998,7.921234507123675,0.150271121290577
14.1188,7.945629907275143,0.1500275377382236
14.121195999999998,7.966068327762024,0.1498083323757448
14.12358,7.984551869330729,0.1495834518260994
14.12596,7.997588187167626,0.1494234005928736
14.128356,8.01835336873647,0.1491612122684741
14.13074,8.041912046984647,0.1488618272778713
14.133136,8.065610494859687,0.1485507409897745
14.135531999999998,8.095035705720255,0.1481648039715016
14.137919999999998,8.122319046207545,0.1478198394591766
14.1403,8.148251912254478,0.1475106286662214
14.142696,8.176978274980746,0.1471652995881493
14.145084,8.202911141027679,0.146848464314827
14.147464,8.235828696701885,0.1463963919544705
14.149867999999998,8.271866510137388,0.1458737467228561
14.152255999999998,8.307672006147413,0.145335569180057
14.154636,8.335795860253736,0.1448644983571651
14.157032,8.35931110838941,0.1444168180128969
14.159416,8.382454269472746,0.1439589521391536
14.1618,8.403223242757328,0.1435198102628257
14.1642,8.418125683429519,0.143157592057219
14.166588,8.427813217795379,0.1428721977205531
14.168972,8.440294248840571,0.1425551741353763
14.171367999999998,8.453706445445546,0.1422281201020012
14.173756,8.46590793723702,0.1419237327173768
14.176136,8.472894522722159,0.1417003101545566
14.178535999999998,8.481603669699998,0.1414622774080139
14.18092,8.495015866304971,0.1411374217566879
14.183304,8.503539917685574,0.140844750480705
14.1857,8.509689781267424,0.1405641372278594
14.188088,8.513977313729717,0.1403044074018298
14.190483999999998,8.51868415507259,0.1400255749313644
14.19288,8.529676837908434,0.1396517917740118
14.195268,8.534663218505028,0.1393607369051303
14.197648,8.532572361675733,0.1391676885751859
14.200052,8.52847940410002,0.1390010912252803
14.20244,8.527552030255979,0.1388190801473318
14.204819999999998,8.525413951598441,0.1386591980065404
14.20722,8.518620045142011,0.1385490461807559
14.209608,8.509032642006245,0.1384682628327886
14.211987999999998,8.50130756999004,0.1383676376672927
14.214388,8.50065973539972,0.1381719985166833
14.216776,8.497358173756924,0.1379996853456492
14.219155999999998,8.49461569062157,0.1378025497072256
14.221556,8.49657625711335,0.137522957654306
14.223944,8.499095902112574,0.1372187278440301
14.226323999999998,8.503105791179015,0.1368808805133751
14.22872,8.506416832111157,0.1365754169674354
14.231103999999998,8.511170895282273,0.1362697451356465
14.233484,8.516064728080249,0.1359573570035706
14.235879999999998,8.519747856064727,0.1356659562269467
14.238267999999998,8.522732135914904,0.1354054697424464
14.240648,8.522224070951445,0.1352045865836655
14.243043999999998,8.520784840428208,0.1350126577745072
14.245432,8.52055631471847,0.1347989988167131
14.247827999999998,8.52125895456851,0.1345762979542491
14.250224,8.522241133672269,0.1343408203604383
14.252608,8.523874939082086,0.1341075837883978
14.254988,8.52858178042496,0.1338332441883642
14.257383999999998,8.534871413633667,0.1335527239672189
14.259771999999998,8.544373852402293,0.1332261193118518
14.262152,8.554527917476975,0.1329058415343135
14.264556,8.568918501469968,0.1325587483723252
14.266944,8.583820942142161,0.1322232499378769
14.269324,8.59308916762744,0.1319767885660534
14.271719999999998,8.601518775351558,0.1317672780758516
14.274107999999998,8.608969995687655,0.1316012928138544
14.276488,8.612277244904055,0.1314889505440593
14.278887999999998,8.618797299680374,0.1313327649501982
14.281271999999998,8.629973182255583,0.1311335890808572
14.283652,8.647434906323763,0.1308533616825222
14.28606,8.666758961511498,0.1305560344436045
14.288443999999998,8.69036675744579,0.1302003475448957
14.290824,8.71904969005955,0.1297846675071524
14.293228,8.746382148232955,0.1293969855283598
14.295616,8.769430865659805,0.1290668827235933
14.297995999999998,8.795924706072048,0.128716322008083
14.3004,8.824420647230708,0.1283429018541352
14.302788,8.854499380255204,0.1279680014702847
14.305163999999998,8.882296473279563,0.1276275203849891
14.307572,8.907532387050063,0.1273352464869835
14.309956,8.92862432970087,0.127095697138334
14.312335999999998,8.946271149366286,0.1268789182730738
14.314732,8.95805143641931,0.1267230322985996
14.31712,8.971461737166415,0.126528696026606
14.319499999999998,8.985291346794098,0.126316869991856
14.321896,8.996606998996167,0.1261180861851381
14.324284,9.010483830452094,0.1258717162729098
14.326664,9.016352258922351,0.1257166512613327
14.329059999999998,9.019566960340136,0.1255820396704804
14.331447999999998,9.01742698582473,0.1255183038472382
14.333844,9.013424680189765,0.1254709483982854
14.33624,9.00928260492794,0.1254293309911911
14.341003999999998,8.99485238253818,0.1254170727040641
14.3434,8.992991947276492,0.1253420590244196
14.345788,8.986615453842774,0.1253012031756906
14.348167999999998,8.982520600409194,0.125227282752676
14.350568,8.97376991917672,0.1251925542267302
14.352951999999998,8.963715985332131,0.125150908385683
14.355335999999998,8.955431834808481,0.1250668960371829
14.35774,8.947427223538552,0.1249713423945758
14.360124,8.94142471301504,0.1248542257225117
14.362503999999998,8.941708043984498,0.1246612327793824
14.364912,8.94571603719307,0.1244377264531238
14.3673,8.94665099446859,0.1242483947592449
14.36968,8.950658987677162,0.1240241857416507
14.372076,8.95652931200529,0.1237848226841853
14.374464,8.969616643386168,0.1234625783063222
14.376843999999998,8.98070187402063,0.1231621392495032
14.379248,8.995139679841866,0.1228168063785411
14.381636,9.007575384916688,0.1224908775080917
14.38402,9.018288528498813,0.1221761332321
14.386416,9.024485613908904,0.1218932488511495
14.388804,9.034175044132631,0.1215589344754058
14.391184,9.039720503236664,0.1212734802329251
14.39358,9.048199228646894,0.1209596537576234
14.395968,9.04787815513854,0.1207305492048709
14.398348,9.04969895200346,0.1204745391757745
14.400744,9.056175576667272,0.1201805296374307
14.403132,9.060230791704088,0.1199248474377741
14.405516,9.06614833786046,0.1196543972557066
14.407912,9.070063783270417,0.1194049664687806
14.4103,9.072768523866872,0.1191754368917969
14.412679999999998,9.070537897410716,0.118994339068018
14.415076,9.072311472447394,0.1187722280730859
14.417464,9.073014112297434,0.1185635123824849
14.419847999999998,9.073576982520612,0.1183610092021289
14.422244,9.072137751997376,0.1181794252730281
14.424632,9.073631787780334,0.1179712945626186
14.427028,9.073915118749792,0.1177820985637422
14.429424,9.081415456772,0.1175170371814074
14.431812,9.087053463674652,0.1172657462024932
14.434192,9.099209629495752,0.1169658320451374
14.436595999999998,9.112669047928968,0.1166763330969729
14.438983999999998,9.126268235989045,0.1163809512294509
14.441364,9.137725553675844,0.1161106626000341
14.44376,9.157842900654364,0.1157671037121762
14.446148,9.17796024763289,0.1154245756191879
14.448528,9.198217364238277,0.1150794353978093
14.450924,9.22047658159008,0.1147159512588097
14.453312,9.239942302262545,0.1143727861544662
14.455696,9.260618727748508,0.1140126068933988
14.458092,9.278501656555138,0.1136726038831512
14.46048,9.30187903092182,0.1132688887108299
14.46286,9.323813383049526,0.1128634836457186
14.465256,9.346306813684674,0.1124380574707301
14.467644,9.3697314098796,0.1120087052252907
14.470028,9.392224840514748,0.1115875265974642
14.472424,9.4117850048437,0.1111922409784234
14.474812,9.42668934137376,0.1108278253665036
14.477192,9.437729246037849,0.1104967708582198
14.479588,9.450771251448352,0.1101479518064111
14.481976,9.46157883868696,0.109798771787045
14.484372,9.4704315470074,0.1094384689550875
14.486767999999998,9.481705664954834,0.1090460885194487
14.489155999999998,9.495261422902404,0.1086267113976552
14.491536,9.50723438898414,0.1082118032788361
14.493932,9.519486894319597,0.1077875679975421
14.49632,9.529225442229434,0.1073718722134175
14.4987,9.538452133460074,0.1069477552150465
14.501103999999998,9.55182279581041,0.1064863222906264
14.503491999999998,9.565053688533885,0.1060309722845315
14.505872,9.581357617190417,0.1055488379779374
14.508267999999996,9.592958496219811,0.1051267704836161
14.510656,9.60707333267482,0.1046997940754878
14.513036,9.619278616182031,0.1043139626803212
14.515432,9.627107611144073,0.1039455589180241
14.51782,9.631863570173058,0.1036028608794534
14.5202,9.63769046438868,0.1032496643404802
14.522596,9.648312956030056,0.102863429953426
14.524984,9.658516138790848,0.1024929856251194
14.527364,9.667089307857562,0.1021532449611763
14.529764,9.674823859163116,0.1018444786433748
14.532152,9.680369318267148,0.1015867460623306
14.534532,9.683074058863602,0.1013754058117937
14.536928,9.685359490579478,0.1011798452810967
14.53932,9.687877239720828,0.1010049434649629
14.541716,9.68834566628752,0.1008752919954959
14.544111999999998,9.690257115093186,0.1007504546374436
14.546499999999998,9.690678319831637,0.1006508249845048
14.548884,9.687607179756451,0.1005916808585275
14.551279999999998,9.683185565240906,0.1005525607926485
14.553667999999998,9.678344641844776,0.1005283068533415
14.556051999999998,9.67536604956821,0.1004939283514387
14.558448,9.67210791803792,0.1004694720286475
14.560835999999998,9.672062592067546,0.1004152295076836
14.563216,9.67718495057526,0.1003460615722437
14.565611999999998,9.686963136881866,0.1002520732169042
14.567999999999998,9.695251079121256,0.1001827842670199
14.570384,9.702979942853204,0.1001335134583691
14.572779999999998,9.710708806585153,0.100084334626739
14.575167999999998,9.71857743994396,0.1000300035868426
14.577552,9.723652576623431,0.099990306434223
14.579947999999998,9.731009353303042,0.0999257716696264
14.582335999999998,9.741439165915706,0.0998365422816008
14.584716,9.75200874815523,0.0997428542833154
14.58712,9.75913320740936,0.0996591273016322
14.589508,9.768027449984432,0.0995407502153638
14.591891999999998,9.771706786253173,0.0994664895119071
14.594288,9.778179619201246,0.0993775646387944
14.596676,9.78479222177618,0.0992834978960834
14.599059999999998,9.793546694724393,0.099169746338255
14.601456,9.802440937299464,0.0990515494028064
14.603844,9.811754488755115,0.0989190966162344
14.606227999999998,9.819345478718072,0.0987919557939632
14.608624,9.825074137561472,0.09867494822236
14.611012,9.82707813416576,0.0985773762890544
14.613395999999998,9.824286533344292,0.098508452358456
14.615792,9.824847507709604,0.0984058455159038
14.61818,9.826898726142131,0.0982794563681787
14.620563999999998,9.833093915694354,0.0981206398244736
14.62296,9.846366342672466,0.0979116067845163
14.625348,9.864574136703192,0.0976699418561977
14.627727999999998,9.88213030442786,0.0974240656630623
14.630128,9.897032745100052,0.0971877026174296
14.632516,9.911004020212465,0.0969565553901611
14.634899999999998,9.927489252750494,0.0967213336059612
14.6373,9.9436949460348,0.0964960845672618
14.639688,9.968048811931634,0.096211216243822
14.642067999999998,9.991611281895551,0.0959276394735387
14.644472,10.02118005409872,0.0956057299285299
14.646856,10.04860695592861,0.0953024015472251
14.649235999999998,10.073100591452306,0.0950170428431877
14.65164,10.093450255856306,0.0947630847827765
14.654028,10.111937589140751,0.0945177451479229
14.656408,10.12735188649214,0.0942943492257792
14.658804,10.14290595347039,0.0940659713769974
14.661192,10.165537257874528,0.0937888473750473
14.663567999999998,10.184164360785832,0.0935391239406357
14.665976,10.20078936295072,0.0933039388639914
14.66836,10.2095457317568,0.0931175641492219
14.67074,10.211644172017577,0.0929666997549438
14.673136,10.213882381905206,0.0928119308843898
14.675524,10.21518942623306,0.092661313450517
14.677908,10.216496470560916,0.0925105158967092
14.680304,10.219805615635188,0.0923473685564943
14.682688,10.22395337847062,0.0921570951711934
14.685071999999998,10.23145371649283,0.0919373602673734
14.687468,10.235369161902783,0.0917300818145552
14.689856,10.236630880260265,0.0915299637821028
14.692235999999998,10.231094900445576,0.0913666172588077
14.694632,10.229051265444522,0.0911692865804574
14.697019999999998,10.230080666376525,0.0909513762718955
14.6994,10.237256139174638,0.0906927578516917
14.701804,10.248156274211867,0.0904193031430482
14.704192,10.263479919622508,0.0901080039352699
14.706575999999998,10.279734730592928,0.0897930457211527
14.708972,10.291054174510736,0.0895073495333976
14.71136,10.30558642398846,0.0891972104682561
14.713739999999998,10.317604716040568,0.088888754534018
14.71614,10.332416504772011,0.0885677433904506
14.718524,10.34429502719726,0.0882612631709101
14.720907999999998,10.352448887383396,0.087970115108237
14.723312,10.363396244248865,0.0876687418808725
14.7257,10.37862734186089,0.0873362349992978
14.728084,10.391064942793577,0.0870154792886408
14.73048,10.40094136447241,0.0867249197298423
14.732868,10.406534045404689,0.0864673189490375
14.735252,10.41398905745652,0.0862037823960932
14.737652,10.425168731747467,0.0859269426864128
14.74004,10.440212837904388,0.0856324615131644
14.74242,10.453115073688032,0.0853549888280102
14.744823999999998,10.4650861439119,0.0850816802618616
14.747208,10.471470220777094,0.0848288057426869
14.749588,10.475200570589818,0.0845818711825651
14.751984,10.479722316335456,0.084337220959946
14.754372,10.483592435775035,0.0840871091947586
14.756752,10.490954900028257,0.0838065158962984
14.759156,10.499388299468109,0.0835199209499194
14.761544,10.51033565633358,0.083232351332815
14.763924,10.523564653199188,0.0829261016339666
14.766327999999998,10.541449477863688,0.0826039977373496
14.768715999999998,10.56319873439416,0.0822662381672809
14.771096,10.58201472461844,0.0819428494639199
14.7735,10.595336269282663,0.0816612178599765
14.775887999999998,10.607586878760248,0.0813864660263013
14.778268,10.621187962678194,0.08109598895361
14.780663999999998,10.636139521036498,0.0807898253597523
14.783051999999998,10.648157813088606,0.0804976840768485
14.785432,10.65845354364802,0.0802081740331314
14.787827999999998,10.66395367678168,0.0799372807753817
14.790216,10.666520543609144,0.0796787131614501
14.792592,10.669087410436612,0.0794204121807163
14.794992,10.675890796182388,0.0791609423841666
14.797376,10.68576721786122,0.0788854022346367
14.79976,10.68949756767394,0.0786432147959632
14.802156,10.698023514912416,0.0783843595264859
14.80454,10.700915246963971,0.0781687999208663
14.806924,10.700594173455617,0.0779743252078425
14.809328,10.70148380476076,0.0777691163398815
14.811716,10.7053067023721,0.0775532232158588
14.814096,10.7075468081176,0.0773342909846536
14.816492,10.706713877930047,0.0771316276208526
14.81888,10.705089551809577,0.0769268788762859
14.82126,10.7070973401296,0.0766896011245867
14.823656,10.71231793400954,0.0764325046059622
14.826044,10.71632782307598,0.0761862687625413
14.828423999999998,10.718195841769148,0.0759530540199487
14.83082,10.71992409083545,0.075723786010458
14.833208,10.72258350546153,0.0754926387989318
14.835591999999998,10.731388991953729,0.075231146219719
14.837988,10.744478219192477,0.0749438087775163
14.840376,10.755844884938526,0.0746569918927866
14.842772,10.765256671766403,0.0743530730486768
14.845168,10.771735192288086,0.0740609283819868
14.847552,10.785710259116238,0.0737246515159994
14.849936,10.796100433332136,0.0733952167265849
14.852332,10.810914117921447,0.0730365329828518
14.854716,10.826007341764482,0.0726695903536024
14.857096,10.83937800411482,0.0723036842469195
14.859496,10.846230507546707,0.0719534349332062
14.86188,10.85615604691165,0.0715900639386884
14.864264,10.868502995903592,0.0712071962380337
14.86666,10.88378321120173,0.0708147200162023
14.869048,10.896781786499728,0.0704391759421602
14.871444,10.906707325864671,0.0700778183160549
14.873836,10.917983339669972,0.0697027501538516
14.876224,10.929538892728996,0.0693187812582254
14.878604,10.94258468985524,0.0689172222022206
14.881,10.954839091048562,0.0685147073328377
14.883388,10.95894531962936,0.0681464989133218
14.885772,10.962632239329578,0.0677915043991902
14.888168,10.967762181268771,0.06744475189407
14.89056,10.97419537582008,0.0671112330370243
14.89294,10.982351131864084,0.0667788321756044
14.895336,10.987154312721316,0.0664687734574383
14.897724,10.992189811004025,0.0661775754706226
14.900108,10.994012503726813,0.0659030833327074
14.902511999999998,10.9975577579423,0.0656297367690038
14.904899999999998,11.00347719995654,0.0653642093811511
14.90728,11.00855802420962,0.0651212232675456
14.909684,11.01200883476862,0.0649003849580631
14.912067999999998,11.009825430140706,0.0647141431598293
14.914452,11.005639924766376,0.0645348472476137
14.916847999999998,10.99824161383213,0.0643710413605477
14.919235999999998,10.993497029950362,0.0642067154773543
14.921616,10.988193367561149,0.0640581775850346
14.924011999999998,10.98633482815733,0.0639119307126782
14.9264,10.982566735805712,0.0637945374604448
14.92878,10.97595792494652,0.0637072698540222
14.931176,10.974936107445991,0.0636114556317133
14.933564,10.971492880318468,0.0635341885327488
14.935944,10.97033129319108,0.063442530369354
14.938344,10.967819231623338,0.063364093148207
14.940728,10.961163198935896,0.0633026434366702
14.943112,10.952365295875182,0.0632515501519393
14.945515999999998,10.941705061694908,0.0632030290543452
14.9479,10.934769489753748,0.0631491907026427
14.95028,10.92569204743931,0.0631056995442241
14.952683999999998,10.91368133881868,0.0630698857384592
14.955071999999998,10.90795647169102,0.0630068117817976
14.957452,10.899577877510884,0.0629434913425786
14.959851999999998,10.899207686316418,0.0628545070337566
14.962239999999998,10.900560056614648,0.0627670270091108
14.96462,10.91164339139124,0.0626558995368786
14.967016,10.922586956540972,0.0625490352527264
14.969404,10.93567239206398,0.062432455261921
14.971784,10.950899697960264,0.0623068931722218
14.97418,10.96747747829691,0.0621685562856492
14.976568,10.985545502700774,0.0620131907151065
14.978948,11.003753296731496,0.0618545130162033
14.981348,11.022659938896522,0.0616764717361786
14.983736,11.03849354512849,0.0615101803247717
14.986131999999998,11.055677625800818,0.0613316294861064
14.988528,11.076074512033063,0.0611379626875722
14.990916,11.1035486356912,0.0609225192890872
14.993296,11.12557553561752,0.060708405176505
14.995696,11.146671269984068,0.060496370536409
14.998084,11.169117478790971,0.0602720496714674
15.000464,11.192634622784514,0.0600429509505151
15.002868,11.21414966603164,0.0598213200619326
15.005252,11.237806579652045,0.0595902499441737
15.007635999999998,11.259880701406612,0.0593556451894796
15.01004,11.279720404989284,0.0591092684066581
15.012428,11.294112884840146,0.0588665100880348
15.014808,11.31027514801195,0.058601629933793
15.017204,11.321641813758,0.0583449625429441
15.019592,11.32863219095888,0.0580862541563555
15.021971999999998,11.339254682600256,0.0578041310617896
15.024368,11.355231850174825,0.0575011171850653
15.026756,11.366181102898164,0.0571873568453403
15.029135999999998,11.383788284166812,0.0568670176919816
15.031536,11.401302917636842,0.0565254238469649
15.033924,11.417886385547094,0.056185356868009
15.036303999999998,11.433957996778153,0.0558354864488818
15.0387,11.438296542784425,0.0555075132520648
15.041087999999998,11.460374456254728,0.0551454513195623
15.043471999999998,11.47463095819447,0.0547725271346083
15.045868,11.492751892000184,0.0543959253317275
15.048256,11.506915846141313,0.0540029618830917
