Time,Force,Position
15.308632,7.4756037430486,0.1558070999039978
15.311012,7.479141413832611,0.1558002238655746
15.313408,7.495809846110004,0.1555313678967012
15.315796,7.507170824282447,0.1553299569298964
15.31818,7.517600636895112,0.1551462057622618
15.320576,7.532546507679807,0.154905482766464
15.322964,7.550797731823036,0.1546295200855482
15.325344,7.566767315966127,0.1544031798996545
15.327744,7.584319691975055,0.1541659790086227
15.330132,7.614489076940301,0.1537772373000702
15.332524,7.650757311943412,0.1533199366728783
15.33492,7.6842320502671875,0.1528990233749898
15.337307999999998,7.717194931911766,0.1524787669453323
15.339688,7.753138301690782,0.1519798231300591
15.342088,7.7896407499772415,0.1514595778894276
15.344472,7.821627140091668,0.1509936013125695
15.346856,7.849516780914644,0.1505628224956221
15.34926,7.8793159746854196,0.1500685084003965
15.351644,7.910884951777136,0.1495237822296968
15.354028,7.939520662562654,0.1490258813190525
15.356424,7.974534762639764,0.1484499309431532
15.358812,8.008058618649653,0.1479144620969736
15.361192,8.032083827606655,0.1475487103809254
15.363587999999998,8.06062509473569,0.1471361667905571
15.365975999999998,8.086465412984005,0.1467932502664641
15.368356,8.111746652724879,0.1464785575527613
15.370755999999998,8.13930953246589,0.1461177264964973
15.373143999999998,8.165149850714206,0.1457717389095639
15.375524,8.19355134821638,0.1453733384078727
15.377923999999998,8.210499319747493,0.1451293552317671
15.380311999999998,8.222931233106575,0.1449347289341264
15.382692,8.234991059413318,0.1447227338211424
15.385088,8.236808064562501,0.1446349203589374
15.387476,8.239044378592265,0.1445281838106253
15.38986,8.239558131129332,0.1444375421380155
15.392256,8.24593841627879,0.1442683357038563
15.394644,8.252690788480583,0.1441141827682554
15.39704,8.261677578854272,0.1439545951300111
15.399436,8.268522498854685,0.1438308806601379
15.401824,8.28030278590771,0.1436422167853101
15.404203999999998,8.287939101841038,0.1435159021934036
15.406604,8.297996827401366,0.1433427642772726
15.408992,8.312757602588828,0.1430826003098116
15.411371999999998,8.321699066992142,0.1428657030529626
15.413768,8.329896357290782,0.1426193148635288
15.416156,8.340003200537222,0.1423190662862778
15.418536,8.353183079716718,0.1419767549273109
15.420932,8.368924138150069,0.1415824223795747
15.42332,8.38080076471745,0.1412376829596368
15.425704,8.396402053523943,0.1408518451808081
15.4281,8.413725903823131,0.1404501565728503
15.430488,8.44129257527988,0.1399427994376313
15.432868,8.479800916028493,0.1392934297429613
15.435263999999998,8.5104406234183,0.1387443080275119
15.437651999999998,8.538798690807969,0.1382350068746791
15.440036,8.563292326331664,0.1377752281822367
15.442431999999998,8.592069702601915,0.1372539023946798
15.444819999999998,8.621173839954128,0.1366923208456241
15.447204,8.650837055813781,0.1361084764059038
15.449599999999998,8.674121882381849,0.1355892177498084
15.451987999999998,8.703832320069745,0.1349800297721044
15.454372,8.73340298813078,0.134381007173876
15.456768,8.756548045071987,0.1338742544030476
15.459155999999998,8.78020495869239,0.1333764207240769
15.461536,8.804233959365131,0.132896374719806
15.463936,8.823280371157015,0.1325073751192156
15.523684,8.564934064409936,0.1324065113453934
15.526064,8.554041512804186,0.1324064699583584
15.528467999999998,8.54687362343755,0.1323712806420463
15.530855999999998,8.542639000377108,0.13230312506558
15.533236,8.533748549517775,0.1322792266302963
15.535632,8.527279508285439,0.1322132798074363
15.53802,8.526956538919213,0.1320699468899113
15.540404,8.533478489553401,0.1318199612146498
15.542799999999998,8.54456372018786,0.1314982027576193
15.545188,8.56393689306171,0.1310701012500504
15.547568,8.585871245189415,0.130593400130111
15.549964,8.599425107279117,0.130193526791741
15.552356,8.61162849492846,0.1298212874329618
15.554736,8.623552343324082,0.1294597179115232
15.557132,8.643764133959094,0.1289944910038346
15.55952,8.665605938288184,0.1284925749338821
15.561904,8.68903053448311,0.1279867795955165
15.5643,8.711244425864537,0.1275053224541679
15.566688,8.732946460566769,0.1270182462137763
15.569072,8.751203372283603,0.1265569246725477
15.571468,8.7696000536273,0.1260924083201145
15.573856,8.789207439784496,0.1256070357796857
15.576236,8.813378105941966,0.1250563596718414
15.578632,8.837036915420239,0.1245003855539326
15.58102,8.862977364898649,0.1239108667284392
15.583404,8.885984548070862,0.1233522653493957
15.5858,8.905406838630823,0.122821402996163
15.588192,8.916680956578258,0.1223842916793503
15.590572,8.926884139339053,0.1219626139608104
15.592975999999998,8.931640098368042,0.1215837227895389
15.59536,8.935045582956665,0.1212297662876608
15.59774,8.950184132770072,0.1207602545572102
15.600143999999998,8.968395718516534,0.1202580097547677
15.602531999999998,8.990611505755833,0.1197146269715949
15.604912,8.999883522956852,0.1193047380553002
15.607307999999998,9.005663195344232,0.1189463780414981
15.609696,9.008649371052275,0.1186105186006474
15.612076,9.007910884521207,0.1183042611908211
15.614468,9.00181772205695,0.1180635626699847
15.616856,8.989578487726579,0.1178902619961783
15.619236,8.974917843769212,0.1177549209696585
15.621632,8.962631387610598,0.1176139343834411
15.62402,8.947132125892068,0.1175118887112568
15.6264,8.93014262010632,0.1174394264814697
15.628796,8.910452165439855,0.1174155853972702
15.631184,8.892204733012363,0.1173940608057629
15.63358,8.878333589130044,0.1173466175276146
15.650315999999998,8.776713836208168,0.1173121892120538
15.6527,8.766100823856139,0.117283149147793
15.65508,8.762285509676277,0.1171931229770462
15.657476,8.76233462736239,0.1170693854841795
15.659864,8.769041673593811,0.1168915301369839
15.662244,8.781475482810762,0.1166657180574869
15.66464,8.805362817998772,0.1163450849267055
15.667028,8.831392023560062,0.1159996548057451
15.669424,8.855698667628651,0.1156642582125598
15.67182,8.883729973936356,0.1153048629921977
15.674204,8.912832215430699,0.1149343782081775
15.676584,8.949151463977792,0.1144914911082009
15.678983999999998,8.986401878084665,0.1140425821430731
15.681372,9.018437385885203,0.113650112706729
15.683752,9.053778247044276,0.1132494639477477
15.686148,9.096755424136678,0.1127610919118416
15.688536,9.143085176415855,0.1122341732751915
15.690916,9.185643044627676,0.1117685580302416
15.693312,9.232577201384668,0.1112803133384006
15.6957,9.282304854820996,0.1107722749717347
15.698096,9.32774876751077,0.1103151623386067
15.700492,9.373844306506598,0.1098676358116905
15.702875999999998,9.411000276956983,0.1095003431535534
15.705256,9.447876708153649,0.1091472771713713
15.707655999999998,9.478746837111062,0.1088495354271907
15.71004,9.509896505322198,0.1085440945984395
15.712424,9.535459180174662,0.1082788469075782
15.71482,9.55915952390757,0.1080263655538265
15.717208,9.582720098013615,0.1077796177364468
15.719588,9.60106576581333,0.1075849536709294
15.721984,9.619271663986186,0.1073964748780901
15.724372,9.629329389546513,0.1072817237450868
15.726752,9.6407375895472,0.1071464531890589
15.729152,9.65764023510794,0.1069517664055134
15.73154,9.672820319175983,0.1067647209942334
15.733935999999998,9.680783396191275,0.1066441910129808
15.736332,9.684742271713736,0.1065568720336101
15.73872,9.68860859943758,0.1064446931280321
15.741103999999998,9.68809863861625,0.1063504022133215
15.7435,9.687728447421785,0.106251255820449
15.745888,9.689639896227453,0.106125808703936
15.748268,9.684893416487814,0.1060444120361831
15.750672,9.685222073427644,0.1059195570209319
15.753056,9.682897003315004,0.1058065637401483
15.755436,9.683644969135417,0.1056665917991967
15.75784,9.682530603836272,0.1055380967506819
15.760228,9.679414137790715,0.1054255259630671
15.762607999999998,9.68030187323799,0.1052811539168638
15.765008,9.681189608685264,0.1051368327122895
15.767396,9.682496653013116,0.1049771122168543
15.769775999999998,9.681289739915352,0.1048236649611618
15.772172,9.683435402004369,0.1046331205154798
15.774556,9.680925236294492,0.1044699400469635
15.776939999999998,9.67683227871878,0.1043081292130107
15.779336,9.67143606853095,0.1041369541682499
15.781719999999998,9.6676698720372,0.1039349232143223
15.784104,9.667256250730224,0.1036972234872729
15.786499999999998,9.66670285979639,0.1034643035706477
15.788887999999998,9.671504144795746,0.1031801313946276
15.791268,9.676864508302543,0.1028771567569753
15.793663999999998,9.681293706249573,0.1025800662692991
15.796052,9.6930796808762,0.1022174290505649
15.798448,9.70435379882363,0.1018462100861662
15.800844,9.7179095567712,0.1014508642210113
15.803232,9.729091126920014,0.1010561754830544
15.805611999999998,9.738410365949273,0.1006712892483379
15.808008,9.752153115351948,0.1002426418473
15.810396,9.760169101769089,0.0998493522802099
15.812779999999998,9.768883936320533,0.0994322014091269
15.815176,9.7778783101257,0.0990049703117771
15.81756,9.790737115796835,0.0985542487037547
15.819944,9.803735691094833,0.0980995354609896
15.82234,9.821390094191722,0.0976212148930558
15.824728,9.83448121728834,0.0971911528120013
15.827108,9.847153031504371,0.0967757063815355
15.829503999999998,9.860196932772748,0.0963753734645749
15.831891999999998,9.870167798108064,0.0960001961018095
15.834288,9.879207497883606,0.0956290821994879
15.836684,9.887827888778563,0.09527495434777
15.839072,9.892024769300107,0.0949631605241737
15.841452,9.896221649821651,0.0946517566214608
15.843848,9.897205724783282,0.0943696358369613
15.846236,9.898841426050968,0.094093329850641
15.848615999999998,9.89698478250502,0.0938540761119343
15.85102,9.898433492317604,0.0936119698356543
15.853404,9.905608965115716,0.0933401008712198
15.855788,9.911294193846611,0.0930928376524801
15.858184,9.919493380003122,0.0928418469119807
15.860572,9.926062552465552,0.0926190206030284
15.862951999999998,9.93435428642068,0.0923930231214931
15.865348,9.937710653323192,0.0921974015288208
15.867736,9.938925149852432,0.0920193702121541
15.870116,9.940279416008526,0.0918375355050592
15.872512,9.946057192538037,0.091615758052286
15.874899999999998,9.952114508321271,0.091384455080901
15.877296,9.9605932337315,0.091127238942115
15.879696,9.965719383954957,0.0908997282912101
15.88208,9.97629275791022,0.0906537338935086
15.884464,9.98300169999951,0.0904287018162242
15.88686,9.992504138768137,0.0901911591377448
15.889248,10.00172703828304,0.0899633207112319
15.891628,10.008668297797804,0.0897572243890357
15.894028,10.01239675175266,0.0895770381195964
15.896416,10.018406845707649,0.0893745972774038
15.898796,10.020692277423525,0.0891880871816453
15.901192,10.01590047171351,0.0890479544075074
15.90358,10.00845493895102,0.0889146387899922
15.90596,9.998215909509195,0.0887926717308708
15.90836,9.987325253761316,0.088664821946446
15.910744,9.976294828386576,0.0885416550211103
15.913123999999998,9.971130935624224,0.0883859669159499
15.915524,9.968900309168069,0.088214036101363
15.917908,9.963456877151998,0.08806767303434
15.920288,9.95452110032229,0.0879558032254007
15.922696,9.94795951129134,0.0878466831368316
15.92508,9.938185116700472,0.0877625295202548
15.927464,9.935627729162352,0.0876292513380714
15.92986,9.92841451382534,0.0875145294418734
15.932248,9.923203399234746,0.0873876748611712
15.934632,9.920413694271147,0.0872353531145727
15.937028,9.917112132628356,0.0870726700967499
15.939416,9.9160922109857,0.0868887418155413
15.941795999999998,9.91963556934332,0.0866631175235921
15.944196,9.923970323633853,0.0864390441070937
15.94658,9.931517883484302,0.0861908652047063
15.948963999999998,9.94120731370803,0.0859255655576435
15.95136,9.951548370237818,0.0856654911775058
15.953748,9.967755959379994,0.0853756009458429
15.956144,9.986477505947786,0.0850846537969139
15.958543999999998,10.001334620649605,0.0848119370047244
15.960928,10.008043562738893,0.0845898196374888
15.963312,10.014752504828182,0.0843685361027356
15.965708,10.022672151730973,0.0841346387258194
15.968096,10.032733669007037,0.0838843214173317
15.97048,10.040281228857488,0.0836355556724455
15.972876,10.04983088945436,0.0833758035730272
15.975264,10.055516118185254,0.0831350237865993
15.977644,10.061201346916151,0.0828939966694586
15.98004,10.067677971579965,0.0826548027315129
15.982428,10.070802021056998,0.0824442253476891
15.984812,10.073646531280316,0.0822426268263939
15.987208,10.078493142250048,0.0820307863223433
15.989596,10.08184950915256,0.0818412087643708
15.991976,10.084414480122156,0.0816506142981211
15.994376,10.085349437397673,0.0814859681990873
15.99676,10.090288596166022,0.0813006784471829
15.999144,10.098021251613709,0.0811065993966819
16.00154,10.104031345568696,0.0809152306343272
16.003928000000002,10.112183309896963,0.0807101174087329
16.006307999999997,10.125410410904705,0.0804772509971099
16.008704,10.147856619711607,0.0801917505141181
16.011091999999998,10.168300727772095,0.0799171295635709
16.013488000000002,10.188744835832583,0.0796432614946257
16.015884,10.211470583893208,0.079352036669808
16.018276,10.234987727886752,0.0790627615466865
16.020656000000002,10.255431835947238,0.0787908909484727
16.023052,10.278529671060202,0.0785160325687187
16.025440000000003,10.300836110240244,0.0782392864249906
16.027824000000003,10.32221138386051,0.0779661172783631
16.03022,10.346659693413832,0.0776768671698906
16.032607999999996,10.373110103713572,0.0773785701594056
16.034988,10.396627247707116,0.0770940129216265
16.037384000000003,10.420144391700658,0.0768106362717472
16.039775999999996,10.442730370134424,0.076530377444829
16.042156,10.466806592635407,0.0762310366425998
16.044552000000003,10.48394534733736,0.0759630618003626
16.04694,10.49884968386742,0.0756863583592351
16.04932,10.516827056330538,0.0753960555777595
16.051720000000003,10.53135930580826,0.0751084462597615
16.054108,10.544960389726208,0.0748248634351504
16.056488,10.55362610659154,0.0745630052896784
16.058888000000003,10.56457346345701,0.074284361746526
16.061276,10.57645198588226,0.0740041860827287
16.06366,10.585909098680512,0.0737463231685993
16.066056000000003,10.59457481554584,0.0734866150972314
16.068440000000002,10.60631356834423,0.0732118882596992
16.070824,10.614886737410943,0.0729298639910227
16.07322,10.627324338343634,0.0726355072961412
16.075608000000003,10.63724798185071,0.0723389255488633
16.077992000000002,10.643446963118674,0.072051318839349
16.080388,10.650577109946411,0.071762783982048
16.082776000000003,10.657427717520433,0.0714822910735264
16.085155999999998,10.662555763601755,0.0712020914716964
16.087556,10.670617075989275,0.0709123065681952
16.089944000000003,10.673882790951042,0.0706364212410263
16.092328000000002,10.68208387296542,0.0703416348699917
16.094724,10.692007516472492,0.0700476714300613
16.097116,10.69378298736704,0.0697904991261542
16.0995,10.696070314940783,0.0695438468631746
16.101895999999996,10.694353441021695,0.069312883923007
16.104280000000003,10.694498898222164,0.069078299231862
16.106664000000002,10.691152010608995,0.0688698714135313
16.10906,10.683800921502996,0.0686768201837464
16.111444,10.676729371650714,0.0684755151129379
16.113827999999998,10.671520152917989,0.0682705708512649
16.116224000000003,10.662446502319291,0.0680766504395656
16.118608000000002,10.653605169146072,0.0679010142234667
16.121007999999996,10.64448429671913,0.0677340641558057
16.123404,10.641881583210637,0.0675551135053375
16.125791999999997,10.642072366381475,0.0673709930380825
16.128172,10.639609422499843,0.0671881449200363
16.130567999999997,10.639428118618346,0.0669898651969443
16.132956,10.640317749923488,0.0667858976583666
16.13534,10.6372031797358,0.0665966465695475
16.137735999999997,10.641398164399476,0.0663988122715155
16.140124,10.64680385387665,0.06619222548697
16.142504000000002,10.65407187447338,0.0659837327753226
16.1449,10.664273161376308,0.0657658806098113
16.147288000000003,10.674614217906091,0.0655443401127866
16.149668,10.688679936674994,0.0653167041571258
16.152071999999997,10.70088332432434,0.0650924939222808
16.15446,10.718441387906871,0.0648415874828059
16.156840000000003,10.739072487422463,0.0645779919202754
16.159236,10.761845457311331,0.0643049702143266
16.161623999999996,10.786760297573478,0.0640232527383405
16.164008000000003,10.81968354082129,0.0637164983122093
16.166412,10.858752855935212,0.0633882122262071
16.168796,10.896379148810162,0.0630526349472833
16.17118,10.930001240192272,0.0627322925741592
16.173572,10.960829834895051,0.0624163155881972
16.175959999999996,10.991518659970971,0.0621046926887812
16.17834,11.022207485046888,0.0617948505866936
16.18074,11.053967245309446,0.0614815957357099
16.183124,11.087729106318422,0.0611623400245383
16.185508,11.118185613968862,0.0608382473859388
16.187904000000003,11.147710956059523,0.0605175914507135
16.190288000000002,11.1713697655378,0.0602117354810136
16.192684,11.198241380575984,0.0598924582792564
16.195079999999997,11.224321599681254,0.0595709923479904
16.197468,11.2537543939733,0.0592339161814875
16.199852,11.28705162013132,0.0588908855159041
16.202247999999997,11.31341137849031,0.0585664140372167
16.204636,11.341121611289658,0.0582311926346092
16.207016000000003,11.364036246663256,0.0579049411492995
16.209412,11.377080147931627,0.0576017340911041
16.211799999999997,11.383326351027833,0.0573132221643602
16.21418,11.382774855951869,0.0570387276267955
16.21658,11.379010555315991,0.0567772286923073
16.218964,11.375665563560691,0.0565046816232952
16.221348,11.376185003671369,0.0562257576927099
16.223743999999996,11.380429106021156,0.0559447753772002
16.226132,11.38066900687811,0.0556737091288174
16.228527999999997,11.37662516698851,0.0554198467677168
16.230919999999998,11.370579226352492,0.0551706430636574
16.233308,11.3611807105297,0.0549376219430319
16.235688000000003,11.346567288400577,0.0547219144255587
16.238092,11.333816197391004,0.0545042531534993
16.240479999999998,11.317992070448382,0.0542957794903154
16.24286,11.303890504998456,0.0540897497653873
16.245255999999998,11.281920306189722,0.0538987612643031
16.247644,11.252872869955098,0.0537257605285679
16.250023999999996,11.23155429745242,0.0535410565550814
16.252423999999998,11.210747581628944,0.0533669564602299
16.254812,11.193385988790856,0.0531979281309703
16.257191999999996,11.187617691550692,0.0530123097624658
16.259591999999998,11.182221481362864,0.0528405988950924
16.26198,11.176545731921316,0.0526757388421374
16.264359999999996,11.17445487509202,0.0525127236938912
16.266756,11.17287587494192,0.0523606385559637
16.269143999999997,11.170086169978324,0.0522167227409282
16.271527999999996,11.161429932402337,0.0520822485603183
16.273924,11.158360688185018,0.0519457441065951
16.276311999999997,11.159947271766594,0.0518075111822264
16.278692,11.16646922240078,0.0516606576509077
16.281092,11.17671583527408,0.051512420718684
16.283479999999997,11.191618275946274,0.0513624095025267
16.28586,11.208522817364882,0.0512084907594348
16.288255999999997,11.222866179529632,0.05107310411034
16.290647999999997,11.235067671321108,0.0509458739617509
16.293028,11.252856156471248,0.0508172385640367
16.295423999999997,11.276790713487504,0.0506724824360747
16.297812,11.294858737891367,0.0505372459879919
16.300196,11.307851625615765,0.0504142079845191
16.302591999999997,11.3177714774071,0.0502991485337878
16.304983999999997,11.319962465466489,0.0501933838953491
16.307364,11.322572762406455,0.0500765140794415
16.309768,11.327045390465983,0.0499591494113635
16.312156,11.329935226659671,0.0498348953025944
16.314535999999997,11.325887595054336,0.049722291186089
16.316932,11.318906697142802,0.0496137207061724
16.319316,11.310994633671491,0.0495046449566197
16.3217,11.294702080162176,0.0493964287700538
16.324095999999997,11.274033238107686,0.0492811417234812
