Time,Force,Position
15.156536,7.443268163836581,0.1599102221999857
15.158915999999998,7.462261666226617,0.1597661365062052
15.16132,7.484607743803426,0.159553172481454
15.163708,7.504998942462064,0.1593369304478873
15.166087999999998,7.529022255561196,0.1590402941844191
15.168492,7.559750719033881,0.1586131055609406
15.17088,7.59434361437254,0.1581257394931745
15.17326,7.636293286390806,0.1575070482439384
15.175656,7.678242958409075,0.1568854444196489
15.178044,7.719541004121284,0.1562636711455627
15.180424,7.75655530908694,0.1557330170263548
15.18282,7.806605931889493,0.1550190406577645
15.185208,7.852792122826071,0.1543665686841246
15.187587999999998,7.895161103724918,0.153744042011292
15.189992,7.933061248279978,0.1531392125466197
15.19238,7.969286053170585,0.1525201360341217
15.19476,8.006768784702935,0.1518452285018096
15.197156,8.043647111757467,0.1511350083310092
15.199544,8.081411278401406,0.1503489523109361
15.201923999999998,8.115358235007614,0.1495863425986371
15.20432,8.148793334934624,0.1488232529115453
15.206708,8.178177011540559,0.1481672485383334
15.209088,8.203556486653657,0.1475720964677685
15.211492,8.225351069154502,0.1470137842552704
15.21388,8.24155865829668,0.1465290034378339
15.216259999999998,8.250269701132389,0.1461760483544626
15.218664,8.265079594005963,0.1457692982011644
15.221052,8.275465976506123,0.1454431440172748
15.223427999999998,8.287482372700362,0.1450731104008837
15.225836,8.300337386655762,0.1446650167240437
15.22822,8.31109775206613,0.1442575768189638
15.2306,8.318692533744825,0.1438716675784028
15.233004,8.329639890610295,0.1434283148097087
15.235392,8.335279793370816,0.1430344320208303
15.237772,8.344132501691252,0.1425887760437453
15.240175999999998,8.354847541131246,0.142125028992816
15.24256,8.363792797250298,0.141713503282454
15.244944,8.371759665981331,0.1413470850442271
15.247336,8.374883715458367,0.1410727524111672
15.249724,8.376517520868186,0.140833836846021
15.252104,8.377592247770563,0.1406218845087286
15.2545,8.37987767948644,0.1403877265904584
15.256888,8.382814737508372,0.1401549005681144
15.259268,8.391478558515834,0.139853407117466
15.261672,8.401492853963658,0.1395221628498326
15.264056,8.417001594971534,0.1391029414572503
15.319024,8.277823625439517,0.138999745093841
15.321412,8.288718072903135,0.1388925955296517
15.323792,8.296958793314282,0.1388091643331203
15.326187999999998,8.301614621113172,0.1387590109361433
15.328575999999998,8.31069395928548,0.1386368594755692
15.330956,8.319773297457786,0.1385158579073779
15.333355999999998,8.332065441190007,0.138346492423997
15.33574,8.347430620855285,0.1381354750818747
15.33812,8.36931395943901,0.1378564021498829
15.340516,8.39399079470207,0.1375489287196119
15.342904,8.419738565151768,0.1372298061762932
15.345288,8.447208897094164,0.1369029111972649
15.347684,8.477892034596476,0.1365305421961551
15.350072,8.511136351352642,0.13610761049314
15.352452,8.544520437735672,0.1356833392864607
15.354855999999998,8.57902268113358,0.1352152621408648
15.357243999999998,8.620789153412485,0.1346220665262159
15.359628,8.666467279385603,0.1339512994874402
15.362023999999998,8.71484635423944,0.1332341703972947
15.364411999999998,8.758057744615188,0.1325554054303146
15.366792,8.797963781632404,0.131897985853442
15.369188,8.829117241559278,0.1313115760196415
15.371576,8.864833981486424,0.1306581952699708
15.373956,8.906976332533402,0.1299189464003975
15.376364,8.94446285578149,0.1292243491247556
15.378747999999998,8.977433320857545,0.1285671437344261
15.381128,9.006027497388429,0.127942156363794
15.383523999999998,9.03196794686684,0.1273393326513898
15.385908,9.0526009422403,0.126778493338934
15.388288,9.071790915374784,0.1262195759327013
15.390691999999998,9.085533664777458,0.1257063985578334
15.39308,9.091035693768989,0.1252624191995545
15.39546,9.091881894961624,0.124859963672153
15.397863999999998,9.091657160967625,0.1244716332309858
15.400251999999998,9.08891846954801,0.1240970639255515
15.402632,9.07775206626215,0.123827513817484
15.405036,9.061091217416234,0.1236331741159668
15.407419999999998,9.04270780707762,0.1234483502431184
15.4098,9.021111591179094,0.1233034076628821
15.4122,9.004171203079457,0.1231184786226559
15.414583999999998,8.988301750166459,0.1229194515051434
15.416964,8.975737650611993,0.122705871048731
15.419368,8.959960745497611,0.122532222347067
15.421751999999998,8.940691495569595,0.1224091291560877
15.424132,8.92621784306733,0.1222420742618645
15.426536,8.915888161684759,0.1220274966567306
15.428924,8.910214308101079,0.1217751804326382
15.431304,8.903609288957622,0.12152972248439
15.433699999999998,8.896073104254386,0.1212907600579578
15.436087999999998,8.887326214737653,0.1210703669181207
15.438472,8.88188467857945,0.1208366514120616
15.440867999999998,8.881098970220142,0.1205643739620428
15.443255999999998,8.881756284099808,0.120293136034967
15.445636,8.884787785778228,0.1200168743910182
15.44804,8.887120439322345,0.1197688603972935
15.450428,8.897181956598413,0.1194477803468547
15.452808,8.907243473874477,0.1191263172296385
15.455203999999998,8.915674977456463,0.1188405447439599
15.457591999999998,8.920474366597956,0.1186113681480946
15.459972,8.920058849433113,0.1184432992275102
15.462367999999998,8.917082153014412,0.1183190997103971
15.464755999999998,8.913034521409074,0.1182083515826006
15.46714,8.905913853870679,0.1181316708364665
15.469535999999998,8.898932955959145,0.1180491054422693
15.479084,8.856154145469064,0.1179879830726221
15.481464,8.85187230058038,0.1179480054873814
15.48386,8.84838185162461,0.1179063468414097
15.486248,8.844100006735928,0.1178662423766847
15.488628,8.842471888899718,0.1178101261472859
15.491024,8.842194245503865,0.1177297842119027
15.493412,8.840613349495898,0.1176413499626282
15.495791999999998,8.84010338867457,0.1175400540300599
15.498192,8.838522492666604,0.117451793800323
15.50058,8.836662057404917,0.1173746429612059
15.502959999999998,8.840016528449562,0.1172398521550707
15.505356,8.845652639494343,0.1170731801882997
15.507744,8.859157383897934,0.1168336927949002
15.510124,8.876014703488297,0.1165503350908551
15.512539999999998,8.894082727892162,0.1162497285484364
15.514924,8.9148044793485,0.1159323260160117
15.517324,8.936457396364618,0.1156091011813003
15.519716,8.957970543753875,0.1152930512569555
15.522104,8.982556727076187,0.1149457847472959
15.524487999999998,9.00742244965222,0.1145877415921101
15.526884,9.031357006668474,0.1142376023238854
15.529267999999998,9.051566901445616,0.1139177744621492
15.531652,9.074989601782672,0.1135634113761759
15.534056,9.098272532492867,0.1132151554046553
15.536444,9.116620096150454,0.1129123728476118
15.538823999999998,9.135619286114096,0.1126149795009369
15.541224,9.157411972757076,0.1123004583630567
15.543612,9.178413263467132,0.1119871037957997
15.545991999999998,9.200904798244409,0.11164797119434
15.548388,9.22768007376824,0.1112631510215902
15.550771999999998,9.25031137817238,0.1109222736062004
15.553152,9.27908875444263,0.1105252632594981
15.555552,9.300137266980936,0.1101909854660574
15.55794,9.320254613959458,0.109864395593885
15.56032,9.338090320937845,0.1095665774272668
15.562724,9.360349538289649,0.1092203662531494
15.565108,9.384750626014725,0.1088546343787947
15.567484,9.40943125299352,0.1084802302883694
15.569879999999998,9.43425164959918,0.1081036702425673
15.572264,9.4592118158317,0.1077228752722175
15.574644,9.4845912909448,0.1073274884949489
15.57706,9.50903960049812,0.1069381631511359
15.579444,9.531485809305025,0.1065688844398317
15.581824,9.553420161432731,0.1061902539090783
15.584219999999998,9.578567319120356,0.1057790811245504
15.586604,9.606135886434974,0.1053395387000216
15.588984,9.626347677069983,0.1049699322303901
15.591396,9.649492734011186,0.1045797584018142
15.593784,9.669145446138758,0.1042330844610126
15.596163999999998,9.685864891960131,0.1039102897079
15.598564,9.705377834460837,0.1035718389264452
15.600952,9.717673769908796,0.1032982651776386
15.603331999999998,9.73304274128981,0.1029978646855686
15.605732,9.75213637490994,0.1026784270011774
15.60812,9.773511648530205,0.1023337953929898
15.610499999999998,9.786598979911084,0.1020620247138486
15.612896,9.795542340172268,0.1018272808136904
15.615284,9.80355453487367,0.1015984625691843
15.617663999999998,9.809564628828658,0.1013857402289627
15.620068,9.819299385022758,0.1011540691366219
15.622452,9.829406228269196,0.1009375902566205
15.624831999999998,9.84109586338147,0.1007210418870516
15.627236,9.850364088866748,0.1005342949325384
15.629624,9.861075336591,0.100352630300734
15.632003999999998,9.871646814688392,0.1001766854600428
15.634408,9.87979688315879,0.1000311925445392
15.636792,9.894372562749018,0.0998270763557013
15.639172,9.906806371965969,0.099643241368508
15.641576,9.921242281929333,0.0994449877722474
15.643964,9.936190048571897,0.0992569628870511
15.646344,9.949555023348626,0.0990697397935288
15.64874,9.965853264431551,0.0988632273442439
15.651128,9.985456858873007,0.0986535923142265
15.653508,9.997052050328794,0.0985010732927596
15.655912,10.01158050809078,0.0983314073794597
15.6583,10.032394807345732,0.0981099298195652
15.66068,10.053069336973826,0.0978927504472187
15.663076,10.069320356228513,0.0977171789728324
15.665464,10.085571375483193,0.0975420164898637
15.667844,10.095816092498625,0.0974096855642318
15.670248,10.107271514327554,0.0972639068881933
15.672636,10.12007741059684,0.0971001640456763
15.675016,10.137446586866403,0.0968908080981394
15.677412,10.152673892762689,0.0966999159177548
15.679796,10.167109802726058,0.096509525120018
15.68218,10.178752216010093,0.0963325125341433
15.684576,10.191186025227044,0.0961573820602542
15.686964,10.20576170481727,0.0959649478270595
15.689343999999998,10.218894362168522,0.0957677008088501
15.69174,10.230444227653935,0.0955699896308818
15.694128,10.240923157952714,0.0953814122812502
15.69652,10.249959066012517,0.0951878546850257
15.698923999999998,10.255969159967506,0.0949893386817395
15.701311999999998,10.27026719616188,0.094729622067879
15.703688,10.277907303810949,0.0945047349855131
15.706091999999998,10.286478577019796,0.0942774249609905
15.708479999999998,10.298681964669138,0.0940112396458757
15.71086,10.321594704184868,0.0936604679689995
15.713256,10.346789083700733,0.0932899761720628
15.71564,10.37175114579112,0.0928994410232082
15.718024,10.393268084896118,0.0925167146382314
15.72042,10.41120013138886,0.0921462442107887
15.722804,10.422194710082575,0.0918171990630104
15.725184,10.436961172843644,0.09144576080143
15.72758,10.450516930791215,0.0910872739645111
15.729968,10.465423163179144,0.0907107962665163
15.732364,10.477675668514598,0.0903432495453327
15.734759999999998,10.488205612357357,0.089980220768323
15.737144,10.49873555620012,0.0896172183862344
15.739524,10.514759945602927,0.0892111146268144
15.741927999999998,10.52999293907282,0.0888035968130831
15.744315999999998,10.546017328475637,0.0883972916523624
15.746696,10.560179386758891,0.0879986293605168
15.7491,10.56568141575042,0.0876416968834865
15.751483999999998,10.572766236607784,0.0872854153170557
15.753868,10.57612639522604,0.0869446344947191
15.756263999999998,10.57348025160504,0.0866381825714007
15.758651999999998,10.565060123170271,0.0863861502349639
15.761032,10.552775562869524,0.0861520789752461
15.763436,10.54207379443462,0.0859191872967505
15.765824,10.533606444171603,0.0856935076400542
15.768204,10.529283065028284,0.0854413130075213
15.770599999999998,10.529755283310717,0.0851675432019706
15.772987999999998,10.531018897526064,0.084896504860892
15.775364,10.532981359875714,0.0846035042282989
15.77776,10.53759754927784,0.0843058354505473
15.780144,10.53900093312005,0.084030258797297
15.78254,10.536679654723148,0.0837667584972575
15.784935999999998,10.533939067445662,0.0835160067247904
15.78732,10.525424495354404,0.0833163528131627
15.7897,10.517701319196064,0.0831174314155606
15.792103999999998,10.508767438224226,0.0829301232255676
15.794491999999998,10.505001241730476,0.0827376106125579
15.796872,10.5056113337819,0.0825376552316828
15.799267999999998,10.5083632962066,0.0823230223810122
15.801655999999998,10.508833618631163,0.0821269625722002
15.804036,10.512609294414258,0.0819311017135673
15.806432,10.512008681652183,0.0817413988079205
15.80882,10.507915724076469,0.0815818886342995
15.8112,10.50619695429951,0.0814264545226833
15.8136,10.499450269671325,0.0812714313629475
15.815984,10.487860765789144,0.0811637817533347
15.81838,10.47627126190696,0.0810560504482833
15.820776,10.460677556531945,0.0809688078260104
15.823163999999998,10.445316168582409,0.0809000099037791
15.825544,10.42823221914017,0.0808323453090927
15.827948,10.412358974511434,0.0807527251458311
15.830336,10.401653414360789,0.0806684036338054
15.832715999999998,10.394300429396914,0.0805578820293221
15.835112,10.386435587753846,0.0804368751815112
15.8375,10.381643782043833,0.0802986025646751
15.83988,10.380344321147456,0.080130293571752
15.84228,10.371595535772853,0.079984446380026
15.844663999999998,10.367270260771663,0.0798063711270772
15.847048,10.35936009315822,0.0796346553654178
15.849443999999998,10.35852716297067,0.0794269231630537
15.851828,10.357182376103918,0.0792088816041846
15.854208,10.355977358864026,0.0789851034318543
15.856604,10.363060283863524,0.0787134083161015
15.858992,10.369910891437543,0.078423935153923
15.861387999999998,10.386352693863063,0.0781001946853025
15.863784,10.404144970728948,0.0777599862722935
15.866172,10.421285621288773,0.0774150838937993
15.868552,10.437215567035096,0.0770808197114756
15.870948,10.45449598722178,0.0767319688954811
15.873335999999998,10.471636637781604,0.0763882308879268
15.875716,10.493712655394042,0.0760246303230556
15.87812,10.516347751513916,0.075646330970138
15.880503999999998,10.538563538753214,0.0752832519884262
15.882884,10.562501887485206,0.0749195116320178
15.885288,10.583367200284144,0.0745726223108406
15.887671999999998,10.600740168269446,0.074255098243935
15.890052,10.617973366627888,0.0739395903982122
15.892456,10.62784978830672,0.0736668268613171
15.894844,10.64410459927714,0.0733828983303667
15.897223999999998,10.652071468008172,0.0731429854283908
15.899628,10.66283183341854,0.0728968895895676
15.902016,10.679179192187576,0.0726372681538121
15.904391999999998,10.69017187502342,0.072410489525983
15.906796,10.699814083418904,0.072199174495723
15.909184,10.701168349575005,0.0720309163853946
15.911563999999998,10.706526817223937,0.0718463143269169
15.913968,10.70839294005923,0.0716885567665035
15.916352,10.710119293267663,0.0715344291964142
15.918732,10.707422136102684,0.0714094756144553
15.921136,10.704305670057124,0.0712970541388912
15.923524,10.695554988824652,0.0712243630162864
15.925904,10.6851742938981,0.0711744903963204
15.928304,10.670789397478716,0.0711410726104884
15.930692,10.651189594752996,0.0711346933165473
15.933072,10.632241418333336,0.0711344566922907
15.935475999999998,10.615574881913808,0.0711172565066484
15.937864,10.60742860515915,0.071077362112367
15.940244,10.60608002657666,0.0710149589776998
15.94264,10.59979608094156,0.0709709846901398
15.945028,10.599658207172569,0.0708983779815642
15.947408,10.597518232657158,0.0708340117469952
15.949804,10.593236387768474,0.0707818750758027
15.952192,10.593098513999482,0.0707096272779133
15.954567999999998,10.592029474670715,0.0706392797217767
15.956972,10.596826967954335,0.070549210516155
15.95936,10.595618158998708,0.0704829992644411
15.96174,10.597622155602991,0.0703986092429506
15.964144,10.602978727394056,0.0702921196326094
15.966528,10.616763011051365,0.0701424238456539
15.968908,10.631106373216117,0.0699766467973748
15.971304,10.647359288328667,0.0697800359386092
15.973696,10.662308950829102,0.0695710590938531
15.976076,10.678888627023616,0.0693395417291086
15.978472,10.706177655084517,0.0690495376331194
15.98086,10.736167632026133,0.0687328999681991
15.98324,10.764155508221334,0.0684249438485474
15.985636,10.785904764751804,0.068122740619025
15.988024,10.802626106431047,0.0678160295506412
15.990403999999998,10.819626987364012,0.0675010556071171
15.9928,10.83490530680428,0.0671866606841585
15.995188,10.84953199993849,0.0668661244380082
15.997568,10.86671987232656,0.0665236009426395
15.999972,10.883256118408568,0.0661764577878761
16.002356,10.89914073818452,0.0658225275048252
16.004739999999998,10.91092860866902,0.0654613506131241
16.007136,10.927931385459852,0.0650769954623039
16.009524,10.947215802250822,0.0646795257486668
16.011903999999998,10.964917427175957,0.0642781891903976
16.0143,10.975821353928923,0.0638965951256998
16.016683999999998,10.98700481993561,0.0635080245796042
16.01908,11.000981782621633,0.0631167832320615
16.02148,11.017100615680931,0.0627161889768944
16.023864,11.035081779859784,0.0623142011444441
16.026244,11.046916872172527,0.0619375919363339
16.028648,11.055678928552217,0.0615733439041287
16.031036,11.062438884185486,0.0612143500866365
16.033416,11.071200940565172,0.0608492811427622
16.03582,11.080614623250922,0.0604906734108026
16.038208,11.09151855000389,0.0601160659652147
16.040588,11.10163108082394,0.0597390720209971
16.042984,11.115747813136815,0.0593519461679784
16.045372,11.126791509516645,0.0589766233711099
16.047752,11.135833105150049,0.0586077158041385
16.050148,11.147528427835931,0.0582401488720846
16.052536,11.160527003133934,0.0578861182974726
16.054916,11.16938160731224,0.0575475167813292
16.05732,11.172881535557352,0.0572322524673304
16.059708,11.179547047534138,0.056929871045496
16.062088,11.1888662865634,0.0566291038749653
16.064484,11.195624346338802,0.0563487164720332
16.066872,11.201311470927566,0.0560740461680242
16.069252,11.199362279583,0.0558336082439876
16.071648,11.196062613798077,0.0556055112232446
16.074036,11.19248340875943,0.0553846693239618
16.07642,11.187553729280426,0.0551753220515508
16.07882,11.18956151760045,0.0549504872123637
16.081204,11.189287665920338,0.0547380275007184
16.083584,11.19059660610606,0.0545320346334686
16.085988,11.19185832446354,0.0543520546650395
16.088376,11.19377166912708,0.0541790669516607
16.090756,11.191541042670922,0.0540198655431426
16.093152,11.1921039128941,0.0538594183545745
16.09554,11.196251675729531,0.0537012132285487
16.09792,11.202401539311383,0.0535391948495135
16.100324,11.20976210770673,0.0533697774968087
16.102708,11.222197812781552,0.0531877939293925
16.105088,11.239568884908984,0.0529966011896383
16.107484,11.252284129237523,0.0528078017885886
16.109868,11.262066107259871,0.0526239209026106
16.112248,11.275060890842132,0.0524281354871022
16.114648,11.286193343304836,0.0522335332773311
16.117032,11.30682444282043,0.0520065782635262
16.119416,11.326664146403102,0.0517765567415115
16.121828,11.34943711629197,0.0515426704626327
16.124216,11.374351956554117,0.051300937397639
16.126596,11.391258393830594,0.0510765280584749
16.128999999999998,11.413100198159684,0.0508443157166144
16.131388,11.4310775706228,0.0506165844743775
16.133768,11.445749589727384,0.0503787084611788
16.136172,11.458279738458687,0.0501484521804078
16.138555999999998,11.4666659160703,0.0499290388603818
16.140936,11.469045791442662,0.0497216369975257
16.143332,11.463696803083078,0.0495227419023501
16.145716,11.45234151248424,0.0493357951436175
