Time,Force,Position
17.291088,6.668636217291807,0.1710098002611117
17.293468,6.734316392150404,0.1706164351693191
17.295884,6.794785452418408,0.1701161499855482
17.298268,6.842686621416206,0.1696967504256924
17.300648,6.872478231755506,0.1695169453599551
17.315016,6.911810023402329,0.1694416176673849
17.317412,6.91944444347779,0.1693812573373313
17.3198,6.932758404710539,0.169261221279181
17.32218,6.95827006601902,0.1689669579676175
17.324576,6.984805440685898,0.1686913022396145
17.32696,7.014646168711309,0.1683778622127076
17.32934,7.046861084535474,0.1680445778254587
17.331744,7.082149036292695,0.1676483458133652
17.334132,7.121860498423329,0.1671470898509355
17.336512,7.159058003128349,0.1666772032590919
17.338908,7.190436197049222,0.1662757073016905
17.341296,7.215715540932229,0.1659623559897131
17.343676,7.234476725896787,0.1657618226874401
17.346083999999998,7.25016487492829,0.1656247704454941
17.348468,7.270416303960066,0.1653766079309426
17.350848,7.287315157805067,0.1652081570565344
17.353244,7.306448429821962,0.1650277309591655
17.355632,7.333450335197663,0.1647061418327654
17.358012,7.362454341319783,0.1643476497459465
17.360412,7.39103903856132,0.1640163680252001
17.362796,7.42469887248233,0.1635907047804758
17.365192,7.456496375283784,0.1632012727945822
17.367587999999998,7.485268063980426,0.1628391331722705
17.369975999999998,7.510502081893058,0.1624930384326168
17.37236,7.53764565275349,0.1620849812034704
17.374755999999998,7.563485971001806,0.161677981668779
17.377143999999998,7.590164907011283,0.1612332407841463
17.379524,7.618194317461119,0.1607593029066321
17.381928,7.643430231231621,0.1603269160018572
17.384316,7.671878950562037,0.1598350571363041
17.386696,7.709127468811039,0.159207877155905
17.389091999999998,7.750100649299153,0.1585291594242256
17.391479999999998,7.792796391279965,0.1578319291131555
17.39386,7.837634003634053,0.157097253842394
17.396256,7.885544651921198,0.1563198348262013
17.39864,7.93587670983534,0.1554916298737446
17.401024,7.984905515137365,0.1546676789657665
17.403427999999998,8.026624765588025,0.1539457965650901
17.405812,8.069834260105905,0.1531920886338927
17.408196,8.11094910607875,0.1524426525892843
17.410591999999998,8.147827433133283,0.1517402780898305
17.412976,8.183262737948843,0.151045468037253
17.41536,8.215113150152145,0.1503939799400254
17.417756,8.24109702974306,0.1498253191541792
17.420144,8.26307670784114,0.149321544810261
17.422539999999998,8.28519615556608,0.1488135652468508
17.424932,8.303963028104247,0.1483717259432495
17.427319999999998,8.318725699149578,0.1479924083600216
17.4297,8.335210931687605,0.1475967739337991
17.432095999999998,8.349414524225496,0.1472463624899536
17.434483999999998,8.35495808747166,0.1470145472544431
17.436864,8.359850024411768,0.1467820912887931
17.439268,8.366371975045954,0.1465068178769443
17.441656,8.369448802694748,0.1462632944172869
17.444036,8.37001167291793,0.1460415997085665
17.446431999999998,8.365918715342216,0.1458744314856543
17.448819999999998,8.35903226108717,0.1457398442740105
17.451204,8.35386836832482,0.1455897221083777
17.453608,8.343908878136716,0.1455004548076402
17.455996,8.334740783881532,0.1454065830520272
17.458375999999998,8.325805007051827,0.1453343362536177
17.460772,8.319662726901454,0.1452295065751374
17.46316,8.315894634549835,0.1451118789498773
17.46554,8.317433996303166,0.144942132690816
17.467935999999998,8.319904523616277,0.1447614455411517
17.470323999999998,8.31972132387691,0.1446066199730671
17.472704,8.317955332271708,0.1444600650173463
17.475099999999998,8.319262376599562,0.1442683752796295
17.477488,8.321268269061719,0.1440449004060093
17.479872,8.324484866337373,0.1437982225055644
17.482267999999998,8.331565895479,0.1435020243119807
17.484656,8.336644823874213,0.1432340381736959
17.48704,8.338091637828924,0.1430371466230179
17.489435999999998,8.342983574769033,0.1428113083163141
17.49182,8.345034793201563,0.142651780040755
17.494215999999998,8.3525332353659,0.142436092120066
17.496616,8.361334930142355,0.1422245634298702
17.499,8.367994754545533,0.1420463940140488
17.50138,8.377448075628047,0.1418366544292057
17.503784,8.386761627083699,0.1416337103672758
17.506172,8.397705192233431,0.141388686219804
17.508551999999998,8.400640354397494,0.1412528753230763
17.510956,8.401992724695722,0.1411251636864254
17.513344,8.406977209434448,0.1409289577245289
17.515728,8.413312168613531,0.1407039559231187
17.518124,8.42216108521823,0.1404610283704363
17.520512,8.433523959248543,0.140199984966429
17.522892,8.440742862159162,0.1399993898686551
17.525292,8.449404787308755,0.1397995169809379
17.52768,8.460068813204767,0.1395752345302879
17.53006,8.468730738354362,0.1393774190690832
17.532456,8.478975455369794,0.1391725726261765
17.534844,8.489499711638944,0.1389544320115316
17.537228,8.496299305668982,0.1387762125800501
17.539624,8.504728913393098,0.1385563388421804
17.542012,8.509713398131824,0.138364408290482
17.544392,8.51432579581821,0.138156938554486
17.546788,8.526294970184207,0.1378445640660415
17.54918,8.538264144550203,0.1375336940268048
17.55156,8.552514958916337,0.1371865781699915
17.553956,8.56755716921539,0.1368388219769885
17.556344,8.591399178433026,0.1363863493371055
17.558723999999998,8.61803468433,0.1359071181701201
17.561124,8.639315514293779,0.1355092113653078
17.563512,8.658966330563478,0.1351524919535254
17.565891999999998,8.67782575090026,0.1348001430917716
17.568288,8.696452853811564,0.1344281501843767
17.570676,8.716430431163229,0.1340273816650285
17.573056,8.734685447022194,0.1336424195939483
17.575456,8.746282534335855,0.1333276893610152
17.577844,8.758950556836151,0.132997730724064
17.580223999999998,8.768033686724197,0.1326974411469313
17.58262,8.779398456612379,0.1323613384688836
17.585008,8.794907197620253,0.1319714919713933
17.587388,8.812278269747685,0.1315658392562576
17.589788,8.832442838554453,0.1311351261375149
17.592176,8.851676241801442,0.1307122001305724
17.594572,8.86490334280918,0.130364039146921
17.596968,8.876128343070501,0.1300398491883676
17.599356,8.886282408145185,0.1297325076952204
17.601736,8.887357135047562,0.1295317506869987
17.604132,8.884846969337685,0.129360701267033
17.60652,8.879403537321613,0.1292215329214052
17.608904,8.874379414186125,0.129064374879242
17.6113,8.869122973625155,0.1288860687405799
17.613684,8.862935367504408,0.1287161882144001
17.616068,8.853255416570027,0.128601374796488
17.618464,8.844227091941704,0.128489622580975
17.620852,8.831194565820544,0.1284239309130851
17.623236,8.824540428990975,0.1283038326431183
17.625632,8.8208195584676,0.1281523682518748
17.62802,8.819100788690642,0.1279773582817854
17.630399999999998,8.816031544473327,0.1278288570821771
17.632796,8.808678559509454,0.1277378874122044
17.635184,8.79718160342589,0.1276983158347908
17.637567999999998,8.783542776969048,0.1276868595138897
17.639964,8.775770483124598,0.1276131225843788
17.642352,8.764925153347091,0.1275761852219319
17.644731999999998,8.755290528383082,0.1275188989282725
17.647132,8.743374263418936,0.1274957846449055
17.64952,8.74347060293329,0.1273370229051116
17.651916,8.74142507207437,0.1272065625084594
17.654312,8.742452577148503,0.1270395241936992
17.6567,8.745202643715333,0.1268619796465563
17.65908,8.750466667707776,0.1266720049474775
17.661476,8.757453253192917,0.1264716934087195
17.663864,8.771237536850228,0.126202950552929
17.666248,8.785952986067317,0.1259267449219661
17.668644,8.805464032710157,0.1256040058393398
17.671032,8.819667625248048,0.1253189650651713
17.673416,8.827073519613771,0.1251023276133094
17.675812,8.837272910658827,0.1248621983192268
17.6782,8.844678805024548,0.1246454678413777
17.680584,8.855157735323328,0.1243926973985294
17.68298,8.86898924080888,0.124092437196564
17.685368,8.880958415174875,0.1238077460461773
17.687748,8.88706105692848,0.1235843013847378
17.690144,8.901032332040893,0.1232797453419904
17.692532,8.913792902339809,0.1229949185089903
17.694916,8.928555573385141,0.1226884642149967
17.697316,8.938243107751,0.1224415433190754
17.699704,8.950863908423054,0.1221652879778634
17.702088,8.96241377390847,0.1219043500355205
17.704484,8.972101308274327,0.1216593245242798
17.706872,8.981928612267048,0.12141044816111
17.709252,8.992035455513488,0.1211513025991825
17.711648,8.996275766147537,0.1209494972273722
17.714036,9.001587011968226,0.1207355107108126
17.716416,9.004616617788777,0.1205537875464181
17.71882,9.013093447341138,0.1203336345676223
17.721208,9.029299140625444,0.1200437693541039
17.723588,9.044573668349972,0.119763044713819
17.725984,9.061570757567198,0.1194717335031526
17.728372,9.078428077157566,0.119187320794791
17.730752,9.093795152680713,0.1189334426745757
17.733148,9.112235264136912,0.1186468662780165
17.735536,9.13346887227245,0.1183387930231103
17.737916,9.148835947795597,0.1180865018392594
17.740316,9.162992318505244,0.1178514193484302
17.7427,9.174494962162417,0.1176323869392388
17.745096,9.18613737544645,0.1174081021713176
17.747495999999998,9.19298419130473,0.1172247564761479
17.74988,9.196897740856816,0.1170685387636252
17.752264,9.205606887834657,0.1168720002264203
17.754668,9.20938066775988,0.1167221440615136
17.757056,9.212735138804524,0.1165893846138249
17.759436,9.219442185035945,0.1164133758161161
17.761832,9.22470620902839,0.1162357098308005
17.764219999999998,9.229598145968495,0.1160428670076509
17.7666,9.23183635585613,0.1158662042217055
17.768995999999998,9.229418737944869,0.115724407220477
17.771383999999998,9.228072055220249,0.1155708627327636
17.773764,9.23287144436174,0.1153564506658659
17.776163999999998,9.237158976824034,0.1151330655452131
17.778551999999998,9.240934652607129,0.1149000702818146
17.780932,9.243499623576724,0.1146848606505363
17.783328,9.244853889732822,0.1144872314666348
17.785716,9.247418860702416,0.1142718380001832
17.7881,9.256269673164985,0.1139912160742934
17.790496,9.269124687120383,0.1136745465292831
17.792884,9.283981801822204,0.1133411100786283
17.795264,9.308569881002384,0.1129295246657495
17.79766,9.33623099611562,0.1124884257591798
17.800052,9.360167448989746,0.1120762748234321
17.802432,9.38782856410298,0.1116381849943397
17.80484,9.414186426604102,0.1111924156579515
17.807228,9.439193814664868,0.1107703461765257
17.809604,9.463642124218188,0.1103704986654422
17.811999999999998,9.489021599331288,0.1099650985469973
17.814384,9.513841995936946,0.109581088397954
17.816768,9.539314018848662,0.1092016674597172
17.819172,9.559850674707766,0.1088636256369113
17.821556,9.5735896323947,0.1085807165048874
17.823936,9.585838346014418,0.1083248004789532
17.826332,9.599530081873112,0.1080728048606803
17.82872,9.615503457731942,0.1077945399119455
17.831112,9.631896142471351,0.1075010983279013
17.833516,9.647729748703323,0.1072279243965358
17.835904,9.658767757509544,0.1069912755774429
17.838283999999998,9.666453191128983,0.1067934300865555
17.840688,9.669203257695814,0.1066350487817031
17.843076,9.666086791650256,0.1065224437138596
17.845456,9.662039160044914,0.1064156008504148
17.847852,9.656780823626075,0.1063245024967887
17.85024,9.648868760154764,0.1062451712753034
17.852619999999998,9.643610423735929,0.1061539276725361
17.855016,9.641564892877009,0.1060309934229405
17.857404,9.639659131644947,0.1059030304898242
17.859783999999998,9.638824305599526,0.1057647289542215
17.86218,9.636825996568843,0.1056119735645189
17.864568,9.636969557911446,0.1054386131564091
17.866948,9.642979651866431,0.1052228213056554
17.86934,9.65206278175448,0.1049809431729031
17.871728,9.6644984868293,0.1047035554259655
17.874124,9.676841644105505,0.1044024960920769
17.87652,9.683038729515594,0.1041530540840751
17.878908,9.689235814925686,0.1039040170929615
17.881287999999998,9.697062914029852,0.10362469034908
17.883684,9.706472804999864,0.1033451353661065
17.886072,9.717093400783368,0.1030502095459939
17.888455999999998,9.728784931753513,0.1027435687713807
17.890852,9.739685066790738,0.1024373596337878
17.89324,9.748443331454686,0.1021514147125088
17.89562,9.759343466491911,0.1018453026820468
17.898016,9.771034997462058,0.1015381863588727
17.900403999999998,9.780724427685785,0.1012477429356848
17.902784,9.78454732529712,0.1009989093943476
17.905179999999998,9.7852971869754,0.1007750033463806
17.907567999999998,9.783905178280406,0.1005716284202698
17.909948,9.785027127011023,0.1003627731516101
17.912347999999998,9.782424413502527,0.1001745486763182
17.914732,9.775165872195142,0.1000118723446353
17.917132,9.768558957193813,0.0998543618099543
17.919528,9.757016675139871,0.0997314263276019
17.921912,9.746777645698046,0.0996181408044836
17.924296,9.742684688122337,0.099455439366547
17.926692,9.73938312647954,0.0992929247230451
17.92908,9.741016931889355,0.0990975413593506
17.931459999999998,9.741347484687058,0.0988924051640613
17.933864,9.7439596774849,0.0986639605272305
17.936252,9.75043630214871,0.0984122407360319
17.938632,9.755981761252745,0.098164782457222
17.941036,9.763808860356914,0.0978932617655581
17.943424,9.76884246278175,0.0976358021800813
17.945804,9.77829957558,0.0973368619051438
17.948204,9.788175997258833,0.0970240893339466
17.950588,9.80005451968408,0.0966964794242727
17.952972,9.814354451736328,0.0963393016849085
17.955368,9.827583448601937,0.0959907094654431
17.957756,9.841091984721263,0.0956339092840933
17.960136,9.857673556773648,0.0952544801234684
17.962536,9.876257229572447,0.0948613283700254
17.964924,9.891256009758994,0.0944819056777147
17.967304,9.909327825878597,0.0940789442817801
17.9697,9.926887785319,0.0936683436994386
17.972084,9.943656348826488,0.0932599586944824
17.974464,9.958981890094996,0.0928467841487624
17.976868,9.966159258750984,0.0924930061977143
17.979256,9.973057088153244,0.0921486808558492
17.981635999999998,9.977021651249313,0.0918225998800475
17.984036,9.979263652852683,0.0915010776198981
17.986424,9.982436820015836,0.091174876902394
17.988804,9.983328347178848,0.0908706645917521
17.9912,9.985151039901636,0.090561802069921
17.993588,9.980827660758315,0.0902963837882181
17.995972,9.975014037547776,0.090053707090733
17.998368,9.971342284710513,0.089793748073862
18.000756,9.970464028552584,0.0895224292396899
18.003135999999998,9.971587873141074,0.0892381831983871
18.005532,9.970709616983148,0.0889667032123938
18.00792,9.96740995119822,0.0887218502431353
18.010316,9.965553307652272,0.0884838949778731
18.012712,9.962485959292826,0.0882581551266425
18.0151,9.961141172426077,0.0880300420337561
18.01748,9.95416217037241,0.0878530330374848
18.019876,9.94476175869175,0.0877021566755433
18.022264,9.936664599623205,0.087562333331839
18.024644,9.929498606114436,0.0874182190878627
18.027044,9.923124008538586,0.08727487607979
18.029428,9.916190332455296,0.0871500111909973
18.031812,9.9097685130512,0.0870354855827432
18.034208,9.906000420699586,0.0869146392589187
18.036596,9.90516559465416,0.086778054876352
18.038976,9.905773790847714,0.0866482052999525
18.041372,9.909035714093744,0.0865117657590693
18.04376,9.911366471779992,0.0863786354123102
18.046156,9.912067215772163,0.0862727682866988
18.048552,9.910765859017918,0.0861790457890654
18.05094,9.91160637263695,0.0860691863388566
18.053316,9.913098512562035,0.0859650387214972
18.055716,9.919805558793456,0.0858254866088857
18.058104,9.922136316479708,0.0856940930832317
18.060484,9.931544311591846,0.085520585217155
18.06288,9.936948105211153,0.085370188794634
18.065268,9.949848445136926,0.0851637603354722
18.067652,9.96288855468956,0.0849525227206152
18.070048,9.976208203495917,0.0847329495839313
18.072436,9.992740657862186,0.0844897498139018
18.074816,10.011275212974873,0.0842364351890208
18.077212,10.03130001215478,0.0839617068109636
18.0796,10.052675285775043,0.0836716545513506
18.08198,10.072188228275758,0.0833893081978799
18.08438,10.092911875589966,0.0830964547668877
18.086764,10.114334371038474,0.0827824309611009
18.089164,10.1389696720469,0.0824473296343691
18.09156,10.165746843428598,0.0820968642827577
18.093948,10.1937347196238,0.081735063567242
18.096328,10.224655862125196,0.0813620541256202
18.098724,10.251433033506895,0.0810154912953449
18.101112,10.279281140075238,0.08066234896403
18.103492,10.293114541418658,0.0803810157326438
18.105892,10.308530734627915,0.0801017694427073
18.10828,10.319663187090622,0.0798540875126435
18.110664,10.33507938029988,0.0795773040552449
18.113068,10.346211832762586,0.0793311196418418
18.115456,10.359346385971708,0.0790751306890258
18.117836,10.36568324100866,0.0788473546600671
18.120232,10.374394283844364,0.0786256551100837
18.12262,10.382174161120297,0.0784078442134865
18.125004,10.390326125448562,0.0782052277491449
18.1274,10.394613657910853,0.0780184505884516
18.129784,10.39810979444023,0.0778300831651107
18.132168,10.399324290969464,0.0776607551712962
18.134564,10.397186212311928,0.0775169079564024
18.136952,10.38890206178828,0.0774065071607774
18.139332,10.383411407943964,0.0772883320243053
18.141728,10.374196091860538,0.0771804336306393
18.144116,10.35869493428414,0.0771097570369035
18.146496,10.349339848573848,0.077006103658565
18.148896,10.333326834318251,0.0769244516474843
18.15128,10.333842482713187,0.0767768188006403
18.15366,10.336360231854542,0.0766197465892567
18.15606,10.33687588024948,0.0764719336132874
18.158444,10.33282824864414,0.0763605347382358
18.160844,10.326126889986329,0.0762520623968746
18.16324,10.318214826515014,0.0761548739528906
18.165628,10.320964893081843,0.0760164998423287
18.168008,10.31654517442417,0.0758897726804098
18.170404,10.3079814846468,0.0757859628823354
18.172792,10.297183376697538,0.0756721289017569
18.175176,10.287176664681194,0.075559766699868
18.177572,10.278892514157542,0.0754466583647966
18.17996,10.270096506954694,0.075322792227738
18.182344,10.264373535684902,0.0751827113693492
18.18474,10.266938506654496,0.0749975087462824
18.187128,10.26456811057148,0.0748332457025186
18.189508,10.26606214635444,0.0746549010930599
18.191912,10.269837822137536,0.0744581112772135
18.194296,10.269749066054658,0.0742761287638514
18.19668,10.27939127445014,0.0740576890013201
18.199076,10.284517424673597,0.0738487405350005
18.201464,10.290994049337408,0.0736257542441694
18.203848,10.30110278844172,0.0733707965654091
18.206244,10.314564102732804,0.0730921355683599
18.208628,10.331889848889862,0.0727997645415134
18.211012,10.34977467355436,0.0724910361613733
18.213408,10.363003670419968,0.0721953945859875
18.215796,10.378886394338048,0.0718966377674195
18.218176,10.401054959749104,0.0715646015610974
18.220572,10.428950288145684,0.0712178362949472
18.22296,10.457776782102048,0.0708692865456332
18.225356,10.48688281531213,0.0705140331625385
18.227752,10.51771141001491,0.0701601256651002
18.230136,10.548679774344548,0.0698039668567303
18.23252,10.57056880050188,0.0694875680727365
18.23492,10.595670632219129,0.0691532652650527
18.237308,10.62012083763032,0.0688140177377917
18.239688,10.64671291341479,0.0684636131473711
18.242084,10.673165219572397,0.0681184002809575
18.244476,10.696032633117747,0.06777891129682
18.246856,10.711962578864076,0.0674637936257623
18.249256,10.723888323117569,0.0671646415899317
18.251644,10.736325924050256,0.0668776695995106
18.254028,10.749974229796443,0.0665824013072344
18.256424,10.766555801848828,0.0662797002915477
18.258812,10.783789000207268,0.0659845896861349
18.261196,10.804886630431684,0.0656813410336241
18.263592,10.829336835842875,0.0653587779578952
18.26598,10.850993544574733,0.0650428590698474
18.26836,10.865712785507556,0.0647500427506735
18.27076,10.880851335320964,0.0644459789126146
18.273148,10.893848014761096,0.0641531657752838
18.275532,10.9089865645745,0.0638515178938893
18.277932,10.923193948828132,0.0635522053717677
18.28032,10.940474369014815,0.0632400634072878
18.2827,10.955101062149025,0.0629284912707807
18.2851,10.968237511216016,0.0626341688460759
18.287488,10.98044279472323,0.0623420260378246
18.289868,10.990366438230303,0.0620638217247731
18.292264,10.99879983767016,0.0618026727859107
18.294652,11.014170704909043,0.0615209708753588
18.297036,11.032474838454124,0.061232186725611
18.299432,11.047845705693009,0.0609515768403269
18.301824,11.05707050106578,0.0606935024338126
