Time,Force,Position
16.364784,7.526684507549946,0.1591532205171073
16.367168,7.544327535499621,0.1590448651056069
16.369552,7.5697466490094865,0.1587719168951105
16.371948,7.5922797180414,0.1585133312551145
16.374336,7.616070713715056,0.1581979025267572
16.376716,7.638139147896015,0.1578990763065497
16.379112,7.656762459091581,0.1576367443277335
16.3815,7.672871812861532,0.1573990088839578
16.383879999999998,7.693636994430375,0.1570962675351522
16.386284,7.719989169357889,0.1567172040209231
16.388672,7.745130639471903,0.1563671384742774
16.391052,7.776650498877506,0.1559375322678782
16.393448,7.809473610895225,0.155513637355181
16.395836,7.847651398846136,0.1549953540272256
16.39822,7.884665703811791,0.1544728781556669
16.400616,7.919725129859273,0.1539484741702653
16.403004,7.947754540309109,0.1534977967002234
16.405383999999998,7.973177445534714,0.1530414434403836
16.40778,7.999718507775201,0.1525312774323567
16.410168,8.029472375575601,0.1519676614052496
16.412564,8.049355509270779,0.151557565607693
16.41496,8.070309578152596,0.1511319793775384
16.417348,8.09140341666127,0.1507034974871812
16.419728,8.111146780729587,0.1503096556825945
16.422124,8.125116159984133,0.1500337287931106
16.424512,8.14294997110465,0.1497039819082705
16.426896,8.165719149277779,0.1493023230850833
16.429292,8.189419493010687,0.1488875959816737
16.43168,8.214330541557095,0.1484540420400419
16.43406,8.236076006371828,0.1480442941376744
16.436464,8.255866592268388,0.1476277031310962
16.438852,8.266904601074607,0.1472990952465366
16.441232,8.272402838350398,0.1470024369693326
16.443628,8.27287316077496,0.146748967728574
16.446016,8.275113266520464,0.146446922599906
16.448396,8.279495242639241,0.1461108681503615
16.450792,8.294259809542442,0.145647810494811
16.45318,8.311258794617537,0.1451790422891365
16.455564,8.32998034118533,0.1447004234639312
16.45796,8.344557916633427,0.1442862994929028
16.460344,8.365002024693915,0.1437937788952162
16.462728,8.382512866448206,0.1433415022079313
16.465124,8.397742068202362,0.1429312685888072
16.467512,8.410597082157762,0.1425325064804804
16.469896,8.423359548314547,0.142105615248003
16.472292,8.434539222605492,0.1416881406569102
16.522479999999998,8.22796230843792,0.1414697186269674
16.524867999999998,8.23788026437139,0.1413114473533435
16.527248,8.256505471424825,0.1410189254470793
16.529643999999998,8.279506967023432,0.1406908694853489
16.532032,8.305534276726851,0.1403533857736228
16.534416,8.335985096803684,0.1399440885127157
16.536811999999998,8.369136865761236,0.1394831336580784
16.539199999999997,8.400845612479813,0.1390261866846689
16.54158,8.435115538452244,0.1385159926027492
16.543984,8.4684542988649,0.1380120928497153
16.546367999999998,8.506728426330167,0.1374446664235585
16.548748,8.544071388235652,0.1368888912235807
16.551147999999998,8.58383575976814,0.1362876228109362
16.553535999999998,8.62038732574071,0.1357348401223132
16.555916,8.658102374698535,0.1351962860536265
16.558312,8.696888358843,0.1346459278204439
16.5607,8.734882947054546,0.1341031802639821
16.563084,8.76859379451954,0.1336267669876301
16.565483999999998,8.806169073850505,0.1331110075239764
16.567871999999998,8.839879921315497,0.1326417627454569
16.570256,8.869494019489037,0.1321976842259908
16.572651999999998,8.887934130945242,0.13186932541821
16.575039999999998,8.899436774602414,0.131624596672224
16.57742,8.907634064901055,0.1313985200190126
16.579819999999998,8.918951612960992,0.1311031565842575
16.582207999999998,8.930968009155231,0.130780912683337
16.584588,8.93711787273708,0.1305233872596519
16.586983999999998,8.94177749225171,0.1302978102648042
16.589372,8.947740364378454,0.1300788602258251
16.591756,8.959197682065254,0.1297831650860463
16.594151999999998,8.969351747139935,0.1294823436872176
16.596539999999997,8.982998157028256,0.129129725918185
16.59892,8.995433862103077,0.1287972958634739
16.601316,9.011222142364671,0.1284170332745432
16.603704,9.025195313334956,0.1280221458200033
16.606084,9.033581490946569,0.1276761789781298
16.60848,9.038522545572787,0.1273513145796384
16.610868,9.044953844266226,0.1269951122368434
16.613264,9.04300465292166,0.126712570974363
16.615664,9.042266166390592,0.1264101673992881
16.618047999999998,9.041667449486388,0.1261016752934153
16.620431999999997,9.041301050007656,0.1258125295001913
16.622828,9.043588377581402,0.1255044929413088
16.625215999999998,9.046946640341789,0.1251825897378828
16.627596,9.046160931982476,0.1249116334919642
16.63,9.04109148287661,0.124696012125407
16.632388,9.038955300076942,0.1244505005204331
16.634767999999998,9.03830936134449,0.1241738791478474
16.637172,9.04036437149276,0.1238486098279604
16.63956,9.040557050521471,0.1235408486392389
16.641939999999998,9.04168089510996,0.1232261268874272
16.64434,9.03465656708592,0.1230005148240206
16.646728,9.02977410943516,0.1227483768192201
16.649108,9.023029320664842,0.1225114014042143
16.651504,9.01693615820058,0.1222779166485037
16.653892,9.014707427602294,0.1220078944443195
16.656271999999998,9.01685498554918,0.1217114820288197
16.658672,9.019793939428984,0.1214139629603316
16.661056,9.029390821854092,0.1210579055614528
16.663436,9.036985603532786,0.1207220841484106
16.66584,9.045371781144402,0.1203847425945015
16.668228,9.05725030356965,0.1199968937733093
16.670607999999998,9.067406264502202,0.1196188791817831
16.673012,9.075420355061476,0.1192666473571901
16.6754,9.083294675993892,0.1189197058389678
16.67778,9.091960392859226,0.1185700480837392
16.680176,9.097692843418365,0.1182482709430524
16.682568,9.10421668991042,0.1179257764423652
16.684948,9.104594464536364,0.1176699528191557
16.687344,9.102131520654734,0.1174679110024643
16.689732,9.097526706399822,0.1172915208095938
16.692111999999998,9.09985935994394,0.1170474849299215
16.694508,9.0996308342342,0.116845945172986
16.696896,9.101776496323216,0.116640104627526
16.699275999999998,9.100849122479175,0.1164663895924042
16.701676,9.102435706060753,0.1162831740781634
16.70406,9.102299728149632,0.1161090312118834
16.70644,9.097228383185897,0.115980720971734
16.708844,9.088152836729328,0.1158914740891708
16.711232,9.079868686205678,0.1158005788176726
16.713616,9.07144476605517,0.1157150572843878
16.716012,9.06181014109116,0.1156473467229491
16.7184,9.052547603179493,0.1155947835233163
16.720779999999998,9.046869957880071,0.1155199469437497
16.72318,9.043194413327072,0.1154256988429795
16.725564,9.040450034333848,0.1153244824974821
16.727947999999998,9.040638921646822,0.1151970522373761
16.730344,9.039896643400018,0.115076688579664
16.732732,9.04567252407166,0.1149091020683963
16.735112,9.053497727317964,0.1146907665778732
16.737512,9.06225409612404,0.1144657239837031
16.7399,9.069799760116624,0.114259696029064
16.74228,9.080046372989925,0.1140078949694022
16.744684,9.087779028437607,0.1137657254382251
16.747072,9.09951588537813,0.113485947212447
16.749451999999998,9.108878554519894,0.1132111359178835
16.751848,9.117961684407938,0.1129475623559613
16.754236,9.13584461321457,0.1126103729280316
16.756619999999998,9.157731743514033,0.1122372072185092
16.759016,9.182691909746552,0.1118352772613248
16.761404,9.206441371165573,0.1114503953061073
16.763783999999998,9.234334803704288,0.1110277094486447
16.76618,9.263486162884742,0.1105584175542825
16.768568,9.289192399079806,0.1101044170683087
16.770948,9.315829800834647,0.1096474024828551
16.773348,9.345028381843347,0.1091544802554289
16.775736,9.37222486210563,0.1086802105628298
16.778132,9.397139702367776,0.1082333706158209
16.780528,9.414884757405412,0.1078255534268724
16.782912,9.433933065055166,0.1074291489081914
16.785296,9.45312114233178,0.1070283245237385
16.787692,9.471657593302336,0.1066244386489445
16.79008,9.487912404272755,0.1062490409913508
16.79246,9.504818841549234,0.1058783673157112
16.794856,9.523727379572128,0.1054939312690681
16.797244,9.542635917595025,0.1051107769265211
16.799623999999998,9.56089282931186,0.1047231070420768
16.802024,9.57142087729675,0.1043926223209473
16.804408,9.58115752934872,0.1040644480604882
16.806791999999998,9.589963015840912,0.1037434748650435
16.809188,9.600118976773464,0.1034016605095005
16.811576,9.601195599533709,0.1031344728050616
16.813955999999997,9.601945461211988,0.1029081722634402
16.816364,9.6072113810623,0.1026605703026499
16.818752,9.60861286904664,0.1024396518710912
16.821132,9.610246674456455,0.1022399719757868
16.823536,9.614534206918746,0.1020299875900516
16.825924,9.622174314567811,0.1017843556857732
16.828304,9.634050941135191,0.1015273090456594
16.830704,9.643134071023235,0.1012864823287294
16.833092,9.651937661657556,0.1010559873544036
16.835472,9.656177972291603,0.1008753960297388
16.837868,9.664142945164766,0.1006748634110859
16.840256,9.675320723597846,0.1004452118848383
16.842636,9.683145926844144,0.100251665961531
16.845036,9.691343217142782,0.100073411143697
16.84742,9.703125400053674,0.0998810530235456
16.8498,9.72235690744279,0.0996502385220152
16.852204,9.74237981076483,0.0994213089136392
16.854592,9.761983405206289,0.0992080278660355
16.856976,9.784240726700215,0.0989868355683738
16.859372,9.815297847112737,0.0987083422501398
16.86176,9.844911945286276,0.0984249930457893
16.864144,9.87173254678048,0.0981577340272096
16.86654,9.90213804088694,0.0978770323460304
16.868928,9.92788770719451,0.0976204839945198
16.871312,9.953916912755798,0.0973564246025301
16.873708,9.977524708690089,0.0971213586668064
16.876096,10.00206367018416,0.0968830053628182
16.87848,10.029256358730702,0.0966365883403074
16.880876,10.058870456904245,0.0963638863180923
16.883264,10.095561792503675,0.0960402474094443
16.885648,10.128668235490856,0.0957317554830677
16.888044,10.155628606611918,0.0954696191306425
16.890432,10.183008286613566,0.0951937997981116
16.892816,10.209876109936014,0.0949091092142699
16.895212,10.23301927101935,0.0946432844204574
16.8976,10.248573337997598,0.0944178788437378
16.899984,10.259192037923238,0.0942235306838799
16.902383999999998,10.26850748523676,0.094019360161976
16.904768,10.271444543258694,0.093840544476349
16.907152,10.272798809414793,0.0936621843973694
16.909548,10.276155176317308,0.0934710272991801
16.911936,10.2799308521004,0.0932663011303563
16.91432,10.28226350564452,0.0930565690611439
16.916724,10.286086403255856,0.0928239470094888
16.919112,10.284182537881664,0.0926201675543964
16.921492,10.287633348440664,0.092373916938333
16.923887999999998,10.288849740827771,0.092121850754679
16.926275999999998,10.285689844669708,0.0918804463281756
16.92866,10.279177373324869,0.0916694606074813
16.931055999999998,10.270430483808132,0.0914524441249922
16.933443999999998,10.263545925410956,0.0912276621534271
16.935828,10.260293481454273,0.0909635419130252
16.938223999999998,10.25424754081826,0.0907103975686029
16.940611999999998,10.24233506756985,0.0904883706241552
16.942992,10.227908636895828,0.0902678508725442
16.945392,10.21776594696836,0.0900130422034756
16.947779999999998,10.21083606260081,0.089732236624022
16.95016,10.204977113419895,0.0894428544200203
16.952555999999998,10.205776092784292,0.0891221682746395
16.954943999999998,10.19935806509594,0.0888503542836808
16.957324,10.191077706288027,0.0885861146452286
16.95972,10.183169434532454,0.0883366563972201
16.962108,10.173119292403602,0.0881033706063083
16.964492,10.161718675834392,0.0878869083657943
16.966888,10.156324361504431,0.0876341468818018
16.969276,10.143201183442526,0.0874197557858023
16.97166,10.130589862059818,0.0872151009443882
16.974056,10.119840871796663,0.0870024723670442
16.976444,10.110302586347013,0.0867768465169003
16.978824,10.10220732313634,0.0865580442965504
16.981223999999997,10.094391599179382,0.0863304568605521
16.983612,10.086808192647904,0.0861222008839478
16.985992,10.083880613915314,0.0858965571048516
16.988388,10.09082376928795,0.0856182595978775
16.990776,10.10614741469859,0.0853102912742108
16.993156,10.119189420109096,0.0850233228051533
16.995556,10.133953987012296,0.0847354938103723
16.99794,10.14736807947514,0.084464820282635
17.000336,10.157848905631784,0.0842098485446058
17.002736,10.172473702908125,0.0839270351533244
17.005124,10.187750126490524,0.0836500476172594
17.007504,10.199581427087534,0.0833768708586273
17.009904,10.213414828430956,0.0830926150438089
17.012292,10.229901956826849,0.0828031731292768
17.014672,10.245178380409248,0.0825276778113666
17.017068,10.26376015735018,0.0822520253590335
17.019455999999998,10.283412869477749,0.0819696490195992
17.021839999999997,10.305719308657793,0.081683291164422
17.024236,10.32509248153164,0.0814104661891621
17.026623999999998,10.339530287352876,0.0811622944137335
17.029004,10.352617618733758,0.0809315036464209
17.031399999999998,10.36519309343544,0.080691107961355
17.033787999999998,10.374695532204065,0.0804692308314183
17.036172,10.381124935039631,0.0802667164996484
17.038572,10.381408266009093,0.0801002055603259
17.04096,10.382622762538327,0.0799307412986623
17.043343999999998,10.380764223134513,0.0797789100466809
17.04574,10.381699180410028,0.0796187029813058
17.048128,10.381283663245188,0.0794743585603381
17.050511999999998,10.381659542013264,0.0793315068254352
17.052908,10.381104255221558,0.0791913923615075
17.0553,10.385065026601888,0.0790415533195765
17.057679999999998,10.388606489101637,0.0789048986182093
17.060076,10.393218886788022,0.0787616278646339
17.062464,10.394618478914497,0.0786396413216091
17.064847999999998,10.398299711041105,0.0784994793923995
17.067244,10.39690580648824,0.0783857315238945
17.069636,10.391507700442544,0.0782915981056413
17.072015999999998,10.3867612207029,0.0782030593010623
17.074416,10.38373730245596,0.0781130921229037
17.076804,10.37815220495516,0.0780504416745689
17.079183999999998,10.372008028946915,0.0780052394761892
17.081584,10.366655248871597,0.0779616136092982
17.083972,10.357949893609495,0.077943727423358
17.086356,10.34910476872054,0.0779302828534055
17.088752,10.33998010457786,0.077925546663508
17.091144,10.332857541181594,0.0779108110088658
17.093528,10.323593107412051,0.0779102195361809
17.095924,10.315399608829152,0.0779025029654869
17.098308,10.308788902112086,0.0778979995511265
17.103088,10.297429819797513,0.0778833476683507
17.105476,10.290027717147527,0.0778769629458883
17.107855999999998,10.279971887445068,0.0778740237507169
17.112644,10.264376286212183,0.077859023253436
17.115024,10.261490241734233,0.0778435213684734
17.11742,10.262748168375971,0.0778044934205129
17.119812,10.269872627630106,0.077741285404782
17.122192,10.280070122817294,0.0776618128406111
17.124588,10.29282879725834,0.0775552329959903
17.126976,10.306798176512885,0.0774376747820647
17.12936,10.32118686464801,0.0773073784523846
17.131756,10.340510919835747,0.0771557084575123
17.134144,10.361604758344424,0.0769757896730591
17.136528,10.380836265733542,0.0768005997650803
17.138924,10.399928003495802,0.0766304410821682
17.141312,10.416226244578729,0.0764673890814642
17.143696,10.433595420848288,0.0762979239860272
17.146096,10.451244136371574,0.0761208250439599
17.148484,10.46810145596194,0.0759430161145891
17.150864,10.48924251629886,0.0757385720162824
17.153264,10.511174972568696,0.0755365082522571
17.155652,10.535481616637288,0.0753404763696694
17.158032,10.558996864772965,0.0751432210940649
17.160432,10.580137925109884,0.0749405938741797
17.16282,10.60183806395424,0.0747223864751207
17.165204,10.620744706119266,0.0745121849565698
17.1676,10.638208326045316,0.0742960879407044
17.169988,10.65301821891889,0.0740833578276764
17.172372,10.670109751792602,0.0738546786736024
17.174768,10.68547872317362,0.0736267702251432
17.177156,10.70378096086083,0.0733894766826076
17.179536,10.717846679629726,0.0731513504878496
17.181932,10.732703794331544,0.0729162161500215
17.184324,10.753055354593414,0.0726466967047784
17.186704,10.77182412298945,0.07237358789993
17.1891,10.795947567318676,0.0720698713854332
17.191492,10.820350550901624,0.0717593741888975
17.193872,10.84116864187232,0.07145354750964
17.196272,10.860124401723455,0.0711524265393269
17.198656,10.876007125641538,0.0708663065714809
17.20104,10.892588697693922,0.0705611477740613
17.203436,10.905213290081711,0.0702455644087199
17.205824,10.917186256163449,0.0699240220466685
17.208208,10.93223225817824,0.0695891553609731
17.210604,10.945276159446614,0.0692633205009862
17.212992,10.960182391834543,0.0689343798019822
17.215376,10.972806984222336,0.0686223293133795
17.217776,10.989296008476105,0.0683004195312131
17.220164,10.9989873345577,0.0679985807800095
17.222548,11.00853889101244,0.0677005644499785
17.224944,11.01622811634762,0.0674075654598989
17.227332,11.025639903175495,0.067115148599465
17.229716,11.032770050003236,0.066838287973068
17.232115999999998,11.033893894591726,0.0665835255848295
17.234503999999998,11.036088674366852,0.0663232561364156
17.236888,11.036141583768703,0.0660747508517853
17.239288,11.035123557983914,0.0658321339077065
17.241676,11.036247402572403,0.0655784599241566
17.244056,11.038442182347532,0.0653194143769406
17.246456,11.043709998055714,0.065048618927285
17.248844,11.045625238577124,0.0647979654426318
17.251227999999998,11.053918868390118,0.0645419593123519
17.253636,11.062864124509172,0.0642925081817412
17.256024,11.070598675814724,0.0640529079251796
17.258408,11.07875253600086,0.0638021882504743
17.260808,11.083973129880802,0.0635593500613224
17.263196,11.085329291894768,0.0633249260865765
17.265576,11.08282102204276,0.0631001142210449
17.267976,11.086830911109203,0.0628660267022746
17.270367999999998,11.091911735362284,0.0626268309708681
17.272748,11.09391952368231,0.0623991528514981
17.275147999999998,11.093925211255918,0.062177573372714
17.277535999999998,11.095281373269884,0.0619431250205749
17.27992,11.104366399015795,0.0616922570172407
17.282315999999998,11.11410305106777,0.061448537997299
17.284703999999998,11.124770868679516,0.0612042893189986
17.287096,11.131574254425296,0.060967842950839
17.289492,11.137166935357572,0.0607404022973294
17.291884,11.143690781849628,0.0605124762838716
17.294264,11.14648996610257,0.0602891067531571
17.296675999999998,11.152362186288569,0.0600550693448275
17.299063999999998,11.15558067942209,0.0598216175835955
17.301448,11.159078711809336,0.0595808193764241
17.303852,11.16057464345016,0.0593455134964736
17.306236,11.160440561396909,0.0591301349381559
17.308619999999998,11.165521385649988,0.0588955321049776
17.311024,11.179029921769317,0.0586279615142216
17.313408,11.192398688261784,0.058364095150306
17.315792,11.206186763634832,0.0580905761261214
17.318196,11.22118554382138,0.0578096438929819
17.32058,11.236324093634789,0.0575244118007628
17.322964,11.256677549754528,0.0572213265422272
17.32536,11.27996427218046,0.0569140464101548
17.327748,11.294311426060952,0.0566289877487403
17.330132,11.306284392142688,0.0563351925414587
17.332535999999998,11.314532695985312,0.0560440347024698
17.33492,11.326924970947628,0.0557385740147668
17.337304,11.341179577029498,0.0554323130677083
17.3397,11.351569751245398,0.0551322980516776
17.342088,11.363542717327134,0.0548384350753747
17.344472,11.37444474822223,0.054549628150048
17.346868,11.379060937624356,0.0542821257246994
17.349252,11.38260619183984,0.0540189844866725
17.351636,11.39015564754816,0.0537466228284165
17.354032,11.39905557769684,0.0534627165708846
17.35642,11.40073850079277,0.0532009013144831
17.358804,11.39585604314201,0.0529683501351072
17.3612,11.39046172881205,0.0527246965903818
17.363588,11.384648105601508,0.0524929415573525
17.365972,11.376552842390833,0.0522729888037245
17.368368,11.368317809553297,0.0520559937791206
17.370752,11.354867870409429,0.0518555026027582
17.37314,11.33340952827989,0.0516717818064286
17.375536,11.315955387643188,0.0514787151208849
17.377924,11.298733564431965,0.0513030710110357
17.380308,11.284445007526932,0.0511222544033573
17.382704,11.272670408047516,0.0509482332545587
17.385088,11.261035578194958,0.0507707342388236
17.387472,11.251914705768018,0.0505993746746978
17.389875999999997,11.243864768527716,0.0504242651226689
17.392264,11.232741795354356,0.0502565896272379
17.394648,11.227764894047109,0.0500725759879272
17.397043999999998,11.22371915829964,0.0498882835692325
