Time,Force,Position
17.614336,7.109023184946831,0.1574024354057377
17.616723999999998,7.126992973978472,0.1572341522923628
17.619104,7.135233694389616,0.1571176727414323
17.621504,7.133698124352024,0.1570898265739706
17.623891999999998,7.13691092991194,0.1570267395125952
17.626288000000002,7.1435688584572485,0.1569220094990971
17.628684,7.159166355548003,0.1566599870714143
17.631071999999996,7.186869004915874,0.1562230412088363
17.633452,7.223743540254671,0.1556739342267598
17.635852,7.264063198578859,0.1550817312654998
17.638236,7.29390582246214,0.1547216193736645
17.640616,7.330731240114825,0.1543109687410095
17.643012,7.381431593365567,0.153666606110657
17.645400000000002,7.424217987287129,0.1530924426517373
17.647779999999997,7.459507834902219,0.1526699961841883
17.650176000000002,7.497404187741542,0.1522573825041889
17.652563999999998,7.531902639423714,0.1518419407007278
17.654947999999997,7.562538555097783,0.1513824519334431
17.657344000000002,7.585353059241286,0.1510169038649193
17.659731999999998,7.605094527451735,0.1507050166597739
17.662128000000003,7.627349953087797,0.1503635189455886
17.664524,7.646904429843142,0.1500948133384651
17.666911999999996,7.671067512569134,0.1498027883555601
17.669292,7.698116639773079,0.1495049167823778
17.671687999999996,7.719299234364634,0.1492974804102692
17.674076,7.74909463641967,0.1489991992609312
17.676456,7.77469884552677,0.1488126532299789
17.681240000000003,7.800580698029724,0.148726684313289
17.683619999999998,7.810402314448836,0.1487215206564654
17.68602,7.833167700906227,0.1485186188597203
17.688408000000003,7.856399618072443,0.1482600692369717
17.690787999999998,7.873160598148453,0.1480541011344907
17.693188,7.891132283037961,0.1478240530794795
17.695572,7.910174903114108,0.1475735883853104
17.697955999999998,7.926284256884059,0.1473644493271822
17.700352000000002,7.948352691065018,0.1471038512659712
17.70274,7.977311371216762,0.146787894618957
17.705136000000003,8.01106564879426,0.1464144584521107
17.707535999999998,8.04542433084957,0.1460760009030412
17.709919999999997,8.082157200703637,0.1457208480952572
17.712304000000003,8.123593120184838,0.1452800740123087
17.7147,8.16069997294911,0.1448492322902439
17.717084,8.197854047541625,0.1443878175054632
17.719468,8.239012323626975,0.1438668433013247
17.721863999999997,8.274863145607375,0.1434007362389325
17.724255999999997,8.312670742363817,0.1428420320900888
17.726636,8.344891345761592,0.1423492370631689
17.729036,8.377111949159364,0.1418545612439126
17.731423999999997,8.403326250317887,0.1414441891812191
17.733804,8.425396580356715,0.141102385928805
17.736204,8.447187371141823,0.1407775436954098
17.738591999999997,8.466324434874457,0.1404809393782008
17.740975999999996,8.48383148491301,0.1402273599827413
17.743372,8.506645989056514,0.1399260489942121
17.745759999999997,8.533464694692851,0.1395714783754912
17.748143999999996,8.555162937679341,0.1392281219709101
17.75054,8.562521610216821,0.1390230701191048
17.752927999999997,8.560940714208852,0.1389340301822902
17.755308,8.564342407081742,0.1387482413437242
17.757708,8.571935292902566,0.1384711896343679
17.760095999999997,8.572498163125745,0.1382557530932987
17.762476,8.57720500446862,0.1379840611801382
17.764879999999998,8.580561371371132,0.1377414621064788
17.767268,8.584150055699125,0.1375204748604422
17.769652,8.59188271114681,0.1372437827949996
17.772047999999998,8.600546532154274,0.1369596642039319
17.774436,8.613494093908294,0.1366135792225739
17.77682,8.624671872341372,0.1363112431498723
17.779215999999998,8.642367809692898,0.1359421283643997
17.781604,8.655315371446916,0.1355922200031645
17.783983999999997,8.663794096857146,0.1352506727662204
17.78638,8.66919978633432,0.1349491263961359
17.788767999999997,8.674885015065215,0.1346346327627383
17.791148,8.674331624131382,0.1343744672140384
17.793548,8.671683584652515,0.1341126765896312
17.795935999999998,8.674622538532317,0.1337970792530536
17.798316,8.685941982450124,0.1333972544239083
17.800711999999997,8.703127958980323,0.1329274970571259
17.8031,8.717752756256663,0.1325102771967308
17.805480000000003,8.725719624987695,0.1321647630637461
17.807876,8.734477889651648,0.1318156669683363
17.810263999999997,8.736251464688324,0.1315819052653594
17.812644,8.741470162710394,0.1313257573863889
17.815044,8.747527478493627,0.1310343819884818
17.817431999999997,8.752141772037884,0.1307447036320859
17.819812,8.752612094462446,0.1305080832834905
17.822212,8.751871712073509,0.1302925220177146
17.824599999999997,8.757045084125206,0.1299803531622358
17.82698,8.758633563564649,0.1296974229813307
17.829375999999996,8.763527396362626,0.1293968687082578
17.831764,8.773449144011831,0.1290695496491325
17.834148,8.784953683526872,0.1287353820018179
17.836543999999996,8.801114050840807,0.1283605319090177
17.838932,8.823140950767131,0.1279239792944899
17.841327999999997,8.847542038492211,0.1274834019799634
17.843724,8.862724018418122,0.1271545368215948
17.846111999999998,8.875484588717036,0.1268670797274197
17.848492,8.888245159015948,0.1265809698154419
17.850887999999998,8.900493872635666,0.1262864207073276
17.853276,8.917118874800556,0.1259631626127458
17.85566,8.931462236965304,0.1256722173564933
17.858055999999998,8.948366778383912,0.1253336388816338
17.860444,8.958101534578015,0.12504977620765
17.862823999999996,8.967976060398978,0.1247618514355912
17.865223999999998,8.973566845473385,0.1245294468059132
17.867612,8.980228565734432,0.1242824222100312
17.869991999999996,8.9864709771149,0.1240531110303879
17.872391999999998,8.993225245174564,0.1238353134527337
17.87478,9.002121383607506,0.1235904475022118
17.877159999999996,9.013159392413725,0.123319410423643
17.879559999999998,9.020053430100246,0.123097879242859
17.881952,9.02829794222713,0.1228513201231568
17.884332,9.032026396181983,0.122639105281141
17.886732000000002,9.030959252711083,0.1224714737600596
17.88912,9.02630721662793,0.1223289578021308
17.891503999999998,9.024076590171775,0.1221476985951736
17.893900000000002,9.018540610357087,0.1219795046881137
17.896288,9.010350903489922,0.1218284917977519
17.898671999999998,9.00216119662276,0.1216773078872333
17.901068000000002,8.989967288262765,0.1215679796065252
17.903456,8.984990386955516,0.121376910392227
17.905839999999998,8.983086521581324,0.1211520977825143
17.908236000000002,8.983417074379027,0.1209262547520958
17.910624,8.98225738310951,0.1207311022340781
17.913007999999998,8.983751418892467,0.1205183797244947
17.915404000000002,8.986176620235202,0.1202980362771505
17.917792,8.988229734525602,0.1200624081818023
17.920175999999998,8.98348515064383,0.1198908240521531
17.922576,8.978880336388922,0.1197138252280523
17.924964000000003,8.972413191014454,0.119551860602299
17.927343999999998,8.966365354520569,0.1193726636645532
17.929744,8.959246582840043,0.1192062964940789
17.932132000000003,8.950917106346022,0.1190582239157596
17.934511999999998,8.944170421717834,0.1189064328273503
17.936912,8.937935593768843,0.1187641213822171
17.939300000000003,8.935565197685827,0.1185867001491849
17.941684000000002,8.938362486080901,0.1183819378192112
17.94408,8.94395327115531,0.1181552832154948
17.946468000000003,8.949404286602858,0.1179346401740491
17.948847999999998,8.956066006863905,0.117694644414493
17.951244000000003,8.95658165525884,0.1175217857473088
17.953636000000003,8.956026368467139,0.1173624501401384
17.956015999999998,8.956030160182879,0.1171803260138409
17.958412000000003,8.9540318511522,0.1170178602181755
17.9608,8.958179613987632,0.1167915768123676
17.963184,8.962606916076783,0.1165544951264126
17.965580000000003,8.969408405964693,0.1163137621885734
17.967968,8.98086572365149,0.1160372108792907
17.970348,8.987899530964874,0.1158163041996058
17.972744,8.99330332458418,0.1156302031258396
17.975136,9.000569449323041,0.1154305034847572
17.977516,9.008626969994822,0.1152293760869884
17.979912,9.018546821786158,0.1150138746652965
17.982304,9.029397839137271,0.1147918930733206
17.984684,9.03973699980919,0.1145600968207259
17.98708,9.048725686040749,0.1143533236020784
17.989468000000002,9.058133681152889,0.114131345128819
17.991847999999997,9.066191201824669,0.1139332638805211
17.994244000000002,9.076250823242862,0.113717178736979
17.996631999999998,9.089103941340396,0.1134817341950566
17.999015999999997,9.10568172167704,0.1132198525018912
18.001412000000002,9.11876715720005,0.1130051634710835
18.0038,9.13636865089509,0.1127644296910862
18.006183999999998,9.158114115709823,0.1124814235439081
18.008580000000002,9.168126515299775,0.1122995384172631
18.010964,9.1813044986214,0.1121147809364824
18.013348,9.190897589330772,0.1119507375679823
18.015748,9.19983905373409,0.111782875773103
18.018136,9.21706846037679,0.1115326327148866
18.020516,9.235276254407518,0.1112443743463633
18.022912,9.25427544437116,0.1109571534403452
18.0253,9.2744853391483,0.1106540007843172
18.027684,9.297908039485357,0.1103183988090458
18.03008,9.320818883143216,0.109974451012737
18.032468,9.343450187547356,0.1096408638550252
18.034852,9.367292196764993,0.1092927548989357
18.037248,9.388200939676434,0.1089695210169253
18.039636,9.407387121095178,0.1086524016743057
18.04202,9.425502367327288,0.1083486284341349
18.044428,9.44082411688006,0.1080637519682241
18.046812000000003,9.452560973820578,0.1077977978305066
18.049196,9.468209484455317,0.1074722377680287
18.051592,9.479481706544876,0.1071676311299204
18.053984,9.485678791954966,0.1069078565970015
18.056364,9.500815445910504,0.1065738336487097
18.058764,9.509993019455036,0.1062607317453794
18.061152,9.52117269374598,0.1059305291910364
18.063536,9.534214699156488,0.1055902503880434
18.065932,9.539388071208185,0.105312728207242
18.068324,9.545073299939077,0.1050452154199996
18.070704,9.54982736311019,0.1047844760094161
18.073104,9.556583527027724,0.1045091580989377
18.075492,9.55947525907928,0.1042619088229251
18.077872,9.562878847810037,0.1040249659108823
18.080272,9.572428508406905,0.1037370905201204
18.08266,9.57625140601824,0.103486087277778
18.085044,9.583147339562627,0.1032097450463067
18.08744,9.596189344973132,0.1028829614288109
18.089828,9.603644357024963,0.1025866641873193
18.092212,9.614312174636714,0.1022605951240431
18.094612,9.628984193741296,0.1019044065675378
18.097,9.645099235084857,0.101555746800486
18.099384,9.659863801988054,0.1012265248770358
18.101784,9.679983044824448,0.1008472341527155
18.104172,9.692233654302033,0.1005233106671803
18.106556,9.70806915639187,0.1001841850622836
18.108952,9.726558385534185,0.0998368972578564
18.11134,9.741322952437384,0.0995103270106752
18.113724,9.760883116766337,0.0991543007220187
18.11612,9.781514216281924,0.0987896164848929
18.118508,9.797349718371764,0.0984536037930597
18.120892,9.807178918222352,0.0981623925173819
18.123292,9.815797413259444,0.0978853532971249
18.125680000000003,9.821901950870918,0.0976130811755167
18.12806,9.821069020683364,0.0973906104973149
18.13046,9.824891918294703,0.097143543977126
18.132848000000003,9.822708513666791,0.0969398891435597
18.135228,9.815589741986267,0.0967704194246299
18.137628,9.812847258850914,0.0965863061818989
18.14002,9.807683366088565,0.0964316833180002
18.142404,9.800377602952937,0.096296407284826
18.144804,9.790138573511111,0.0961800435189167
18.147192,9.780970479255927,0.0960538805550302
18.149572,9.770591680187245,0.0959419961754079
18.151964,9.768221284104229,0.0957740082573085
18.154348,9.764779952834576,0.0956155840805047
18.156728,9.755751628206252,0.0954841038260009
18.159132,9.752450066563457,0.0953211898728477
18.161516,9.743421741935132,0.0951894013527994
18.163896,9.736395518053223,0.0950442695338443
18.1663,9.734304661223929,0.0948673618300335
18.168688000000003,9.734215905141047,0.0946762896424841
18.171064,9.737200184991227,0.0944624053277932
18.173472,9.740975860774322,0.0942485599188927
18.175856000000003,9.744471997303696,0.0940436231600135
18.178236,9.74796813383307,0.0938392939368746
18.18064,9.75919313409439,0.0935908385426183
18.183024,9.769207429542217,0.0933558987844563
18.185404,9.781922673870756,0.0930845005746719
18.187808,9.792775587079737,0.092821272488612
18.190192,9.80348873066186,0.0925631391597248
18.192572,9.81126860793779,0.0923220960025388
18.194976,9.821702212266194,0.0920735627459033
18.197364,9.82985417659446,0.0918482469042175
18.199744000000003,9.831580529802894,0.0916774554545805
18.202136000000003,9.830233847078272,0.0915285834005378
18.204524,9.833542992152545,0.0913585061005952
18.206904,9.829635130174069,0.0912422165499528
18.209308,9.829312160807843,0.0911135035376369
18.211696,9.823634515508424,0.0910300467276174
18.214076,9.814604295022232,0.0909783783686797
18.21648,9.81144060714843,0.0908921668647353
18.218864,9.807205984087988,0.0908148876700985
18.221244,9.806556253639798,0.0907262033847327
18.22364,9.813123530244358,0.0905859471324033
18.226028,9.81983057647578,0.0904415328911428
18.228408,9.821322716400868,0.0903362910408058
18.230812,9.828541619311489,0.0902031316990081
18.2332,9.833990738901166,0.0901026747133497
18.23558,9.843444059983677,0.0899776510900299
18.237976,9.85424785550655,0.0898352895118187
18.240360000000003,9.867845147708756,0.0896810643144879
18.24274,9.880651043978045,0.0895268162785094
18.245148,9.892525774687554,0.0893758026859311
18.247536,9.909755181330258,0.0891824438566908
18.249916,9.93392205577199,0.0889491370627716
18.252312,9.954364267974611,0.0887314961980166
18.2547,9.979090220923784,0.0884797762598847
18.25708,10.008891310552428,0.0881979171088136
18.259476,10.042044975367848,0.0878863044273644
18.26186,10.079622150556682,0.0875372290352344
18.264244,10.113195124252682,0.0872160171022429
18.26664,10.145557393135183,0.0869076294647443
18.269028,10.174334769405435,0.0866104559622978
18.271408,10.196966073809572,0.0863553422355415
18.273812,10.216384572653794,0.0861246201172009
18.276200000000003,10.238504020378736,0.0858600021027152
18.27858,10.253965539558363,0.0856251360045472
18.280976000000003,10.266773331685524,0.0853960412566776
18.28336,10.277718792693124,0.0851748918909038
18.28574,10.282518181834618,0.0849920312786778
18.288148,10.28866804541647,0.0847925578198175
18.290532,10.295237217878896,0.0845803241439159
18.292912,10.30622990071474,0.084332380937671
18.295308,10.316151648363943,0.0840935974846832
18.297696,10.321417568214258,0.0838723458016904
18.300076,10.328406049557268,0.0836487617467088
18.302480000000003,10.337396631646698,0.0834156298261911
18.304868,10.338378810750458,0.0832264195956467
18.307248,10.341502860227497,0.0830230866877903
18.309652,10.341693643398338,0.0828338740688377
18.312036,10.337088829143427,0.0826640646869087
18.314416,10.335045194142376,0.0824661669143268
18.31682,10.334072494327962,0.08226074511686
18.319208,10.33123746339399,0.0820607668106775
18.321588,10.330823842087018,0.0818367428567017
18.323984000000003,10.328128580779907,0.0816321813099332
18.326372,10.331579391338908,0.0813921304861387
18.328752,10.338243007457825,0.0811299450725624
18.331152000000003,10.34690872432316,0.0808584415903257
18.33354,10.363443074547298,0.0805498943376281
18.33592,10.380768820704358,0.0802445536903361
18.338316,10.39474199167464,0.0799656667820029
18.3407,10.403500256338589,0.0797187914822007
18.34308,10.410116650629265,0.0794865790823335
18.34548,10.414730944173517,0.079263793487323
18.347864,10.421626877717912,0.0790230181945583
18.350248,10.423587444209694,0.0788053892274078
18.352644,10.42890058588825,0.0785616092803132
18.355032,10.425134389394502,0.078364047320169
18.357412,10.425092855139866,0.0781559742871325
18.359812,10.43091785349762,0.0779226246701344
18.3622,10.437254708534574,0.0777006178545945
18.36458,10.44638506025086,0.0774716651440022
18.366984,10.456446577526927,0.0772390542022305
18.369372,10.468230656295692,0.077006484768586
18.371752,10.483227540624368,0.0767540719387283
18.374148,10.494220223460212,0.0765216619883605
18.376536,10.505073136669196,0.0762945022378698
18.378916,10.507777877265651,0.0761080743630618
18.381312,10.509411682675468,0.0759293872666937
18.383696,10.511045488085289,0.0757515239886433
18.386092,10.514821163868382,0.0755601805701667
18.388496,10.523392437077227,0.0753525150248678
18.390884,10.53531628547285,0.0751214120751741
18.393264,10.55375829278692,0.0748743034462156
18.395664,10.569127264167935,0.0746434903407146
18.398048000000003,10.583285530735454,0.0744224536458054
18.400428,10.596233092489474,0.0742124567324041
18.402824000000003,10.615838582788797,0.0739808221842342
18.405212,10.634652677155207,0.0737492739705751
18.407592,10.648671174095863,0.0735336121801786
18.409992000000003,10.658825239170548,0.0733314659903789
18.412376,10.6644632460732,0.0731369627988556
18.414756,10.673314058535766,0.072923312428925
18.417156,10.682164870998331,0.0727108577579538
18.419544,10.684729841967927,0.0725321203832938
18.421924,10.690879705549776,0.0723494744794637
18.42432,10.696238173198708,0.0721653008863157
18.426708,10.711746914206582,0.0719350958363706
18.429104,10.724741697788843,0.0717036208216958
18.4315,10.734151588758856,0.0714767711942344
18.433888,10.742630314169084,0.0712521282707659
18.436268,10.751668118086757,0.0710124227490135
18.438672,10.760426382750708,0.0707822823412571
18.44106,10.762806258123067,0.0705620072607206
18.44344,10.764394737562512,0.0703391698016984
18.445844,10.772269058494926,0.0700848495295824
18.448232,10.782145480173757,0.069823039082521
18.450612,10.79258098036003,0.069545942451818
18.453012,10.797010178307051,0.0692918312853443
18.455396,10.804512412187131,0.069023782270322
18.45778,10.813225350880709,0.0687453175895057
18.460176,10.82258991588034,0.0684728377789611
18.462564,10.833025416066612,0.0681959398673262
18.464944000000003,10.837873922894214,0.0679294093568153
18.46734,10.84686640084151,0.0676429505160052
18.469724,10.850551424683855,0.0673591086465833
18.472108,10.853025743712706,0.0670851151657365
18.474504,10.8524270268085,0.0668256725421211
18.476892,10.851828309904294,0.0665660354835865
18.479272,10.849879118559729,0.0663191654858468
18.481676,10.852073898334853,0.0660545490537266
18.484064,10.849984937363429,0.0658125271119806
18.486444,10.84310037896625,0.0655821083677669
18.48884,10.839149086875269,0.0653425851224076
18.491228,10.840133161836896,0.0650879514079747
18.493608,10.835250704186135,0.0648503475269783
18.496004,10.832370347281792,0.0646068029556371
18.498392000000003,10.82627718481753,0.0643793008977582
18.500772,10.82819242533894,0.0641249589581328
18.503168,10.830759292166404,0.063877618986056
18.505556,10.835468029367147,0.0636200595117038
18.507936,10.842318636941169,0.0633523046639844
18.51034,10.84702737414191,0.0630958907719629
18.512728000000003,10.854529608021988,0.0628348530309219
18.515108,10.861892072275204,0.0625780465053236
18.517508,10.86990616283448,0.0623270990473595
18.519892,10.876989087833977,0.0620769564063783
18.522288,10.883280616900556,0.0618247081904793
18.524684,10.89036354190005,0.061575374193818
18.527072,10.899588337272826,0.061315144851137
18.529456,10.904529391899043,0.0610762033406876
18.531852,10.91026184245818,0.0608395742511782
18.53424,10.92092966006993,0.0605895742949061
18.53662,10.931457708054822,0.0603439957384746
18.539024,10.939843885666434,0.0601097811438897
18.541412,10.94981285514388,0.0598806926225
18.543792,10.95484645756872,0.0596651634535855
18.546188,10.96495519667303,0.0594334346149932
18.548576,10.96705553279167,0.0592255214728787
18.550956,10.968364472977392,0.0590150414958585
18.553352,10.96660037723006,0.0588151935565311
18.55574,10.961623475922812,0.0586296538992408
18.55812,10.956506804988708,0.0584480125156754
18.560516,10.955114796293712,0.0582631803122735
18.5629,10.956935593158637,0.0580648685453161
18.56528,10.960478951516253,0.0578684613904256
18.567680000000003,10.967886741739845,0.0576650790420683
18.570064,10.972081726403518,0.0574754056561184
18.57246,10.977068107000113,0.0572891239624583
18.574856,10.9837770490894,0.0571053097958878
18.577244,10.989415055992056,0.0569257687641012
18.579628,10.996403537335064,0.056734016158329
18.582024,11.000179213118162,0.0565563869517226
