Time,Force,Position
16.229588,7.384209464460328,0.1547519743291091
16.231976,7.604081555900443,0.1524140402627873
16.234356,7.780891505881013,0.1507187172275123
16.337108,7.834910308876898,0.1503593999027771
16.339496,7.839239375593826,0.1503519176524758
16.34188,7.86247129276004,0.1501030517009025
16.344276,7.900276993658614,0.1496210684596849
16.346664,7.936127815639014,0.1491367039322767
16.349044,7.9629465212753505,0.1487532138287162
16.351444,7.992046866911826,0.1483232578437187
16.353828,8.02319653512296,0.1478219480116605
16.356212,8.055092273296639,0.1472551733126431
16.358608,8.090480356283953,0.1466330946657402
16.360996,8.126380295950467,0.146016761036498
16.363376,8.162000696363258,0.1454026744474394
16.365776,8.200786680507722,0.1447682660409146
16.368164,8.236639398345993,0.1441807299392161
16.370544,8.269698619504926,0.1436276700579991
16.372944,8.29717084730519,0.14314511882291
16.375332,8.320499103985762,0.142728568505688
16.377712,8.350392741413023,0.1422032950846661
16.380108,8.369578922831769,0.1417638347842839
16.382496,8.388812326078757,0.1412946298449062
16.384876,8.40632316783305,0.1408381940841991
16.387276,8.421599591415447,0.1403867685935605
16.389664,8.426121337161085,0.1400479877470951
16.39206,8.419748635443106,0.1398216007023202
16.394455999999998,8.411793141859292,0.1396022575500025
16.396843999999998,8.408074167193783,0.1393499020596963
16.399228,8.40859171144659,0.1390663524131734
16.401623999999998,8.415115557938647,0.1387050028950378
16.404016,8.420568469244063,0.1383622507532278
16.406399999999998,8.414660402377038,0.1381784324628635
16.408796,8.410986753681906,0.1379898622609445
16.411184,8.415973134278499,0.1376998249626498
16.413567999999998,8.423008837449753,0.137351682798669
16.415972,8.432093863195666,0.1369459975441062
16.41836,8.44252936338194,0.1365111978318527
16.420744,8.452545554687632,0.1360924389031174
16.42314,8.465495012299517,0.1356377063500773
16.425528,8.473509102858793,0.1352484380484676
16.427908,8.478170618231292,0.1349113784521535
16.430304,8.47854839285724,0.1346381811130338
16.432692,8.479158484908663,0.1343852876712724
16.435071999999998,8.482934160691757,0.1341190970790457
16.437472,8.488152858713825,0.1338527801668084
16.43986,8.495885514161511,0.1335696957170997
16.442244,8.50664398371401,0.1332805543723676
16.44464,8.52163897218482,0.1329645729843469
16.447028,8.532769528789654,0.1326936039305659
16.449412,8.535379825729624,0.1325138672104468
16.451808,8.534917086736538,0.132374481598495
16.454196,8.54325414666204,0.1321320420349156
16.456576,8.554244933640014,0.1318691451994886
16.458976,8.562442223938655,0.1316361685304543
16.461364,8.563050420132209,0.1314822593773437
16.463744,8.558024401138848,0.1314167065298322
16.466148,8.553090929944107,0.1313787821619724
16.468536,8.556398179160507,0.1312659362782532
16.470912,8.560496824309826,0.1311507522972093
16.473308,8.565014778339727,0.1310179664095155
16.475696,8.575771352034353,0.1308352084296773
16.47808,8.592487006139992,0.1306161793460694
16.480476,8.614138027298239,0.1303412071684901
16.482864,8.63676743584451,0.130026872081535
16.485243999999998,8.655811951778524,0.1297405291684348
16.48764,8.675647863645459,0.129452524682535
16.490028,8.693341905139116,0.1291947862583318
16.492407999999998,8.70759082364738,0.1289614890644497
16.494808,8.725052547715558,0.1286856386986255
16.497192,8.749823826635106,0.1283482049990751
16.499575999999998,8.777109062980267,0.1279969536021929
16.501972,8.80183312007157,0.1276948458305241
16.50436,8.820970183804205,0.1274432729836497
16.50674,8.838896542723338,0.1272126412613382
16.509135999999998,8.864644313173038,0.1269299585226458
16.511523999999998,8.897050012168044,0.1265834985325723
16.513904,8.929735250416773,0.1262252590788788
16.516303999999998,8.955250703440996,0.1259249416761908
16.518691999999998,8.979323134226242,0.1256253364578839
16.521072,9.002836486504044,0.1253508469545879
16.523476,9.024906816542872,0.1250777588455451
16.525864,9.041157835797554,0.124833913826482
16.528244,9.0553142065072,0.1245871137659274
16.530644,9.065978232403213,0.1243933655939345
16.533032,9.083300186844532,0.1241397975242552
16.535412,9.10169307647249,0.1238744824788483
16.537808,9.121576210167667,0.1235795830935487
16.540195999999998,9.138386307929787,0.1233182117941936
16.542576,9.155056636065051,0.1230648241544855
16.54498,9.167071136401422,0.1228508774589242
16.547363999999998,9.18029634155129,0.1226193965777827
16.549744,9.192637602969624,0.1223642628129841
16.552152,9.210845397000348,0.1220531949881027
16.554536,9.231334831031212,0.1217119405803156
16.556919999999998,9.24786728539748,0.1213820433863445
16.559324,9.258812746405084,0.1210974290839584
16.561708,9.273110782599462,0.1207708671253907
16.564092,9.28740881879384,0.1204430808257229
16.566488,9.303569186107769,0.1201025245900115
16.568876,9.318006991929009,0.119771075047403
16.571255999999998,9.330442697003829,0.1194601352356135
16.573656,9.344041885063904,0.1191617394576518
16.576044,9.35694222498968,0.118891310222903
16.578424,9.37440584491573,0.1185612611909706
16.58082,9.38628247148311,0.1182749723956705
16.583208,9.39708816286385,0.1180025109092067
16.585592,9.406962688684812,0.1177379353095856
16.587988,9.419258624132771,0.1174368785910962
16.590376,9.428761062901398,0.117157411628587
16.59276,9.441476307229935,0.1168420350686517
16.595156,9.44860455819981,0.1165675374966832
16.597544,9.456104896222016,0.1163078831360615
16.599923999999998,9.458297780139274,0.116078788378741
16.602324,9.454624131444142,0.1159009467313565
16.604712,9.452393504987986,0.1157256986287887
16.607091999999998,9.453096144838028,0.1155246747828115
16.609488,9.450585979128151,0.1153605519458433
16.61188,9.45194024528425,0.1151645573163627
16.614259999999998,9.450221475507291,0.1149993787501129
16.61666,9.446780144237634,0.1148415865058389
16.619048,9.443059273714258,0.1146942341401672
16.621427999999998,9.438035150578768,0.1145385539059879
16.623824,9.43357010595072,0.1143614476761673
16.626212,9.419606414269785,0.1142867526348643
16.628591999999998,9.409087845574238,0.1141960550817824
16.630983999999998,9.395915549826222,0.114119762351311
16.633371999999998,9.380601383704928,0.1140672719761159
16.635768,9.366450700568889,0.1140281156795389
16.640556,9.332515119109894,0.1140201077298111
16.642936,9.322041876384723,0.1139849256227814
16.64534,9.311708403286415,0.1139442285371681
16.647724,9.30454051391978,0.1138985629652499
16.650104,9.303099387538673,0.1138080245278575
16.652504,9.297142202985537,0.113744829436672
16.654892,9.290533392126338,0.1136773188408953
16.657272,9.282713876453643,0.113627002222035
16.659668,9.271821324847894,0.1136067413930375
16.662056,9.26307064361542,0.113562597328709
16.66444,9.255902754248783,0.1135161425992289
16.666836,9.251947670442062,0.1134340611542121
16.669224,9.25357957999401,0.1133135118091511
16.671604,9.255863115852016,0.1131975270656256
16.674,9.269228090628747,0.1129794301039697
16.676388,9.279427481673803,0.11276589749706
16.678767999999998,9.292560139025056,0.1125282190968122
16.681164,9.310628163428918,0.1122492011125056
16.683552,9.33046597115372,0.111934016043789
16.685948,9.356449850744635,0.1115621011495038
16.688344,9.38336489589533,0.1111838455797321
16.690732,9.403249925448376,0.1108408015659065
16.693116,9.42327472462828,0.1104933205311508
16.695512,9.44185650156921,0.1101428211466481
16.6979,9.458715717017444,0.1098008950933679
16.700284,9.483164026570766,0.109406304584353
16.702688,9.509334897616784,0.1090073979200308
16.705071999999998,9.53713578235688,0.1085770537020712
16.707456,9.56535597597756,0.1081310137518907
16.709851999999998,9.59157406885182,0.1077030806243969
16.712236,9.623286607286134,0.1072179233522903
16.714616,9.653276584227752,0.1067422156629614
16.717016,9.67753979818384,0.1063084218963907
16.719404,9.700220220274089,0.1058769424711221
16.72178,9.715032009005531,0.1055077790307791
16.72418,9.731706128856535,0.1051275776063577
16.726564,9.7455867520282,0.1047645068581133
16.728948,9.755882482587614,0.1044201702737953
16.731344,9.764036342773748,0.1040983979621844
16.733732,9.766603209601213,0.1038102982454734
16.736112,9.766795888629922,0.1035226688583369
16.738508,9.77006160359169,0.1032084054592743
16.740896,9.773467088180317,0.1028895617357435
16.743292,9.77887467351536,0.1025555828174563
16.745687999999998,9.782280158103989,0.1022368522958156
16.748075999999998,9.784102850826777,0.1019209778163372
16.75046,9.782992277243368,0.1016260437495791
16.752855999999998,9.7805312292196,0.1013510387001937
16.755243999999998,9.779792742688532,0.1010710237066766
16.757628,9.777191925037908,0.100800269788169
16.760023999999998,9.767513869961393,0.1005849208765326
16.762415999999998,9.751549973391908,0.1004238308547384
16.764796,9.73679678163592,0.1002471616552358
16.767191999999998,9.724837086559267,0.1000551474988596
16.769584,9.71688159297545,0.0998327896460143
16.771967999999998,9.71078843051119,0.0996008106520281
16.774364,9.708559699912904,0.099344273609979
16.776752,9.706982595620673,0.0990926194164084
16.779132,9.70633665688822,0.0988365176679857
16.781532,9.708344445208244,0.0985708555484666
16.783915999999998,9.711935025394103,0.098304618001239
16.7863,9.7171083974458,0.0980396403619926
16.788695999999998,9.722933395803556,0.0977803691840814
16.791083999999998,9.729689559721084,0.0975177880356581
16.793464,9.739518759571672,0.0972317318705219
16.795863999999998,9.746135153862348,0.0969749095169023
16.798251999999998,9.750889217033462,0.0967264690776314
16.800636,9.75550351057772,0.0964825517927225
16.803031999999998,9.758907099308477,0.0962533946615707
16.805419999999998,9.766966515838126,0.0960013959080803
16.807804,9.779681760166667,0.0957266643634329
16.8102,9.802547277854153,0.0953769975775342
16.812587999999998,9.825924652220834,0.0950377450747999
16.814968,9.844878516214102,0.09474135429732
16.817368,9.86262167539387,0.0944600522432891
16.819755999999998,9.877152029013724,0.094207586944922
16.82214,9.888329807446803,0.0939883946881945
16.824536,9.897365715506607,0.0937873623473078
16.826919999999998,9.901326486886935,0.0936225334902521
16.829304,9.90207445270735,0.0934854454319743
16.831699999999998,9.909620116699932,0.0933090848139384
16.834087999999998,9.91316157919968,0.093159897614362
16.836472,9.915632106512788,0.0930200780852352
16.838864,9.9156812241989,0.0929083021748393
16.841255999999998,9.920246400057046,0.092781195900573
16.84364,9.925602971848107,0.0926546254328291
16.846035999999998,9.936546536997838,0.0925032971653825
16.84842,9.949492202893987,0.0923391836095741
16.850804,9.964719508790274,0.0921535824498455
16.853203999999998,9.977153318007224,0.0919808319334551
16.855591999999998,9.988655961664398,0.091813072378802
16.857972,9.998947900508073,0.0916605187006587
16.860371999999998,10.012312875284804,0.0914878513062322
16.862756,10.030101360434944,0.0912768442869261
16.865136,10.051102651145005,0.0910418593197838
16.867535999999998,10.0731748770417,0.0907985298417498
16.86992,10.096597577378756,0.0905376856089894
16.872315999999998,10.126306119208785,0.0902325021106979
16.874712,10.16388329439762,0.0898837501150588
16.8771,10.20667537589279,0.0894991491692717
16.87948,10.24173859365601,0.0891568795158383
16.881884,10.280806012912064,0.0887915376774078
16.884272,10.318942266608335,0.0884298692049621
16.886651999999998,10.358428994744973,0.088052042860324
16.889048,10.389255693589885,0.087718323208701
16.891436,10.42101355799457,0.0873817530161464
16.893815999999998,10.448906990533285,0.0870654082612065
16.896216,10.478011127885498,0.0867386993161238
16.8986,10.503902459677796,0.0864371330676415
16.90098,10.529793791470096,0.0861354581402834
16.90338,10.553822792142832,0.0858413638227207
16.905768,10.572125029830042,0.0855732008037
16.908148,10.587494001211056,0.0853211863197116
16.910552,10.599650167032156,0.0850933537233079
16.91294,10.60379792986759,0.0849100792305525
16.915319999999998,10.60701452714324,0.0847301622329739
16.917716,10.607018318858978,0.0845732411208737
16.920104,10.60087603870861,0.0844543598398712
16.922487999999998,10.587004894826288,0.0843707540710917
16.924884,10.56498557833144,0.0843355093618369
16.927272,10.547761859262348,0.0842789596327889
16.929652,10.5257425427675,0.0842428333041196
16.932047999999998,10.505073700713014,0.0841898472894304
16.934435999999998,10.479609261232774,0.0841571621305103
16.936816,10.454144821752534,0.084124573097733
16.939216,10.428028755966238,0.0840859198346338
16.941599999999998,10.40219222943366,0.0840380794398256
16.943984,10.373142897341166,0.0840125927092391
16.946379999999998,10.344233334875534,0.0839824555530345
16.948767999999998,10.319188204275877,0.0839344617286398
16.951164,10.296005404795771,0.0838797407418306
16.95356,10.274545166808366,0.0838229023284904
16.955948,10.25108282807454,0.0837766082670583
16.958327999999998,10.227248402288382,0.0837152891600642
16.960724,10.213424480234304,0.0835999980960558
16.963112,10.20532732116576,0.0834617711301666
16.965491999999998,10.202864377284127,0.0832772297529662
16.967888,10.200261663775636,0.0830964779288827
16.970276,10.204875957319892,0.0828721805648063
16.972656,10.2149846964242,0.0826050719419525
16.975056,10.220158068475897,0.0823626564868609
16.977444,10.229335642020429,0.0820991124791859
16.979824,10.23730251075146,0.0818475992269588
16.982219999999998,10.252998243214442,0.0815637195529672
16.984607999999998,10.269904680490916,0.0812668931779392
16.986992,10.28373808183434,0.0809874472893907
16.989387999999998,10.29771125280462,0.0807036652974953
16.991772,10.311963963028624,0.0804108088608021
16.994168,10.328498313252764,0.0800994799373134
16.996564,10.341727310118372,0.0797881921978739
16.998952,10.353373515118143,0.0794744346780661
17.001336,10.367580899371776,0.0791336757741251
17.003732,10.382347362132844,0.078774551704929
17.00612,10.399488012692668,0.0784206118815848
17.008504,10.408899799520546,0.0780992527708408
17.0109,10.410070865937277,0.077798941522856
17.013288,10.408680753100152,0.0775266699064672
17.015672,10.411062524330385,0.0772160221126208
17.018068,10.4102314900007,0.0769274417250063
17.020456,10.41112301716371,0.0766388944591804
17.02284,10.412573622834165,0.0763323130221457
17.025236,10.412673754064258,0.0760416664441632
17.027624,10.414124359734712,0.0757356505242733
17.030003999999998,10.407706332046358,0.0754624992864397
17.0324,10.40515273622398,0.0751753789190316
17.034788,10.40301844928218,0.0748739812841282
17.037171999999998,10.402327184579354,0.0745807839753307
17.039568,10.401496150249669,0.0742915469107696
17.041952,10.397312540733209,0.0740266285944007
17.044335999999998,10.393361248642224,0.0737807101590897
17.046732,10.389270186924382,0.0735387789593399
17.04912,10.381547010766042,0.0733294496145627
17.051503999999998,10.376337792033318,0.0731216059896548
17.0539,10.36833507662126,0.0729204604527134
17.056288,10.365267728261813,0.0726992763848588
17.058684,10.36364340214134,0.0724854026515084
17.06108,10.361879306394007,0.0722758912579723
17.063468,10.358485196952596,0.0720903634281872
17.065848,10.354020152324546,0.0719111974765654
17.068244,10.349415338069637,0.0717369317211335
17.070632,10.345042841240204,0.0715814221452144
17.073012,10.339878948477851,0.0714236536617264
17.075408,10.33429574683492,0.0712786481912705
17.0778,10.33471884743124,0.0711081145109645
17.08018,10.333000077654283,0.0709506242943165
17.082576,10.335797366049356,0.0707871940229262
17.084964,10.339945128884787,0.0706097258573617
17.087343999999998,10.349307798026553,0.0704064990305931
17.089744,10.364816539034427,0.0701757441749008
17.092132,10.379533884109383,0.0699427683160681
17.094511999999998,10.39504262511726,0.0697122882245372
17.096908,10.411622301311777,0.0694750934087001
17.099296,10.426991272692792,0.0692487984301398
17.101679999999998,10.44808700705934,0.0690080436124958
17.104076,10.461965734373134,0.0688010101487834
17.106464,10.479708893552903,0.0685826766132828
17.108843999999998,10.49465855605334,0.0683694018721945
17.111248,10.510539384113551,0.0681548699797772
17.113636,10.525209507360264,0.0679500683914607
17.116016,10.536806594673925,0.0677595974180032
17.118416,10.551616487547497,0.0675516397312814
17.120804,10.567637085234573,0.0673338810311407
17.123184,10.583378143667924,0.0671246420776669
17.12558,10.597768727660918,0.0669306724273249
17.127968,10.611228146094136,0.0667385599899909
17.130352,10.62454779490049,0.0665517314719146
17.132748,10.633863242214012,0.0663802709048711
17.135132,10.634890747288146,0.0662469756543886
17.137528,10.630703346055949,0.0661385867641196
17.139927999999998,10.628518045570168,0.0660229211965748
17.142315999999997,10.628334845830802,0.065900279487295
17.144696,10.636020279450245,0.065753958937071
17.147092,10.644916417883184,0.0655983706638289
17.14948,10.65101905963679,0.0654482750449574
17.15186,10.661777529189289,0.0652900239239928
17.15426,10.673886473182144,0.0651194688727928
17.156648,10.69186194978739,0.0649325189357642
17.159028,10.70811486489994,0.0647448704665701
17.161428,10.727440815945544,0.0645449410297046
17.163812,10.744904435871597,0.0643472587192226
17.166196,10.762507825424509,0.064146987308776
17.168592,10.779552136469976,0.0639630392256733
17.17098,10.801019957888858,0.0637550013635604
17.173364,10.81797172113571,0.0635493979207353
17.175764,10.840138390688894,0.0633227160415885
17.178152,10.858440628376105,0.0631055095263993
17.180532,10.882609398675706,0.0628737626915265
17.182935999999998,10.914646802334111,0.0626204197476764
17.185323999999998,10.949757241925578,0.0623562933385342
17.187704,10.98458814226332,0.0621011873224068
17.190099999999997,11.016485776294866,0.0618546808848792
17.192488,11.037721280288272,0.0616343797141991
17.194868,11.0568149139084,0.0614246186712404
17.197271999999998,11.072695741968612,0.061230104249686
17.199656,11.090066814096046,0.0610194046138976
17.20204,11.1028746062232,0.0608372030467378
17.204435999999998,11.115170541671162,0.0606459752257931
17.206823999999997,11.132122304918015,0.060450361426464
17.209204,11.152426643351644,0.0602379805947209
17.2116,11.17859751439766,0.0600122763213265
17.213988,11.202626515070405,0.0597972709903115
17.216368,11.230147860556778,0.0595615793496908
17.218768,11.251523134177049,0.0593478202844266
17.221152,11.28062727152926,0.0591196827331046
17.223536,11.30330579776164,0.0589206692726713
17.225932,11.331478769554074,0.0586957886787158
17.22832,11.351783107987703,0.0584896312362247
17.230715999999997,11.3663606834358,0.0582930825849551
17.233116,11.374140560711725,0.0581095888321292
17.2355,11.38019787649496,0.0579241571410847
17.237883999999998,11.388257293024608,0.0577336065180528
17.240288,11.399529515114171,0.0575289046981323
17.242672,11.414014542763653,0.0573111713868409
17.245055999999998,11.431060749666992,0.0570732585530749
17.247448,11.451040222876523,0.0568312264632556
17.249836,11.473860414593636,0.0565623261965164
17.252216,11.49411942705689,0.0563144723654894
17.254616,11.505578640601556,0.0560839403235544
17.257004,11.508610142279975,0.0558848523767036
17.259384,11.5111297872792,0.0556765494138021
17.261779999999998,11.511787101158864,0.0554692874050827
17.264167999999998,11.509650918359196,0.0552645729453006
17.266552,11.51193824593294,0.0550395309795432
17.268947999999998,11.507567644961377,0.0548223689522787
17.271331999999997,11.50654961917659,0.0545889753012734
17.273716,11.501108083018387,0.054376267617747
17.27612,11.5006019139128,0.0541533655458854
17.278503999999998,11.503308550367125,0.0539181833768926
17.280888,11.5120214890607,0.0536687445783186
17.283284,11.522084902194637,0.0534081971559152
17.285671999999998,11.529075279395514,0.0531562398610983
