Time,Force,Position
17.778688,7.053447245849918,0.1576417815262732
17.781071999999998,7.079053350814887,0.157290127474488
17.783468,7.103962503503426,0.1568634511631765
17.788236,7.106059047906327,0.1567475909049751
17.790632,7.10973838417507,0.1566193049555695
17.79302,7.11518750376475,0.15642982043754
17.7954,7.116817517458828,0.1563776017403972
17.797795999999998,7.130225922348063,0.1562058822817081
17.800184,7.151083651715524,0.1559259371180538
17.80258,7.17091577186672,0.1557366885262098
17.80498,7.203457448772851,0.1554074628412864
17.807364,7.251923383851698,0.1547664266603894
17.809744,7.284746495869419,0.1543274616770597
17.812152,7.305696773035496,0.1540875796315066
17.81454,7.333537296172362,0.1537630143125848
17.81692,7.370085070429195,0.1532561471426239
17.819316,7.401280064610705,0.1527504174707241
17.821704,7.433313676553374,0.1522043128299509
17.824084,7.457850742189574,0.1518045226902306
17.826484,7.476381505586524,0.1515040533935255
17.828872,7.493561794543114,0.1512422887492386
17.831252,7.516049537604654,0.1509232137407435
17.833656,7.534253539919641,0.1506900698866837
17.83604,7.555902665220019,0.1504178679280319
17.83842,7.580902469849303,0.1501882918503183
17.840824,7.611302276382156,0.1499310137991238
17.843212,7.647523289557026,0.1495207711746012
17.845592,7.672105681163599,0.1492189237662793
17.848,7.691612936090701,0.1490008143895687
17.850384,7.7161953276972755,0.1486980167346283
17.852764,7.738310983706477,0.1483852752187233
17.855164,7.749160105199722,0.1481918059947947
17.857552,7.7652241329993,0.1479144486324341
17.859932,7.787154693411269,0.1475507324457836
17.862328,7.813461542368409,0.1471427001172964
17.864716,7.841770492071965,0.1467132239667209
17.8671,7.870498750656102,0.1462666293746977
17.869496,7.896014203680324,0.1458763544599377
17.871884,7.926929658608111,0.1454571165518206
17.874268,7.971021200999656,0.1448745598318032
17.876664,8.020095332272057,0.1441977876551222
17.879052,8.059765260148056,0.1436102681981707
17.881436,8.097852396158219,0.1430314507840051
17.883831999999998,8.138733028847717,0.1424226772118711
17.886216,8.178497400380204,0.1417709380938487
17.8886,8.217704589263118,0.1410597611814785
17.890996,8.249741992921525,0.1404303751224915
17.893388,8.283734275498107,0.1398062155413953
17.895768,8.322894242552778,0.1391396860596343
17.898164,8.363125144794088,0.138462151333234
17.900552,8.404566751848895,0.1377720961859469
17.902936,8.444937423717064,0.13709861476764
17.905336,8.481675981144738,0.1365001017176942
17.907723999999998,8.521160813423503,0.1359112439632304
17.910104,8.56292728570241,0.1352926349868101
17.9125,8.601667943876496,0.1346920687886453
17.914888,8.640268832423727,0.1341024057159729
17.917268,8.679241808023297,0.1335255792666276
17.919672,8.719984566943802,0.1329048860161536
17.92206,8.752905914333747,0.1323529992185029
17.92444,8.778657476499184,0.1318688582350642
17.926836,8.808925096836655,0.1313470912132545
17.929224,8.842218531278935,0.130820514772998
17.931604,8.874021721653996,0.130329336675935
17.934008,8.907407703894895,0.1298376172230973
17.936396,8.934228305389102,0.1294432243088894
17.938776,8.959930749868425,0.1290956201702572
17.941176,8.990940648452698,0.1287109241961767
17.94356,9.019436589611358,0.1283421030992061
17.945944,9.044347638157763,0.1280027821267425
17.948339999999998,9.06553402446506,0.1277003687812947
17.950728,9.09174832562358,0.1273731771231827
17.953108,9.118102396408965,0.1270408777274604
17.955504,9.139847861223698,0.1267189614428119
17.957892,9.154283771187064,0.1264580376290894
17.960272,9.164435940403878,0.1262530844905232
17.962672,9.176170901486527,0.1260450627090893
17.965056,9.18897679775582,0.1258229221008145
17.967436,9.196987096599356,0.1256465201091942
17.96984,9.19978248913656,0.1255322460583454
17.972228,9.201459724658882,0.1254635535709487
17.974608,9.201646716113986,0.1254259854021553
17.977004,9.201182081263028,0.125385159434082
17.979392,9.199553963426816,0.1253318974296096
17.981772,9.195272118538131,0.1252967643033659
17.984172,9.191641899955508,0.1252650342150464
17.98656,9.193226587679211,0.1251712752614285
17.98894,9.18992313017855,0.1250967753480555
17.991344,9.187970147118245,0.1249977281790603
17.993732,9.188019264804357,0.1248776293934425
17.996112,9.186857677676972,0.1247763927029414
17.998508,9.181319802004412,0.1247026168116159
18.000896,9.174431451891495,0.1246531865454968
18.003276,9.169637750323613,0.1246085500812478
18.005676,9.167358006181344,0.1245519461196411
18.00806,9.165869657971996,0.1244930963612762
18.010444,9.157863150844198,0.1244883842125933
18.01284,9.152138283716535,0.1244512319024823
18.015228,9.151348783641488,0.1243643938170789
18.017608,9.160849326552244,0.1241620234293605
18.020004,9.1722594224108,0.1239126305899856
18.022392,9.182506035284096,0.1236508828832371
18.024772,9.189307525172005,0.1234082099274997
18.027172,9.197831576552607,0.123156305841465
18.029556,9.204213757559934,0.1229305181835132
18.031952,9.21315711782112,0.1226618227954022
18.034352,9.215722088790718,0.1224411390849072
18.03674,9.217727981252873,0.1222424856198606
18.03912,9.216381298528251,0.1220886844439589
18.04152,9.215453924684212,0.1219186132395658
18.043908,9.213735154907257,0.1217500106321389
18.046288,9.213087320316935,0.1215683046860773
18.048688,9.212998564234056,0.1213639722527124
18.051076,9.210675389979285,0.1211595814289594
18.05346,9.209051063858812,0.1209274072527882
18.055856,9.210919082551976,0.1206456204446251
18.058244,9.216791302737974,0.1203219836220141
18.060628,9.222943062177691,0.1199894430820342
18.063024,9.227232490497853,0.1196726801149499
18.065412,9.220440479899292,0.119468424303787
18.067796,9.214300095606792,0.1192680964061015
18.070196,9.20666946724707,0.1190964861574604
18.072584,9.20276350112646,0.1188958760754602
18.074964,9.19899730463271,0.1186901557902693
18.07736,9.198164374445158,0.1184575006801493
18.079748,9.194258408324549,0.1182569900176335
18.082132,9.193006169256416,0.1180402522525242
18.084528,9.19338394388236,0.1177888792221886
18.08692,9.197114293695082,0.1174942601891514
18.0893,9.196281363507527,0.1172605007125899
18.091696,9.19810216037245,0.1170109644159991
18.094084,9.19871225242387,0.1167794051118604
18.096464,9.199462114102158,0.1165421313992365
18.098864,9.207009673952609,0.1162464945303203
18.101252,9.213998155295616,0.1159732568182497
18.103632,9.215631960705432,0.1157617525483966
18.106028,9.216055061301752,0.1155679667783153
18.108416,9.213125586711296,0.1154167488646042
18.1108,9.211127277680616,0.1152589504810513
18.113196,9.218999702755164,0.1150116802147234
18.115584,9.22608073189679,0.1147664163513665
18.117964,9.236514336225197,0.1144793947700869
18.12036,9.243083508687626,0.1142243495820139
18.122748,9.24765058040364,0.1139884164503933
18.125132,9.24541995394748,0.1138090856013735
18.127528,9.24612259379752,0.1136041567655037
18.129916,9.24803593846106,0.113382158634152
18.1323,9.24831926943052,0.113193899195859
18.134696,9.244458629280285,0.1130481351660245
18.137084,9.24702360024988,0.1128303193281131
18.139468,9.24707461379386,0.1126213193653604
18.141864,9.249267497711118,0.1123885198360665
18.144252,9.254765734986911,0.1121467032196252
18.146636,9.253326504463674,0.1119671328961897
18.149032,9.251235647634378,0.1117831222251086
18.15142,9.254219927484556,0.1115509636995956
18.1538,9.258554681775092,0.1112963448349339
18.156196,9.26223780975957,0.1110367417738445
18.158584,9.262056505878071,0.1108077410973634
18.16098,9.254006568637768,0.1106457381290226
18.163376,9.245956631397462,0.1104836015482518
18.165764,9.23669598934366,0.1103383892493599
18.168144,9.23195140546189,0.1101671400488366
18.170548,9.229208922326537,0.1099781174879322
18.172936,9.237268338856182,0.1096993843133754
18.175316,9.24518798575897,0.1094270821352004
18.177712,9.25082599266162,0.1091833908896006
18.180096,9.259816574751047,0.108900803649142
18.18248,9.274533919826006,0.1085768060317534
18.184884,9.282313797101931,0.1083114311419047
18.187272,9.293818336616974,0.1080225817946489
18.189652,9.304391710572236,0.1077406899412609
18.192048,9.311380191915246,0.1074781570415237
18.194436,9.320091234750953,0.1072086927469772
18.196816,9.330245299825634,0.1069434793965881
18.19922,9.33639516340748,0.1067126062750927
18.201608,9.345198754041803,0.1064708724007941
18.203988,9.358378633221298,0.1062114159055397
18.206384,9.375003635386186,0.1059388702211921
18.208772,9.399357501283022,0.1056104328635922
18.211152,9.423571597552996,0.1052881202836551
18.213552,9.450858729756026,0.1049409535978348
18.21594,9.475631904533444,0.1046016248093349
18.21832,9.496400877818028,0.1042948873611197
18.220724,9.51037215293044,0.1040394495915253
18.223112,9.52527459360263,0.1037799725088703
18.225492,9.545252170954289,0.1034796862851333
18.227888,9.56187717311918,0.1032169178705576
18.230276,9.573566808231456,0.1029917298715601
18.232656,9.591495063008455,0.1027390416209443
18.235052,9.606210512225545,0.1025183112317573
18.23744,9.62022711330833,0.1023230145487135
18.23982,9.634895340697174,0.1021324605931731
18.242216,9.6504947336458,0.1019370750097979
18.244604,9.667584370661638,0.1017175519519178
18.246988,9.68625679954332,0.1014969566140938
18.24938,9.700645487678443,0.1013183645078242
18.251768,9.710238578387814,0.1011712770382463
18.254152,9.719040273164271,0.1010246450615264
18.256548,9.726771032754083,0.1008897367186446
18.258936,9.733291087530404,0.1007698333897868
18.261332,9.736318797493082,0.1006904790660773
18.263728,9.742651860814291,0.1006060951470473
18.26612,9.75378052156126,0.1004916858043057
18.2685,9.768633844547336,0.1003575617670828
18.2709,9.780553901227222,0.1002437750953622
18.273288,9.78432578529458,0.1001944726731067
18.275668,9.792241640481627,0.1001109796477987
18.278064,9.805372401975015,0.0999837703299575
18.280452,9.815058040483006,0.0998667918456339
18.282832,9.829958585297325,0.0997070224319409
18.285228,9.847560078992366,0.0995092223879772
18.287616,9.866791586381485,0.099283322830349
18.29,9.884300532277909,0.0990624522565054
18.292396,9.900598773360832,0.0988574438379256
18.294784,9.918806567391558,0.0986150143543655
18.297164,9.939575540676138,0.0983397097532768
18.299564,9.962765923587716,0.0980357828611799
18.301952,9.987167011312795,0.097718674628009
18.304336,10.006912271238985,0.0974255149143394
18.306732,10.027076840045748,0.0971176833527352
18.30912,10.046869321800177,0.0967951855571953
18.311504,10.062285515009435,0.0964865919161829
18.3139,10.07691031228578,0.0961793987523528
18.316288,10.089672778442564,0.0958822870214497
18.318668,10.102994323106788,0.0955661547098124
18.321068,10.118597507771147,0.0952246905999886
18.323452,10.127402994263342,0.0949242694451518
18.325836,10.133694523329922,0.0946293795674323
18.328232,10.143059088329554,0.0943126517668292
18.330616,10.143623854410604,0.0940493625414078
18.333012,10.1406037278794,0.0937989224737328
18.335408,10.138374997281112,0.0935497762681217
18.337796,10.140430007429382,0.0932658756304449
18.340176,10.139971060152035,0.0929851462972293
18.342576,10.139092803994108,0.0927191851192574
18.34496,10.13742315190326,0.0924531788921816
18.347344,10.137615830931974,0.0921798846399953
18.34974,10.139019214774184,0.0918945413405807
18.352128,10.140562368243254,0.0916037671568497
18.354508,10.14503878801852,0.0912972986263781
18.356904,10.149654977420644,0.0909860887553214
18.359292,10.158694677196182,0.0906372093651157
18.361672,10.165872045852163,0.0902964929941538
18.364068,10.17346872338873,0.0899426582558055
18.366456,10.178504221671435,0.0896182488317147
18.368852,10.188475087006754,0.089266671542339
18.371248,10.203800628275268,0.088873129737934
18.373636,10.220429422155892,0.0884921669381464
18.376016,10.233985180103462,0.0881324122954562
18.378412,10.255689110663562,0.0877208368610248
18.3808,10.277904897902856,0.0873189530574607
18.383184,10.29639602290304,0.0869326905270335
18.38558,10.30580780973092,0.0866010080198879
18.387968,10.314800287678215,0.0862820498254988
18.390352,10.320999268946178,0.0859739424750919
18.392748,10.32584777577378,0.0856831586232135
18.395136,10.327763016295185,0.0854080765903172
18.397516,10.32474288976398,0.0851594264775333
18.399912,10.321722763232778,0.0849100331080082
18.4023,10.31376726964896,0.0846867547176809
18.40468,10.30846550311762,0.0844579534702277
18.40708,10.297389751772505,0.0842819363302271
18.409468,10.28631400042739,0.0841055218756736
18.411848,10.274027544268776,0.0839411208205827
18.414244,10.267235533670217,0.0837328828184613
18.416632,10.255647925645905,0.0835456243704214
18.419012,10.24257007355437,0.0833794224849917
18.42142,10.225907328850584,0.0832213842622368
18.423804,10.20845318821388,0.0830615333920433
18.426184,10.185644371643988,0.0829395081271668
18.428584,10.166839756566926,0.0827956917328058
18.430972,10.1484072285422,0.082666112654697
18.433352,10.137563794622562,0.0825065912885789
18.435748,10.127651526262705,0.0823435432005755
18.438136,10.11946181939554,0.0821783809969319
18.440532,10.111132342901517,0.0820174155672248
18.442928,10.102663096780631,0.08186062490892
18.44532,10.094845476965808,0.0817090745364276
18.4477,10.092614850509651,0.0815391528878608
18.4501,10.095319591106108,0.0813448506082489
18.452488,10.093228734276812,0.0811702905115172
18.454868,10.09570115744779,0.0809563540538734
18.457268,10.100967077298105,0.0807338311861323
18.459656,10.106744853827616,0.0805216938168128
18.462036,10.11089261666305,0.080335826978604
18.464436,10.118904811364455,0.0801341171998319
18.466824,10.125054674946304,0.0799380781640026
18.469208,10.130924999274432,0.0797504022978852
18.471612,10.138657654722117,0.0795568498425246
18.473996,10.1476010149833,0.0793510782769453
18.476376,10.149467137818595,0.0791835008056981
18.478772,10.1496106991612,0.0790166268138472
18.48116,10.148962864570878,0.0788487238163236
18.483544,10.151527835540476,0.0786591682920803
18.48594,10.156094907256488,0.0784601004387579
18.488324,10.16080174859936,0.0782563289848658
18.490708,10.163506489195816,0.0780619899336246
18.493104,10.169144496098468,0.0778547051673731
18.495492,10.171989006321786,0.0776570164699531
18.497872,10.16868744467899,0.0774933244100222
18.500268,10.168319149342391,0.077316599497024
18.502656,10.164598278819016,0.0771657741399896
18.505036,10.16073763866878,0.0770199092345861
18.507432,10.159438177772405,0.0768469868000368
18.50982,10.15427428501005,0.0766887560199227
18.5122,10.142824550754728,0.0765681940377296
18.514596,10.13509947873852,0.076437021583799
18.516984,10.129236737841866,0.0763003758377163
18.519368,10.12709865918433,0.0761538271889777
18.521764,10.125612206832852,0.0760134269848053
18.524152,10.13013205672062,0.0758442410313272
18.526532,10.138656108101223,0.07565586083319
18.52894,10.14624899392205,0.0754705747369569
18.531324,10.152770944556238,0.0752931113303979
18.533708,10.154217758510953,0.0751411015483237
18.536104,10.157526903585223,0.0749842962285408
18.538492,10.16777351645852,0.0747977460423857
18.540876,10.181093165264876,0.074596760499276
18.543272,10.192131174071095,0.074413751996126
18.54566,10.21103781623612,0.0741991141398101
18.54804,10.231667019893845,0.0739851419321789
18.550436,10.2563004250444,0.0737537487724279
18.552824,10.276278002396063,0.0735341441662421
18.55522,10.29290300456095,0.0733394581360107
18.557616,10.312601042658892,0.0731288878595743
18.560004,10.34258912374264,0.0728667709679059
18.562388,10.372577204826388,0.0726064894377986
18.56478,10.404707156283417,0.0723345126634556
18.567168,10.429899639941413,0.0720913722559489
18.569548,10.456302828412907,0.0718383955457342
18.571944,10.48256624725754,0.0715914583662903
18.574332,10.509621062035094,0.0713481391024603
18.576716,10.537327503118709,0.0711119706113322
18.579112,10.561821138642404,0.0708947413855164
18.5815,10.591250141218708,0.0706588355925643
18.58388,10.620679143795016,0.070424054425304
18.586276,10.646755571184546,0.0702138281213539
18.588668,10.666685926707965,0.0700330383686114
18.591048,10.687826987044886,0.0698419862970931
18.593444,10.706965946635387,0.0696606826206144
18.595836,10.723031870292836,0.0694937496640734
18.598216,10.739609650629484,0.0693383192450553
18.60062,10.757770222831963,0.0691868188449254
18.603008,10.77872429171378,0.0690300066559504
18.605388,10.804613727648208,0.0688572659184439
18.607788,10.824217322089666,0.0687175499290711
18.610176,10.839956484665148,0.0685893025944579
18.612556,10.854764481680856,0.0684636671865986
18.614952,10.874647615376034,0.068317294027285
18.617344,10.895322145004128,0.0681741363684633
18.619724,10.91334294757975,0.0680327091440215
18.62212,10.934436786088424,0.0678798952102172
18.624512,10.955018767917904,0.0677174789251656
18.626892,10.978673785680437,0.067542249784456
18.629288,11.001816946763771,0.0673580870953917
18.631676,11.026031043033743,0.0671695077310101
18.63406,11.049733282624524,0.0669712477418722
18.636456,11.07357529184216,0.066768358621918
18.63884,11.09662590512688,0.0665634420357099
18.641224,11.116091625799346,0.0663612975604187
18.64362,11.13797875609881,0.0661407792398979
18.646008,11.155769137106825,0.0659127783969797
18.648388,11.17705186292847,0.0656614342515491
18.650784,11.196239940205084,0.065395973598669
18.653172,11.207838923376611,0.0651470619555768
18.655568,11.217994884309164,0.0648892448126595
18.657968,11.22950131968208,0.0646179981685184
18.660356,11.241287294308709,0.0643400739796892
18.662736,11.24762604520353,0.0640664559787263
18.665132,11.2515906082996,0.0637858607118937
18.66752,11.255834710649388,0.0634974497356868
18.669904,11.252769258147808,0.0632162996720202
18.6723,11.247981244153536,0.0629335474459582
18.674688,11.242029747174008,0.0626341989343214
18.677072,11.237288955007974,0.062326981877148
18.679468,11.231105140602969,0.0620113223868201
18.681856,11.2254804047054,0.0616806787949683
18.684236,11.225629653621604,0.0613149591011634
18.686636,11.230202412911227,0.0609274096678876
18.689024,11.23919868257426,0.0605177981735423
18.691404,11.247403556304375,0.0601064760280342
18.693804,11.260031940407906,0.0596737975634668
18.696192,11.27186892857852,0.0592404201575143
18.698572,11.28556824786869,0.058806432321776
18.700972,11.301409437532136,0.0583626871743377
18.70336,11.318181792755365,0.0579178527983344
18.705744,11.337096018351865,0.0574651384128728
18.70814,11.351866272828676,0.0570266341551472
18.710532,11.370361189544598,0.0565844927978183
18.712912,11.38750563182016,0.056153881614297
18.715312,11.40423076521514,0.0557344276442901
18.7177,11.42160752491618,0.055320794354915
18.720084,11.440427306856195,0.0549170285580195
18.722484,11.46069011103519,0.0545243395342653
18.724872,11.472385433721074,0.0541656316478111
18.727252,11.478865850100624,0.0538239126594789
18.729656,11.48185392166654,0.0535022029313923
18.73204,11.480930339538236,0.0532129842059118
18.73442,11.471439275916827,0.0529571697754793
18.736824,11.45910749378784,0.0527285133602012
18.739208,11.446635942031994,0.0525034272662041
18.741588,11.427179700648876,0.0523171573508035
18.743984,11.404231114452118,0.0521500207427186
18.746372,11.376439709001367,0.0520133679025627
18.748752,11.349160160229816,0.0518867517571665
