Time,Force,Position
22.910644,8.135098111834548,0.1549951691656671
22.913036,8.158979759448952,0.1548320463052932
22.915416,8.187005378183049,0.1545992745609099
22.917815999999995,8.219407285462319,0.1543252600385847
22.920207999999995,8.255673624607564,0.1540033327791559
22.922588,8.30372025080583,0.1534890588269444
22.924983999999995,8.353164573272696,0.152903338523707
22.927372,8.39124981342499,0.1524098903928144
22.929752,8.418068519061325,0.1520360850350234
22.932151999999995,8.451405383616109,0.1515950377658746
22.93454,8.492004581194019,0.1511019147540852
22.93692,8.533255405077982,0.1506026019824722
22.939316,8.575297624894867,0.1500969332939452
22.941704,8.622135442137504,0.1495375033312491
22.944088,8.678145145351063,0.148882263639285
22.946484,8.732477613042297,0.1483087677246229
22.948872,8.791605678159288,0.1476744169041346
22.951252,8.856694719545153,0.1468939537746184
22.953652,8.909865600109004,0.146220798899736
22.95604,8.956518321754407,0.1456356683070657
22.95842,9.00754733194498,0.1450188810722588
22.96082,9.05527098877702,0.144424673914433
22.963208,9.097362326280017,0.143833997216878
22.965592,9.134705288185502,0.1432761671398886
22.967988,9.169906379717716,0.1427587061410841
22.970376,9.19304764494318,0.1424319793080999
22.97276,9.217911471661344,0.1420924307092178
22.975156,9.239842032073312,0.141785396003729
22.977543999999995,9.258047930246168,0.1415172112966931
22.979928,9.267965886179637,0.1413654104126603
22.982327999999995,9.286543871404827,0.1411196311010797
22.984716,9.311267928496132,0.1407938454605332
22.987096,9.338600386669537,0.140391331114899
22.989495999999995,9.35573724551362,0.1400618997770615
22.991884,9.363702218386784,0.1398214351209492
22.994268,9.368781146781997,0.1395825971221506
22.996668,9.375210549617565,0.1393190816106315
22.999056,9.380708786893356,0.1390665618296616
23.001439999999995,9.38597470674367,0.1387925245208129
23.003836,9.38723642510115,0.1385660100281786
23.006224,9.385377885697332,0.1384099859629043
23.008607999999995,9.387895634838683,0.1382206431027603
23.011008,9.391344549539816,0.1380217292051057
23.013396,9.393350442001973,0.137824145867959
23.01578,9.392934924837128,0.1376676061195077
23.018176,9.399828962523657,0.1374457325076459
23.020564,9.408585331329736,0.1372074562761951
23.022948,9.42311568494959,0.1368798056865169
23.025344,9.43820511707688,0.1365278739662873
23.027732,9.455715958831176,0.1361363175401046
23.030116,9.466568872040158,0.1358173094429966
23.032512,9.477561554876004,0.1354955957147
23.0349,9.4813372306591,0.1352605569104193
23.037284,9.484833367188475,0.1350346948551885
23.039684,9.49391649707652,0.1347582654034013
23.042072,9.5158961751746,0.134373609299676
23.044456,9.534103969205326,0.1340541937531268
23.046852,9.546025921743077,0.1338116072356458
23.04924,9.564977889878474,0.1335199270953687
23.051624,9.589656620999405,0.1331736266367389
23.05402,9.614662113202296,0.1327876769487532
23.056408,9.636222482419797,0.132424711666509
23.058788,9.655640981264018,0.1320873729691521
23.061188,9.670775739361687,0.1318035189314077
23.063576,9.687540511153438,0.1314847507481166
23.06596,9.702210634400153,0.1311655027648554
23.068356,9.711153994661336,0.1309005821119448
23.070744,9.713392204548969,0.1307277393218025
23.073128,9.716933667048718,0.1305602387860378
23.075524,9.718984885481246,0.1304232428019694
23.077912,9.71875446391364,0.1303191247284162
23.080296,9.717033798278813,0.1302451053917158
23.082696,9.719549651562296,0.1301469348856538
23.085083999999995,9.728583663764228,0.1299922054202344
23.104212,9.662716497450528,0.1299789096193858
23.106608,9.656944408494622,0.1299766966479096
23.108996,9.660623744763363,0.1298915875845208
23.111396,9.66523424659188,0.1297994282917415
23.113783999999995,9.670775913980178,0.1297002819607781
23.116172,9.681904574727142,0.1295556622519226
23.118572,9.701833034392694,0.1293269546470012
23.12096,9.723763594804662,0.1290784331291328
23.123348,9.744810211485094,0.1288081478703003
23.125748,9.764833114807132,0.1285209795413665
23.128136,9.782202291076691,0.1282514640862873
23.130524,9.79864030178648,0.1279891149074589
23.13292,9.81363529025729,0.1277277817017814
23.135312,9.83067960130276,0.1274177652306886
23.137708,9.848655077908006,0.1271007138669754
23.140108,9.872357317498786,0.1267350925018763
23.142496,9.90406796007523,0.1262897760970523
23.144896,9.940202113025087,0.1257894165421637
23.147292,9.968886941496718,0.1253476526461667
23.149684,9.993847107729236,0.1249353596453837
23.15208,10.018015878028836,0.1245266704122026
23.15448,10.042092100529825,0.1240967485333323
23.156868,10.057415745940466,0.1237197655821998
23.159268,10.064917979820542,0.1233859846099848
23.161672,10.07083742183478,0.1230574742008303
23.16406,10.071821496796414,0.122774696155127
23.16646,10.06828951358601,0.1225229132325928
23.168864,10.061871485897656,0.1222682856559569
23.171252,10.057735098209438,0.1219845209511195
23.17366,10.052108466454005,0.1217271796144523
23.176052,10.047552769885206,0.1214572038174653
23.178448,10.045837791823988,0.1211375835149675
23.180848,10.041608856337152,0.1208282780447837
23.183236,10.034958511223325,0.1205532486993929
23.185632,10.026445834989932,0.1202914270566076
23.188028,10.01299779170393,0.1200737399904764
23.190416,9.993031589499484,0.1199028904534611
23.192816,9.968130020242423,0.1197751723299521
23.195212,9.947232652478196,0.1196099334199291
23.1976,9.929128781393304,0.1194239552539608
23.199984,9.911164679935276,0.1192323909005943
23.20238,9.885983571424491,0.119112749674596
23.204768,9.865737829966324,0.1189483930714122
23.207152,9.852941412986382,0.1187296584493614
23.209548,9.835861255259884,0.1185576766538185
23.21194,9.820922967906665,0.1183614326755429
23.21432,9.804913745366806,0.1181764910552842
23.216719999999995,9.792349645812342,0.1179746394624975
23.219108,9.7769448277503,0.1178219033469108
23.221492,9.768757016741004,0.1175970575335481
23.223887999999995,9.763222932784185,0.1173578578116711
23.22628,9.754336273640591,0.1171584250787785
23.22866,9.748894737482388,0.1169433433856507
23.23106,9.744663906137689,0.116711490160198
23.233448,9.744437276285815,0.1164440827808607
23.235831999999995,9.747283682367,0.116147433695017
23.238228,9.752783815500662,0.1158362153593907
23.240616,9.762148380500298,0.1154941932155899
23.242999999999995,9.776308542925683,0.1151177722044788
23.245396,9.792470806097484,0.114725642371673
23.247788,9.809424465202206,0.1143338238136607
23.250172,9.834758614344931,0.1138851741290074
23.252568,9.858462749793578,0.1134697978607326
23.25496,9.879745475615229,0.1130888064282017
23.25734,9.90503240292971,0.1126720094437736
23.259736,9.934323531737023,0.1122235793618618
23.262128,9.96519745241018,0.1117727474789049
23.264508,9.992858567523417,0.1113566764109612
23.266908,10.021730387450152,0.1109244111280886
23.269296,10.045247531443692,0.1105498944447804
23.27168,10.066762574690818,0.1101939168194601
23.274076,10.0918625105502,0.1098202803199362
23.276468,10.113889410476526,0.1094751911252982
23.278848,10.13456583596249,0.1091510761757114
23.281244,10.1509585207019,0.108870642385271
23.283636,10.166280270254672,0.108602029773722
23.28602,10.18653738686006,0.1082978319054404
23.288416,10.20786543865208,0.1079853527650224
23.290804,10.224909749697549,0.1077166415393142
23.293188,10.23981219036974,0.1074698077519523
23.295587999999995,10.254574861415067,0.1072288951364564
23.297976,10.270036380594702,0.1069666612216769
23.30036,10.286708604587831,0.1066904033615655
23.302755999999995,10.306593634140878,0.1063858736393994
23.305144,10.33006355630618,0.106067551179086
23.307528,10.350320672911565,0.1057807906184253
23.309923999999995,10.373790595076866,0.1054666171746946
23.312316,10.398471222055663,0.1051382804469023
23.314696,10.425573258661462,0.1047834546240213
23.317116,10.453746230453897,0.1044190636282855
23.319503999999995,10.48163966299261,0.1040642976642918
23.321888,10.508881469225264,0.1037075618565331
23.324288,10.540267246577615,0.1033192169208978
23.32668,10.57672816060944,0.1028953340886155
23.329063999999995,10.617053506507236,0.1024482000331135
23.33146,10.660172349084364,0.1019898414839668
23.333848,10.695562327929547,0.1015810677609501
23.336231999999995,10.726808335655038,0.1012057230908424
23.338628,10.759404817820888,0.1008135040833935
23.34102,10.79493456629293,0.1004052960425199
23.343399999999995,10.829812688458915,0.0999944016965651
23.345796,10.86026730025149,0.0996264484134268
23.348188,10.888719811297646,0.0992728609698925
23.350568,10.915961617530302,0.0989356841136817
23.352968,10.937756200031147,0.0986220825445099
23.35536,10.959690552158854,0.0983047063050025
23.357744,10.980414199473064,0.0980029927609214
23.36016,11.00178947309333,0.0977065763595479
23.362548,11.022605668206156,0.0974299025460527
23.364932,11.044632568132478,0.0971413598719308
23.367332,11.066287381006465,0.0968397896365677
23.369724,11.083658453133896,0.0965721664412086
23.372104,11.096094158208714,0.0963348611713362
23.3745,11.101312856230786,0.0961485538068555
23.376888,11.100944560894186,0.0959867836729642
23.379272,11.096711833691614,0.0958460298220775
23.381668,11.095412372795238,0.0956883984727601
23.384056,11.098117113391694,0.0955059171495906
23.386436,11.099471379547794,0.0953407412289374
23.388832,11.09481934346464,0.0952127257353363
23.39122,11.088537293687406,0.0951101762682647
23.393604,11.07932197760398,0.095023774917684
23.396,11.071968992640109,0.0949292054963584
23.398388,11.060891345437124,0.0948506356994405
23.400772,11.051536259726836,0.0947681492432951
23.403168,11.04097046920305,0.094698166014343
23.40556,11.02654024681329,0.0946483537633832
23.40794,11.012389563677248,0.094589707511403
23.41034,10.995165844608152,0.0945513934987058
23.412728,10.97351861516564,0.0945502594741872
23.415108,10.954525112775606,0.0945410252615944
23.417516,10.943679782998098,0.094478912387186
23.419903999999995,10.93362584915351,0.0944170611294534
23.422287999999995,10.92999752642875,0.094306190593763
23.424684,10.931956197062664,0.0941719853877363
23.427071999999995,10.933635328442854,0.094046176939088
23.429455999999995,10.935454229449904,0.0939162395037881
23.431864,10.93340869859098,0.0938059716199523
23.434252,10.931642706985778,0.0936871746677544
23.436632,10.932298125007575,0.0935432567962104
23.439028,10.93472332635031,0.0933697659235398
23.441416,10.943294599559156,0.0931561264527823
23.4438,10.95214541202172,0.0929347136589471
23.446196,10.963138094857564,0.0926971775895392
23.448584,10.97627264806668,0.092444590832709
23.450968,10.99168884127594,0.0921722423804049
23.453364,11.00752434336578,0.0918864206566467
23.455752,11.019774952843363,0.0916111629390433
23.458136,11.031653475268612,0.0913219794828814
23.460532,11.049166212880776,0.0909845998766105
23.46292,11.062162892320904,0.0906616431457982
23.465304,11.068361873588866,0.0903740602650619
23.4677,11.07390922855077,0.0900810035049716
23.470092,11.071867489407586,0.0898207761654297
23.472472,11.069453663212064,0.0895479571611744
23.474872,11.068949389964342,0.0892419523554999
23.47726,11.066443015970204,0.0889468892238964
23.479644,11.0691515482824,0.0886181783406168
23.48204,11.071348223915397,0.0882804129789092
23.484428,11.07354489954839,0.0879424733067847
23.486812,11.076812510368024,0.0875978408007898
23.489211999999995,11.077286624508323,0.0872638782848477
23.4916,11.07603817715593,0.0869326744499138
23.493984,11.074789729803534,0.086601766804656
23.496379999999995,11.069816620212023,0.0862839843164715
23.498768,11.064983280247375,0.0859627521429224
23.501148,11.062152041029146,0.0856307934892637
23.503547999999995,11.065187334423303,0.0852722763093114
23.505936,11.066080757444182,0.0849267614684313
23.50832,11.063621605278287,0.0846076790414487
23.510715999999995,11.067028985724784,0.0842624451680768
23.513107999999995,11.070296596544418,0.0839204342114152
23.515488,11.077708178483746,0.0835545197849037
23.517888,11.090566984154886,0.0831739502646009
23.520276,11.103146250572305,0.0828032819188472
23.522659999999995,11.115026668855425,0.0824540018314384
23.525056,11.130631749377654,0.0820936624339772
23.527448,11.13701772210072,0.0817835424957909
23.529832,11.14377578187612,0.0814872045462552
23.532228,11.15304779907714,0.081191199305723
23.53462,11.15775653627788,0.0809309192076382
23.537,11.165258770157958,0.0806629225603843
23.539396,11.172481464784315,0.0804030948628706
23.541784,11.176211814597035,0.0801714805096441
23.544168,11.182595891462231,0.0799358272316937
23.546564,11.185767162767512,0.0797207406102753
23.548952,11.190241686684908,0.079517166067031
23.551336,11.189081995415393,0.0793557240708031
23.553732,11.195651167877822,0.0791651388018555
23.55612,11.206364311459945,0.0789526766669465
23.558504,11.214516275788212,0.0787666989974786
23.5609,11.227603607169089,0.0785604852789862
23.563288,11.240131860042528,0.078371591943542
23.565672,11.252660112915963,0.0781834671005667
23.568068,11.26383789134904,0.0780102001281158
23.570456,11.27608660496876,0.0778310207504862
23.57284,11.284331117095642,0.0776696347467475
23.575236,11.301654967394832,0.0774666251267251
23.577624,11.319770213626937,0.0772656383401716
23.580003999999995,11.334300567246794,0.0770706259626633
23.582404,11.354837223105898,0.0768498291453542
23.584792,11.373232008591726,0.0766425996005822
23.587171999999995,11.392138650756753,0.0764449059202042
23.589572,11.416260199228107,0.0762198240796665
23.59196,11.43823987732619,0.0760076733277453
23.594344,11.461942116916967,0.0757947131011607
23.59674,11.481128298335712,0.0755894212748631
23.599128,11.503806824568091,0.0753576274681076
23.601512,11.521549983747864,0.0751463262597506
23.603912,11.533007301434662,0.074968486342553
23.6063,11.541671122442123,0.0747973109852239
23.608684,11.54232654046392,0.0746595294712411
23.611084,11.54111962736616,0.07452646385941
23.613472,11.538702009454902,0.0744035430063838
23.61586,11.534422060424086,0.0742848218035576
23.618255999999995,11.532004442512829,0.0741621454966637
23.620648,11.532799630161486,0.0740213306495268
23.623028,11.527169206690312,0.0739166436234425
23.625428,11.52060761765936,0.0738141345990966
23.627816,11.519912561240798,0.0736914722759259
23.630204,11.515353072956264,0.0735811546864933
23.6326,11.511724750231505,0.0734688683491174
23.634992,11.507584570827548,0.0733470066483306
23.63738,11.502652995490674,0.0732235989599233
23.639776,11.501865391273492,0.0730809988654216
23.642164,11.50349919668331,0.0729195869099404
23.644556,11.51099953470552,0.072739112299594
23.646952,11.514495671234894,0.0725738901548363
23.649344,11.51799180776427,0.0724085170209097
23.651732,11.529636116906172,0.0722094672861022
23.654128,11.54263090048843,0.0719969113711906
23.65652,11.563773856683218,0.0717502723534644
23.658904,11.586127517691509,0.0714950117876341
23.6613,11.609040257207235,0.0712252229896918
23.663692,11.636096967842654,0.0709373140447994
23.66608,11.652491548439937,0.0706799187949681
23.668476,11.668746359410358,0.0704273583729761
23.670864,11.692357947060389,0.0701402117718162
23.673264,11.71601675653866,0.0698291556518125
23.67566,11.731667163031265,0.0695477583351202
23.678052,11.747736878404451,0.0692551597359548
23.680448,11.766367773031492,0.0689422774558204
23.682848,11.788071703591593,0.0686180077751879
23.685236,11.808053072658996,0.0682942343881632
23.687636,11.822307678740865,0.0679845151906839
23.690031999999995,11.83642251519588,0.0676802825325163
23.69242,11.84602129347886,0.0673810032313255
23.69482,11.863488705120648,0.0670595902830137
23.697224,11.883237756762572,0.0667248326877474
23.699608,11.894326779112772,0.0664116254211479
23.702003999999995,11.909280233328944,0.0660902170854614
23.704408,11.921020881985203,0.0657852865884034
23.706796,11.930899199521903,0.0654836746746213
23.7092,11.941429143364662,0.0651887086079239
23.711592,11.948234424968309,0.0648995661959103
23.713988,11.965189979930898,0.0645744319910613
23.716387999999995,11.980283203773933,0.0642524419923988
23.718776,11.988578729444797,0.06394752872142
23.721172,11.99575609810078,0.0636714420296507
23.723572,12.009731164928931,0.063379418866026
23.72596,12.02635995880956,0.0630882568602892
23.728356,12.034561040823938,0.0628319626007658
23.730751999999995,12.038618151718625,0.0625915242103089
23.73314,12.042395723359585,0.0623581981776119
23.735524,12.050037726866524,0.0621166199554318
23.737924,12.052604593693989,0.0618914987733585
23.740312,12.057545648320206,0.061673856410699
23.742695999999995,12.054757839214478,0.0614726739263782
23.745092,12.052761426041668,0.0612745901030304
23.74748,12.055560610294611,0.0610674382763748
23.749863999999995,12.053284657868083,0.0608763856358126
23.752264,12.053290345441692,0.0606731440429522
23.754652,12.055018594508,0.0604716557292675
23.757031999999995,12.055024282081604,0.0602687433818198
23.759432,12.056752531147907,0.0600673387548219
23.76182,12.05941194577399,0.0598661572921037
23.764204,12.062071360400072,0.0596648482288153
23.7666,12.06766404133235,0.0594571868274418
23.768992,12.072884635212294,0.0592360142933537
23.771372,12.07372894054706,0.0590125087378821
23.773772,12.070569044388996,0.0587994260996083
23.77616,12.071553119350629,0.0585716278900307
23.778544,12.075470460618453,0.0583378812295124
23.780944,12.08218129856561,0.0581021891037338
23.783332,12.08675026613949,0.057875308107613
23.785712,12.094811578527008,0.0576284145777487
23.788112,12.099148228675414,0.0573843179548443
23.7905,12.105347209943377,0.057138235909098
23.792884,12.108752694532004,0.0568948468955506
23.79528,12.108153977627795,0.0566610765966827
23.797672,12.110628296656646,0.0564182529100518
23.800056,12.112171450125716,0.0561769940459624
23.802451999999995,12.110921106915448,0.0559376354440559
23.80484,12.109391224451462,0.0557050105432993
23.807224,12.10706994605456,0.0554694864892592
23.809632,12.09646072541827,0.0552592338459433
23.81202,12.087993375155255,0.0550408747831594
23.814404,12.08045719045202,0.0548221513852003
23.816804,12.077716603174537,0.0545976161944056
23.819192,12.076558807762888,0.05437879716896
23.821572,12.076611717164738,0.0541522203660572
23.823968,12.078806496939864,0.0539180446205238
23.82636,12.081420585595572,0.0536742254028055
23.82874,12.077516515332832,0.0534329768865018
23.83114,12.074823149883592,0.0531843727002856
23.833528,12.071570705926913,0.0529496533700747
23.835908,12.072322463463063,0.052706361075645
23.838308,12.072934451372356,0.052466276355226
23.8407,12.071264799281511,0.0522365959451342
23.84308,12.071597247937085,0.052002210284061
23.845476,12.064992228793622,0.0517796509408191
23.847868,12.053032533716976,0.0515754294680951
23.850252,12.039862133826826,0.0513776168788096
23.852647999999995,12.027622899496452,0.0511793074081443
23.855036,12.01696645703192,0.0509873124395686
23.85742,12.012316316806634,0.0507827034975293
23.859815999999995,12.004313601394577,0.0505926212393141
23.862207999999995,11.994169015609238,0.0504099247004546
23.864588,11.980671854637126,0.0502420484710127
23.866988,11.966895154411294,0.0500809925516711
23.869375999999995,11.954701246051297,0.0499263273806068
23.871764,11.939806388810585,0.049792589677545
