Time,Force,Position
20.163752,7.781350388024531,0.1594409501897391
20.166144000000003,7.785075050263646,0.1593911782055964
20.168532,7.797739281048203,0.1591991464951699
20.170928,7.816083052990048,0.1589684123403236
20.173324,7.847368699112305,0.1586452962449583
20.175712,7.892202519750656,0.1581529688314937
20.178092,7.940483359232268,0.1575111124055565
20.180496,7.966603216734304,0.1571276816920988
20.182884,7.996959593154651,0.1567175502796248
20.185264,8.037651338531177,0.1562193421147081
20.187664,8.094080350625317,0.1554902318614161
20.190048,8.163453132757738,0.1545482154570056
20.192432,8.227378691158348,0.153664644403566
20.194828,8.286601199931823,0.1528838222740786
20.197216,8.353877437661339,0.1520692682174366
20.199596,8.442151174385177,0.1510247534238187
20.201992,8.531356076668791,0.1499648515429865
20.20438,8.612367480369503,0.1489781863917613
20.206760000000003,8.679598392128648,0.1481500976112369
20.209156,8.746317447208591,0.1473253507248347
20.211544,8.808101135235924,0.1465645245695746
20.213928000000003,8.854986174306802,0.1459675183493471
20.216324,8.897961455541335,0.1453626340424926
20.218712,8.927016475207436,0.1448934179922368
20.221092,8.94876194002217,0.1445127368926114
20.223488,8.969808556702601,0.1441659658351726
20.225876,8.993321908980404,0.1438329092823328
20.228272,9.026054369057375,0.1433597045522802
20.230668,9.047520294618389,0.1429932082163831
20.233056,9.0581843205144,0.1427705298180469
20.235436,9.067263658686706,0.1426505222484099
20.23784,9.072059256112455,0.1425947369106134
20.240228,9.079183715366588,0.1424673321605613
20.242608,9.09040681977004,0.142224018826169
20.247392,9.08012246435784,0.1420899449474384
20.256936,9.021564852895509,0.1420857861187933
20.259332,9.009416270505884,0.1420612771466033
20.26172,9.020314509685244,0.1417810144884801
20.2641,9.027348316998628,0.1415429810171196
20.266496,9.039317491364624,0.1412446640770952
20.268884,9.045792220170568,0.1410290113024151
20.316684,8.786101126556737,0.1409572815130736
20.319072,8.777210675697402,0.140942870571546
20.321456,8.770834182263684,0.1409116713876759
20.323852,8.775352136293586,0.1407803047869539
20.32624,8.789414063346744,0.1405745191578865
20.32862,8.80650180450472,0.1403604775790351
20.331016,8.830899100514058,0.140079535296597
20.333404,8.854225461336759,0.1398149793919452
20.335788,8.878203448465518,0.1395525935642179
20.338184,8.907069580818646,0.1392600739906756
20.340572,8.94324526802314,0.1388963395164392
20.342952,8.98221445190697,0.1385068647263475
20.345348,9.019600843924964,0.1381271411294689
20.34774,9.056056070383178,0.1377578186482224
20.35012,9.085573829042364,0.137472532549199
20.352516,9.119515098074965,0.1371223668306941
20.354904,9.151873575241726,0.136781103707413
20.357284,9.185582526848853,0.1364145377398126
20.359684,9.219151708829116,0.1360551951531077
20.362072,9.254163913048354,0.1356954612205852
20.364452,9.290898678760287,0.1353280781901985
20.366848,9.327773214099082,0.1349630262357902
20.369236,9.359060756079208,0.134652920246076
20.371632,9.384761304700664,0.1343969176847606
20.374032,9.409810227016065,0.134140631132289
20.37642,9.437280558958458,0.1338470111090999
20.378804,9.45720901862401,0.1335985507079251
20.3812,9.479419118289698,0.1333183714357252
20.383588,9.50563341944822,0.1329960444205818
20.385972,9.535340065420378,0.1326228725932351
20.388372,9.564302537287862,0.1322262515199374
20.39076,9.587865007251777,0.1318439544853558
20.39314,9.609704915723,0.1314724938856017
20.395536,9.62940295382094,0.1311267117020458
20.397928,9.652965423784858,0.1307417484764797
20.400308000000003,9.6738741666963,0.1303788437745672
20.402712,9.69254849143585,0.1300183126153995
20.4051,9.705356283563008,0.1297156389990559
20.40748,9.717093140503527,0.1294264352164849
20.409876,9.726967666324487,0.1291531173231914
20.412264,9.73260567322714,0.1289046791674167
20.414644000000003,9.728932024532009,0.1287360522996863
20.41704,9.726189541396655,0.128559067424535
20.419428,9.726240554940636,0.128358085271507
20.421808,9.721635740685729,0.1281967925247392
20.424204,9.71000091083317,0.1280826684821268
20.426592,9.699297246540391,0.1279601629498522
20.440928,9.579945709585964,0.1278827516952875
20.443308,9.563932695330369,0.1278792907855711
20.445704,9.547547594022436,0.1278614335059331
20.448092000000003,9.528648535288887,0.127855306948852
20.450472,9.511472038048035,0.1278388646395404
20.452868,9.500162073419574,0.1277657189956497
20.455256,9.491133748791247,0.1276608326322787
20.457636,9.484946142670504,0.1275027963717299
20.460032,9.47768760136312,0.1273574059628127
20.46242,9.476947218974182,0.1271582736708567
20.464816,9.477138002145022,0.1269514324407505
20.467212,9.478399720502503,0.1267324156033692
20.4696,9.484596805912595,0.1264648648728019
20.471984,9.49530994949472,0.1261644045271371
20.47438,9.50639518012918,0.1258780681006245
20.476768,9.512265504457307,0.12565051985022
20.479148,9.520277699158717,0.1253959366375559
20.481544,9.528429663486984,0.1251356968073128
20.483932000000003,9.537792332628747,0.1248562936064355
20.486312,9.54478081397176,0.1245839443244975
20.488708000000003,9.55125743863557,0.1243027472129355
20.491096,9.55442870994085,0.1240358148036592
20.493476,9.55746021161927,0.123774713765645
20.495876000000003,9.563936836283084,0.1234949271349252
20.498264,9.572136022439594,0.1232067651165391
20.500644,9.580474978222965,0.1229145327683166
20.50304,9.58960532993925,0.1226220638634792
20.505428,9.594172401655262,0.1223904918992543
20.507824,9.600601804490832,0.1221441612134305
20.51022,9.603446314714146,0.1219216683674138
20.512608,9.60256616269835,0.1217273588313874
20.514988,9.601034384376495,0.1215302566529471
20.517384,9.598571440494863,0.1213408775040598
20.519772,9.595596639934037,0.1211428989215334
20.522156000000003,9.590247651574453,0.1209496246728675
20.524552,9.58904263433456,0.120711520611922
20.52694,9.5918418185875,0.1204354124666023
20.52932,9.599576369893054,0.1201154798762308
20.531716000000003,9.609173252318165,0.1197823123121735
20.534104,9.62263456660925,0.1194181117594213
20.536488,9.63888937757967,0.1190347901001647
20.538884000000003,9.65565604522929,0.1186596701913188
20.541272,9.668278741759211,0.1183260957943716
20.543656,9.675174675303609,0.1180382160889262
20.546052,9.680487816982165,0.1177544820250153
20.548436,9.681796757167886,0.1175079921940624
20.55082,9.680312200674274,0.1172820704675386
20.553216,9.682180219367442,0.117014551599677
20.555604,9.683256842127689,0.1167484536853476
20.558,9.68633556563435,0.1164635554724013
20.560396,9.6982140880596,0.116104102190745
20.562784,9.703666999365018,0.1158147464857279
20.565164000000003,9.706326413991098,0.1155453663472289
20.56756,9.709637454923238,0.1152805742831036
20.569948,9.721468755520243,0.1149534611544005
20.572332000000003,9.735162387236803,0.1146149382599811
20.574728,9.741778781527476,0.1143420761454732
20.577116,9.741038399138544,0.1141453852391419
20.579496,9.740018477495887,0.1139594414965377
20.5819,9.734063188800617,0.113815429591862
20.584288,9.726245568985789,0.1136839859843433
20.586668,9.720569819544242,0.1135298642199773
20.589064,9.721971307528582,0.1133119113667375
20.591452,9.730170493685094,0.1130404633190971
20.593836,9.734877335027964,0.1128124855839174
20.596232,9.74316906898309,0.1125645031351389
20.59862,9.74917916293808,0.1123434812548633
20.601,9.756632279132049,0.112126283271649
20.6034,9.766599352751625,0.1119014074158451
20.605788,9.777078283050402,0.1116864164717934
20.608168,9.782202537415984,0.111528582033599
20.610572,9.792262158834184,0.1113292877564876
20.61296,9.802693867304718,0.1111437152875962
20.61534,9.810843935775116,0.1109858472757958
20.617744,9.807121169393872,0.1109263784445944
20.620132,9.801256532639348,0.1108891160099046
20.622512,9.801118658870358,0.1108105545962097
20.624912,9.8049849865942,0.110697427577715
20.627296,9.804055716892291,0.1106194742818648
20.62968,9.802707138309804,0.1105566594091387
20.632076,9.801870416406512,0.1105031841363714
20.63924,9.789906929614125,0.1104918569090952
20.641628,9.787952050695948,0.1104793031797747
20.644012,9.785066006217995,0.1104726566083192
20.646408,9.787906724725577,0.1104254321646888
20.648796,9.790747443233156,0.1103784967459624
20.651176,9.791725830621177,0.1103433839563762
20.653572,9.793635383568976,0.1103026220818971
20.65596,9.795684706143634,0.1102568802919954
20.658344,9.79973612946471,0.1101948346329497
20.66074,9.80886268946526,0.1100896483814886
20.663128,9.819851580585365,0.1099730492033306
20.665508000000003,9.839640270624056,0.1097894390984398
20.667908,9.861291291782305,0.1095952338151711
20.670292,9.882011147380776,0.1094078771943393
20.672676000000003,9.902870772606104,0.1092165559862839
20.675072,9.929317391190104,0.1089907322607746
20.67746,9.959768211266937,0.1087323890966748
20.679844000000003,9.987425534664435,0.1084906364704703
20.68224,10.014571001382736,0.1082413632733962
20.684628,10.044929273660951,0.1079622856591372
20.687012000000003,10.078640121125945,0.1076477174325994
20.689408,10.10969724153846,0.1073472313122404
20.691796,10.145038102697534,0.1070085255754222
20.694180000000003,10.175583366430851,0.1067024603245866
20.696576,10.20161257199214,0.1064186906306923
20.698964,10.229783647926704,0.1061159826342393
20.701348000000003,10.257303097555214,0.1058109395641067
20.703748,10.287104187183855,0.1054826711874193
20.706136,10.317184816066222,0.1051477706396077
20.708516000000003,10.342749386776555,0.1048361514079938
20.71092,10.370875136740748,0.1044931975007556
20.713304,10.39848903002574,0.104144629067258
20.715688,10.425870605885258,0.1037802242698431
20.71808,10.453951029879075,0.103394704667947
20.720468,10.482450762753473,0.1029974827427539
20.722864,10.51379121413545,0.1025627245531274
20.725268,10.544759578465088,0.1021171338533198
20.727652,10.58136215798164,0.1016181191826422
20.730032,10.618244276751913,0.1011129946950151
20.732432000000003,10.652472668469713,0.1006204307468702
20.734816,10.68712036906809,0.1001185615994862
20.737196,10.720976673733553,0.0996175769736981
20.739592,10.75003738097326,0.0991466701065298
20.74198,10.78473230339988,0.098624564488703
20.74436,10.822640031386417,0.0980756844299494
20.746756,10.857894032320475,0.0975375827708405
20.749144,10.890773845455785,0.097000401716805
20.751528,10.91992899635198,0.096481894778249
20.753924,10.946150880941977,0.0959823129089211
20.756308,10.973583470345476,0.0954705694324342
20.758692,10.995149527136585,0.0949939492573169
20.761096,11.01285115206172,0.0945394826920075
20.76348,11.0262690362403,0.0941190057226092
20.76586,11.036334345232104,0.0937286479976128
20.76826,11.043326618290854,0.0933594557121304
20.770644,11.043381423550576,0.0930322594074306
20.77304,11.044507163996933,0.0926981374063227
20.775436,11.038415897390545,0.0924128220320202
20.777824000000003,11.029531134104817,0.0921388942542113
20.780204,11.019715205259311,0.0918685648194493
20.782604,11.004684370107473,0.0916340983507912
20.784992000000003,10.990444930888554,0.0913998316544726
20.787372,10.973923851669497,0.0911852822278631
20.789768,10.952187866144108,0.0910062166278664
20.792156,10.931103506924774,0.0908316357921623
20.794536,10.913092183638495,0.0906371266558769
20.796932,10.89452178184478,0.0904589449014534
20.79932,10.878744876730398,0.090269513589609
20.801704,10.861897036429378,0.0900874312267558
20.8041,10.840905225008662,0.0899318395784382
20.806488,10.822706910267282,0.0897649557708609
20.808868,10.806231157018598,0.0895947331819623
20.811272,10.792688670076108,0.0894090486555707
20.81366,10.781288053506897,0.0892072605935487
20.81604,10.771609998430382,0.0890023415609155
20.818436,10.763514735219704,0.0887983350453382
20.820824,10.748202464956275,0.0886401068926195
20.823204,10.7388964969321,0.0884474173416746
20.825604,10.730893781520043,0.0882646896754899
20.827988,10.720609426107846,0.0881013878673298
20.830368,10.712187401815203,0.0879305625024794
20.832772,10.705627708642124,0.0877529744902856
20.83516,10.703863612894793,0.0875536056241973
20.83754,10.703822078640156,0.0873514261471474
20.839936,10.70284937882574,0.0871530008084675
20.842324,10.697173629384192,0.086998519456451
20.84472,10.697084873301312,0.0868240290392548
20.847116,10.693783311658516,0.086672485275
20.849504,10.694346181881697,0.0865033294668933
20.851884,10.700496045463549,0.0863139788122597
20.854280000000003,10.706366369791676,0.0861334234217932
20.856668,10.712748550799002,0.0859627593626559
20.859048,10.720993062925883,0.0857861874624111
20.861448000000003,10.729889201358828,0.0856154243589955
20.863832,10.740927210165044,0.0854304498745217
20.866216,10.755829650837237,0.0852292805420643
20.86862,10.78218561748049,0.0849826774725373
20.871004,10.80691157042966,0.0847617666043491
20.873384,10.83349985449839,0.0845354321800733
20.87578,10.86502350561973,0.0842855269821449
20.878168,10.899620192674128,0.0840192764763372
20.880548,10.93128361342233,0.0837674629883809
20.882948,10.962295407864472,0.083512124836583
20.885332,10.994238367866396,0.0832547102123693
20.887712,11.026972723801236,0.0829995597687387
20.890112,11.060266158243516,0.082726861068318
20.8925,11.089695160819822,0.0824717779786941
20.894896000000003,11.121266033769404,0.0822025407460044
20.897288,11.15204551078607,0.081934050456035
20.899676,11.180962656683183,0.0816724765014118
20.90206,11.212301212207288,0.0813902716456421
20.904456,11.242336515119282,0.081097904388326
20.906840000000003,11.271161113217776,0.0808180245515435
20.909224,11.298402919450432,0.0805363521382123
20.91162,11.321780293817111,0.0802706071241759
20.914008000000003,11.341293236317822,0.0800208590101016
20.916388,11.348701026541413,0.07980667266191
20.918788,11.354805564152889,0.079581852709182
20.921172,11.360677784338886,0.0793404961094487
20.923556,11.366969313405466,0.0790884544569528
20.925952,11.371398511352488,0.0788423316795362
20.92834,11.377038414113011,0.0785858063990554
20.930724,11.38295785612725,0.0783223136409194
20.93312,11.388505211089154,0.0780461022636337
20.935508,11.393540709371855,0.0777610821723088
20.937892,11.403651344334037,0.0774531383993021
20.940288,11.414460827430515,0.0771260902688175
20.942672,11.425549849780715,0.076791827819074
20.945072,11.432634670638084,0.0764745029721864
20.947468,11.444003232242006,0.0761341330245934
20.949856,11.45057619642017,0.0758092535089443
20.952236,11.459942657277672,0.0754785271816437
20.954636,11.468145635149922,0.0751333077852354
20.95702,11.477279778581948,0.0747861910235963
20.959404,11.489067649066447,0.0744365700975109
20.9618,11.502345763618171,0.0740697271554344
20.964192,11.523073202648115,0.0736851779295192
20.966572,11.5465941383574,0.0732956291626281
20.968968,11.563829232573708,0.0729373566531474
20.971356,11.57850314753616,0.0726037949245884
20.973736,11.590104026565555,0.0722837041774202
20.976132,11.601704905594952,0.0719642345196471
20.97852,11.610884374997353,0.0716647126253413
20.9809,11.618713369959394,0.0713789975040085
20.983296000000003,11.628125156787274,0.0710980597938241
20.985684,11.633253202868596,0.0708409011996954
20.988068,11.636099608949785,0.0705988855089463
20.990464000000003,11.642530907643222,0.0703545131180352
20.992852,11.652966407829494,0.0700952266705457
20.995248,11.656324670589877,0.0698642362988528
20.997644,11.664059221895432,0.0696320296927112
21.000032,11.669000276521649,0.0694056408736937
21.002416,11.673242483013569,0.0691979944695226
21.004812,11.676925610998046,0.069005541261362
21.0072,11.679025947116688,0.0688091540354498
21.00958,11.681218831033949,0.0686339208996552
21.01198,11.682480549391428,0.068460915187243
21.014368,11.679598296629214,0.0683056800458708
21.016748,11.679369770919475,0.0681484669534307
21.019144,11.673414482224208,0.0680041488218093
21.021532,11.669973150954553,0.0678621153632365
21.023916,11.665041575617678,0.0677367244745621
21.026312,11.657688590653809,0.0676293933445217
21.0287,11.649636757555635,0.0675408580052055
21.031080000000003,11.635438852591356,0.0674772364002333
21.033476,11.622963509119767,0.0674140183917878
21.062156,11.457223622910702,0.0674114158912993
21.064544,11.44940221138014,0.0674100439657907
21.066924,11.45038059876816,0.0673837146243436
21.06932,11.45364062615632,0.0673431933642953
21.071708,11.460113459104392,0.0672870522966592
21.074088,11.471149572052743,0.0672024051396786
21.076484,11.485957569068448,0.0670873298711921
21.078872,11.507191177203984,0.0669409668745216
21.081252,11.526981763100546,0.0667867095542011
21.083648,11.548542132318047,0.0666092414206734
21.086036,11.575224860043262,0.0663886873507224
21.08842,11.599021543290526,0.0661520391251186
21.090816,11.619512873179255,0.065910299992448
21.093204,11.635907453776532,0.0656608813924955
21.095588,11.652489025828917,0.0653833003212509
21.097984,11.67191131638888,0.0650778153573434
21.100368,11.690030354336727,0.0647616324091498
21.102764,11.709919175605512,0.0644222692523249
21.105164,11.726782182769483,0.0640697931771474
21.107556,11.747556843627674,0.0636836381065824
21.109936,11.767587330381192,0.0632714879089038
21.112332,11.78552316858967,0.0628469898517201
21.11472,11.801224588626257,0.0624134008570947
21.117104,11.816321604185028,0.0619514772840552
21.1195,11.828253036012129,0.0614802714001625
21.121888,11.84088331597353,0.0609929810399529
21.124268,11.851279177763036,0.0604959498023896
21.126668,11.860511556567284,0.0599850205089007
21.129056,11.872025575371676,0.0594625803604445
21.131436,11.882748198243144,0.0589390948642866
21.133836,11.89160848999506,0.058418528979408
21.136224,11.903541817680027,0.0578893937901979
21.138604,11.916825619805357,0.0573487267180677
21.141,11.931180357117322,0.0568027803105496
21.143388,11.943253454429149,0.0562682700592356
21.145772,11.949971875807783,0.0557545692038334
21.148168,11.954548426813146,0.0552493412747369
21.150556,11.958193812258727,0.0547451834100712
21.15294,11.961280119196866,0.0542534806914391
