Time,Force,Position
19.709428,7.924537067663867,0.1589557811402537
19.711828,7.922908949827656,0.1589024245081841
19.714216,7.933525753895425,0.1586860829464741
19.716596,7.952011191321999,0.1583472967606398
19.718996,7.969984772069377,0.1579953010076215
19.721384,7.985397173562895,0.157705510113355
19.723764,8.005370959198821,0.15742570733253
19.726164,8.04271012938857,0.1569609894675609
19.728552,8.08591583219071,0.1564048677851119
19.730932,8.120368957902508,0.1559484320382172
19.733332,8.156312327681524,0.1554645757081321
19.73572,8.195188963766736,0.1549513502207595
19.7381,8.237930031717921,0.1543898757317588
19.7405,8.279228077430131,0.153825123110692
19.742888,8.319829170865908,0.1531875650706743
19.745268,8.358103298331175,0.1525287190295629
19.747668,8.390650662810911,0.1519563738044581
19.750056,8.428877568447932,0.1513467668223788
19.75244,8.474227037481217,0.1506806900687747
19.754836,8.517294866514368,0.1500609381489644
19.757224,8.556126176629204,0.1494898233639272
19.759604,8.582385803758102,0.1491309680036905
19.762004,8.60403492905848,0.1488975786574578
19.764392,8.628058242157612,0.148651687835477
19.766772,8.65091807227149,0.1483912542193969
19.769172,8.670100461974497,0.1481401899630867
19.77156,8.687887051266772,0.1478594265656778
19.77394,8.699155481640599,0.1476607258444619
19.77634,8.711075538320483,0.1474654311332728
19.778728,8.724765378321303,0.1472198116190044
19.785896,8.70908102100554,0.1471109222189024
19.788276,8.710665708729243,0.1470090437963337
19.790676,8.718349246490817,0.1468531705440659
19.793068,8.728034884998806,0.1466703550480943
19.795448,8.741724724999633,0.1464356801327039
19.797848,8.754762938694396,0.1462024952955961
19.800236,8.773807454628415,0.145893079050745
19.80262,8.796344315376064,0.1455253831439446
19.80502,8.817066066832403,0.1451470665041553
19.807408,8.83774249231837,0.1447070156331937
19.809792,8.852459837393326,0.1443113385011029
19.812192,8.864243916162089,0.1439518125388574
19.81458,8.880171966050545,0.1435321356292364
19.81696,8.896938633700163,0.1430738712213121
19.81936,8.91370530134978,0.1426177002629687
19.821748,8.931123595305458,0.1421661546064057
19.824132,8.94891397631347,0.1417317461032339
19.826532,8.968799005866515,0.1412988974123267
19.828924,8.99455056803195,0.1407913530198545
19.831308,9.020069812771911,0.140260980811903
19.833704,9.045449287885011,0.1397386456282538
19.836092,9.064682691132,0.1393065154795194
19.838476,9.080331201766738,0.1389093593618273
19.840872,9.09388506385644,0.1385114823996422
19.84326,9.09682401773624,0.1382035553762044
19.845644,9.095526452697731,0.1379262987587975
19.84804,9.089573059860337,0.1376970286013965
19.850432,9.08026709183616,0.1375190482224652
19.852812,9.067468778998348,0.1373975430827491
19.855212,9.055833949145793,0.1372866947566132
19.8576,9.053790314144738,0.1370719158239949
19.859984,9.058404607688994,0.1367882821852262
19.862384,9.066184484964923,0.1364932354624593
19.864772,9.07475575817377,0.1361947575281489
19.867156,9.080533534703282,0.135923245701418
19.869556,9.08244687936682,0.1356934556220459
19.871944,9.080775331418106,0.1354937862648303
19.874324,9.075007034177938,0.1353151965784402
19.876716,9.06593338357924,0.1351543890770871
19.879104,9.05685973298054,0.1349930748202976
19.88148,9.044852816075649,0.1348647680411981
19.883876,9.033777064730534,0.134727401665129
19.88626,9.02256154375856,0.1345954895864742
19.88864,9.009716009092504,0.1345015786273042
19.891032,9.00133931077024,0.1344006481386262
19.919688,8.898699636205707,0.1343594885550819
19.922072,8.89939848434001,0.1343302126286703
19.924452,8.907219895870574,0.1342745177123222
19.926848,8.920720848558425,0.1341930162166307
19.929236,8.9416711257245,0.13404271694924
19.931616,8.96075907177102,0.1339107030286598
19.934028,8.9810105008028,0.1337904701395999
19.936416,9.005358679126026,0.1336494866268603
19.938796,9.036132468569082,0.1334233709623791
19.9412,9.064811609467109,0.1331961198894415
19.943588,9.097634721484829,0.1329188554169543
19.945968,9.130178294248823,0.1326523833869686
19.948364,9.167237925184857,0.1323493215625167
19.950748,9.20150405944155,0.1320731333875835
19.953144,9.237539977019184,0.1317529716287903
19.95554,9.269991001984566,0.1314614299719324
19.957924,9.3053280714279,0.1311701535652218
19.960304,9.340106062363793,0.1309041210070137
19.962696,9.38289245628535,0.1305535879707174
19.96508,9.426237928714352,0.1301847607119479
19.96748,9.471725271516627,0.1297920433653473
19.969876,9.51441911763957,0.129428069129106
19.972264,9.552085048911282,0.1290923581733383
19.974644,9.586725166078184,0.1287645116184399
19.97704,9.61489434615488,0.128464740778136
19.979428,9.644134461418217,0.1281528928444833
19.981808,9.676215295189127,0.1277906188459151
19.984204,9.707272415601643,0.1274125843119944
19.986592,9.732742542655494,0.1270834060182096
19.988972,9.757840582657003,0.1267420473681206
19.991372,9.780005356352316,0.1264305185492626
19.993756,9.806034561913608,0.126085051911848
19.99614,9.83183145004942,0.1257237878893839
19.998544,9.859258351879308,0.1253300292709245
20.000932,9.887756188895835,0.1249253353450254
20.003312,9.916254025912366,0.124518679635507
20.005716,9.94307652326444,0.124092886323132
20.0081,9.96421947945923,0.123685319643465
20.010484,9.97246588744398,0.1233759585229579
20.01288,9.974845762816344,0.1231203114623323
20.015268,9.973500975949593,0.1228940954937655
20.017648,9.972435728336562,0.1226579658317348
20.020044,9.975654221470084,0.1223734055607193
20.022432,9.975287821991357,0.1221116107573715
20.024812,9.978878402177214,0.1218411467509765
20.027208,9.982468982363075,0.1215714674371989
20.029596,9.981915591429242,0.1213457284166541
20.031992,9.985506171615103,0.1210785993668576
20.034396,9.991238622174244,0.120788096459521
20.036784,9.99562059829302,0.1205197764283686
20.039164,9.999630487359465,0.1202378944554827
20.04156,10.000614562321092,0.1199582505827791
20.043948,9.997734205416748,0.11971038326388
20.046328,9.993131287019708,0.1194707560376345
20.048724,9.984803706383554,0.1192569739308401
20.051112,9.981830801680593,0.1189856421344555
20.053492,9.97936975365683,0.1187228531550565
20.055888,9.98500965641735,0.1184120156868993
20.058272,9.99609678290968,0.1180656690503528
20.060656,10.013562298693598,0.1176788267683156
20.06306,10.033309454477656,0.1172649172843321
20.065448,10.051194279142155,0.1168648051061292
20.067828,10.060930931194124,0.1165409970437723
20.070224,10.074671784738932,0.1161815552567787
20.072612,10.084036349738566,0.1158447605977677
20.074996,10.08781392137953,0.115545144251829
20.077392,10.0886582267143,0.1152685237701157
20.07978,10.085358560929372,0.1150337244940749
20.082156,10.076983758464976,0.1148451784765125
20.084564,10.0676777904408,0.1146625409542256
20.086948,10.05888367909582,0.1144884719359838
20.089332,10.05046165480318,0.1143280239361148
20.091728,10.045764292749652,0.1141424641124377
20.094112,10.044372284054658,0.1139474997010673
20.096496,10.046425398345058,0.1137375525332297
20.098892,10.048850599687794,0.1135431765938391
20.101276,10.054348836963584,0.1133217217132245
20.103672,10.05733311681376,0.1131097078500134
20.106076,10.062599036664077,0.1128720387190213
20.108464,10.06334889834236,0.1126590528283228
20.110844,10.060746184833867,0.1124829937256591
20.113248,10.053999500205682,0.1123442200243538
20.115636,10.053398887443606,0.1121501002505163
20.11802,10.050376865054533,0.1119874630964759
20.120416,10.048937634531292,0.1118227405151485
20.1228,10.056018663672916,0.1116005667524311
20.125184,10.070968326173356,0.1113175201429494
20.127576,10.08470728386029,0.1110501976300072
20.129964,10.10724604046581,0.1107171171696331
20.132344,10.134720164123946,0.1103469598113704
20.134748,10.16191474852836,0.109986944751354
20.137132,10.188829793679052,0.1096370605198701
20.139512,10.21267180289669,0.1093151395340472
20.141916,10.232649380248354,0.1090219558376584
20.144304,10.255188136853876,0.1086959562604431
20.146684,10.269206633794532,0.1084247935690952
20.149084,10.278010224428856,0.1082012107805437
20.151472,10.283461239876404,0.1080134350681383
20.153852,10.286211306443237,0.1078659810798719
20.156248,10.293896740062676,0.1076821930224409
20.158636,10.303444504801677,0.1074872478168311
20.16102,10.324725334765455,0.1072091536112471
20.163416,10.34744918696821,0.1069367719720325
20.1658,10.373106305477162,0.1066444811341968
20.16818,10.398903193612972,0.1063479170824839
20.170584,10.417902383576614,0.1060987351219049
20.172972,10.433828537607202,0.1058768225658301
20.175352,10.447752590891367,0.1056690533470878
20.177748,10.456741277122928,0.1054981731764651
20.180136,10.46172576186165,0.1053577625424124
20.182516,10.470202591414012,0.1051796487867858
20.184916,10.476025693913895,0.1050115294538546
20.1873,10.482779961973565,0.1048382670684547
20.189684,10.491536330779644,0.1046504094545414
20.19208,10.494518714771951,0.1045252958003191
20.194464,10.505229962496209,0.1043505998087501
20.196844,10.521016346899934,0.1041373962758131
20.199244,10.539084371303796,0.1038999953786883
20.201628,10.558782409401738,0.103635024648654
20.204008,10.573405310820212,0.1034096340211669
20.206412,10.5900303129851,0.1031706102597516
20.2088,10.596784581044764,0.103000131067057
20.21118,10.599814186865316,0.1028494387917091
20.213576,10.601772857499226,0.1027086366077837
20.21596,10.602800362573362,0.10257259007096
20.21836,10.608763234700106,0.1024035285643847
20.220756,10.614865876453717,0.1022305056922714
20.223144,10.62804575563321,0.1020067479345673
20.225524,10.640014929999206,0.1017966998959687
20.22792,10.651704565111483,0.1015954339691225
20.230308,10.659110459477205,0.101431884730275
20.232692,10.672522656082176,0.1012271401607958
20.235088,10.684352060821311,0.1010224852941641
20.237476,10.69539006962753,0.1008185384903352
20.239856,10.714995559926855,0.1005432553412123
20.242252,10.727663582427152,0.1003134391019494
20.24464,10.732602741195503,0.1001288993334904
20.247024,10.737402130336996,0.0999490802401669
20.24942,10.740199418732068,0.0997830532226738
20.251808,10.747140678246836,0.0995858353272559
20.254188,10.750497045149348,0.0994022352242101
20.256588,10.759208087985051,0.099174068197723
20.258976,10.771411475634396,0.0989110641415421
20.261356,10.781100905858125,0.0986523805669043
20.26376,10.791069875335571,0.0983846826681538
20.266148,10.800247448880109,0.0981182170415546
20.268528,10.8066315257453,0.09786484773867
20.270928,10.807149069998108,0.0976467683710564
20.273316,10.810367563131631,0.0973938846001873
20.275696,10.815076300332374,0.0971190520368015
20.278092,10.822066677533254,0.0968228365521631
20.28048,10.8262635580548,0.0965404572420887
20.28286,10.834464640069177,0.0962332629777596
20.285264,10.83973245577736,0.0959422952898689
20.287652,10.83419837182054,0.0957143909774937
20.290032,10.833227567863997,0.0954432152621942
20.292428,10.84040493651998,0.0951173657112299
20.294816,10.85093488036274,0.0947635076019697
20.297196,10.860393889018855,0.0944174447835292
20.299592,10.865057300249228,0.0940959294178664
20.30198,10.873585143345569,0.0937546495026547
20.30436,10.88011088569549,0.0934268687199717
20.306756,10.8834238224855,0.0931245618469864
20.309144,10.89181189595498,0.0927909720456385
20.31154,10.900339739051322,0.0924531253676365
20.313936,10.905934315841469,0.0921311153841997
20.316324,10.910597727071837,0.0918117876663355
20.318704,10.917682547929198,0.0914675600216574
20.321108,10.924348059905984,0.0911375281315132
20.323496,10.933015672629182,0.0907971196583864
20.325876,10.93781885348641,0.0904754595506741
20.328272,10.945415531022974,0.0901443799986771
20.330664,10.951661734119178,0.0898309913716873
20.333044,10.961260512402154,0.0894896790441638
20.33544,10.974723722551108,0.0891283900386657
20.337828,10.993494386805011,0.0887577999574401
20.340212,11.007981310312362,0.0884194898800681
20.342608,11.017253327513371,0.0881160498850438
20.344996,11.027596279901026,0.0878045311134805
20.34738,11.041663894527794,0.0874794042982239
20.349776,11.050796142101952,0.0871797215761999
20.352164,11.057646749675971,0.0868991643759778
20.354544,11.060632925384017,0.0866350179634092
20.35694,11.060406295532143,0.0863945029832114
20.359328,11.061482918292388,0.0861644179089984
20.361708,11.063490706612413,0.0859306684078809
20.364108,11.07094571866425,0.0856817959105517
20.366496,11.07770188258178,0.0854543181380741
20.368876,11.081664549819978,0.0852365740634008
20.371276,11.08427674261782,0.0850353926813924
20.373664,11.089682432094992,0.084824428913569
20.376044,11.086428092280444,0.0846498462410604
20.378444,11.081451190973196,0.0844773836199115
20.380832,11.075775441531649,0.0843257960447895
20.383216,11.071962023209656,0.084168047598706
20.385612,11.05762624447638,0.0840522551603856
20.387996,11.044361400929745,0.0839290252377434
20.390376,11.033098658129529,0.0837952915297386
20.392776,11.02570034719528,0.0836454691001957
20.39516,11.019233201820816,0.0834929661648726
20.39756,11.019983063499096,0.0832996304913286
20.399952,11.025016665923934,0.0830784973130646
20.40234,11.03684796652094,0.0828286666532007
20.404724,11.04588577043861,0.0825871857086789
20.40712,11.055342883236865,0.0823341687815096
20.409504,11.06559139196803,0.0820825197419903
20.411888,11.072534547340668,0.0818307445162769
20.414284,11.081759342713442,0.0815619577659027
20.416672,11.09284646920577,0.0812875743444759
20.419056,11.099557307152931,0.0810184320010654
20.421452,11.107199310659867,0.0807471634724312
20.42384,11.126574379391586,0.080427861900248
20.42622,11.147160152936804,0.0800983437245889
20.42862,11.16909640092238,0.0797549285829042
20.431008,11.19066056185562,0.0793995269817714
20.433392,11.217951485774387,0.0790236607846436
20.435788,11.25031754637263,0.078626114824808
20.438176,11.280169649545256,0.0782282598515052
20.44056,11.307368025665406,0.0778364731894824
20.442956,11.332843840292862,0.0774473948051253
20.445344,11.353244518240844,0.0770848797869145
20.447728,11.37071192988263,0.0767348008727051
20.450132,11.385246075218223,0.0763967221609752
20.45252,11.403644652419793,0.0760454511211407
20.4549,11.422182999248216,0.0756918589808077
20.4573,11.442211590143865,0.075321527865341
20.459688,11.462612268091847,0.0749649639839553
20.462068,11.479148514173858,0.0746219384625109
20.464464,11.495964299509588,0.0742718996880032
20.466852,11.51622520783071,0.0739203081208035
20.469236,11.535834489845774,0.0735642882393621
20.471636,11.547575138502031,0.073238960737575
20.474024,11.557173916785016,0.0729255912985501
20.476404,11.563699659134938,0.0726262823578022
20.478804,11.563240711857592,0.0723768995687221
20.481192,11.55998826790091,0.0721336114624824
20.483576,11.544723219465723,0.0719376624261092
20.485972,11.531552819575577,0.0717545751253067
20.48836,11.51489007487179,0.0715965064127496
20.490736,11.49622522942159,0.071445855170425
20.49314,11.478212010277446,0.0713006537637545
20.495524,11.458848316692942,0.0711686363446136
20.497904,11.442929746093832,0.0710365539804871
20.500296,11.42659186661414,0.0709160754345169
20.502684,11.406482103067097,0.0708283058287231
20.505076,11.386464887318663,0.0707615926137108
20.50748,11.368729311570371,0.0706793399339471
20.509868,11.351785131754996,0.0705987219925207
20.512248,11.332279772685764,0.0705407788773893
20.514652,11.315707679922728,0.0704732799259065
20.517036,11.29750557346561,0.0704265356286901
20.519416,11.279955093314552,0.0703854341076541
20.52182,11.266780901708664,0.0703428640396545
20.524204,11.258402307528527,0.0702874370397059
20.526584,11.262455626707476,0.07017636666595
20.528988,11.269162672938895,0.0700639248959563
20.531372,11.288394180328018,0.0699173661503689
20.533752,11.309627788463557,0.0697638935682558
20.536144,11.334865598091923,0.0695956913695327
20.538532,11.363828069959409,0.0694212531902457
20.540912,11.393442168132946,0.069253165897161
20.543316,11.425849762985823,0.0690800242426705
20.5457,11.454812234853309,0.0689068930892808
20.54808,11.47897910929504,0.0687455922675395
20.550484,11.506917867804129,0.0685526460855831
20.552868,11.53341360407424,0.0683523475984529
20.555248,11.556976074038158,0.0681617558458808
20.557652,11.580678313628932,0.0679674920927713
20.56004,11.607593358779626,0.0677570667895568
20.56242,11.629852576131428,0.0675555395558339
20.564824,11.65225156311009,0.0673499230675122
20.567212,11.676792420462023,0.0671339331647155
20.569588,11.696165593335875,0.0669165441280675
20.571984,11.710882938410837,0.0667076415301375
20.574368,11.718662815686764,0.0665221388747541
20.576752,11.724720131469995,0.0663360993360231
20.579156,11.721605561282304,0.0661615248776968
20.58154,11.718258673669135,0.06597025393801
20.58392,11.716402030123186,0.0657633064128499
20.586324,11.711891659524763,0.0655570773886554
20.588712,11.701142669261612,0.0653522924027998
20.591092,11.691092527132762,0.0651292545156109
20.593496,11.685186356123603,0.0648901791085974
20.59588,11.68570579623428,0.064620857552153
20.59826,11.685294070785176,0.0643533607637567
20.600664,11.684230719030015,0.0640798106644116
20.603052,11.680234100968658,0.0638127388921436
20.605432,11.677168648467076,0.063544346764286
20.607836,11.675453670405858,0.0632646092219349
20.61022,11.676671958650832,0.0629776603924095
20.612604,11.67765792947033,0.0626731501625995
20.615,11.676781569170272,0.0623711613799157
20.617384,11.675625669616494,0.062075270281539
20.619768,11.67647187080913,0.0617732292675609
20.622164,11.677457841628629,0.061467308420928
20.624548,11.679514747634766,0.0611566751570994
20.626928,11.68436515032024,0.060841943302181
20.629328,11.686282286699518,0.0605343063308413
20.631712,11.683124286399323,0.0602428226840024
20.634092,11.67782441572585,0.0599598877475302
20.636488,11.685468315090658,0.0596428916702026
20.638876,11.691110113709048,0.0593320883084308
20.641272,11.690885379715048,0.0590345089319279
20.643672,11.68865854497463,0.0587431334944503
20.64606,11.688433810980628,0.058447262352791
20.64844,11.689140242546406,0.0581507028102798
20.650844,11.697063681164934,0.0578308284700064
20.653228,11.705266659037184,0.0575042705338377
20.655612,11.709465435416597,0.0571884097816533
20.658012,11.712872815863092,0.0568703766433452
20.6604,11.72093602410848,0.0565498686086037
20.66278,11.72834760604781,0.056222606886214
20.665184,11.742976195039889,0.0558740897936959
20.667568,11.757744553658828,0.0555227942390537
20.669948,11.774375243397325,0.0551710434465335
20.672352,11.79114570276268,0.0548165821175456
20.674736,11.81192036362087,0.0544545078051395
20.677116,11.835348751531534,0.0540951086933197
20.67952,11.861570636121533,0.0537340649195217
20.681904,11.89393859257764,0.0533571785851353
20.684284,11.914433714182112,0.0530050307620117
20.686688,11.93586000134636,0.05265321745765
20.689076,11.95421325257755,0.052307651492038
20.691456,11.968422532689049,0.051973642369364
20.693852,11.979279237613772,0.051655586903364
20.696236,11.98706290660544,0.051345292606036
20.698616,11.988560734104135,0.0510547643703343
20.70102,11.989779022349111,0.0507715256029112
20.703408,11.990717771340366,0.0504946080743388
20.705788,11.987233009958208,0.0502354634639303
20.708192,11.97560007596352,0.0499953099235282
20.71058,11.96568970346153,0.0497578415126588
