Time,Force,Position
22.631416,7.548456259365088,0.1670026031632263
22.633796,7.770547602114146,0.1651631357959982
22.636196,7.980679249786551,0.1631620681515701
22.638584,8.160554652268702,0.1613761829193397
22.64098,8.302677263254132,0.1600508748669316
22.67682,8.332363054789738,0.159759548831338
22.679216,8.33455214699126,0.1596882748883217
22.681604,8.338044491804895,0.1596209240154345
22.683984,8.348054995536978,0.1594743078532045
22.68638,8.37343067893434,0.1590941712303079
22.688768,8.400064288973443,0.1586493789171427
22.691152,8.41720114781753,0.1582619632501034
22.693548,8.4212091410261,0.1580134837213542
22.695936,8.43238691945918,0.1576847351707571
22.698316,8.458975203527908,0.1571692562934238
22.700716,8.493432120955443,0.156532916151967
22.703104,8.53524581506259,0.1557786319114075
22.705484,8.579713236222211,0.155007006437035
22.707884,8.626367853725483,0.1542626972528963
22.710272,8.67269571014679,0.1535635521931771
22.712652,8.719954732127876,0.1528503362082267
22.715052,8.763396544071233,0.1521552074448667
22.71744,8.799156714110882,0.1515371206498425
22.71982,8.822764510045175,0.1511185202092112
22.722216,8.84860672415136,0.1506951779371609
22.724604,8.87356499452601,0.1502482307936138
22.726988,8.89717468631817,0.1497417903131612
22.729384,8.91114785728845,0.149300043253366
22.731772,8.920837287512178,0.1489314966733545
22.734156,8.920468992175577,0.1487346083345826
22.736552,8.927410251690343,0.1484607292333107
22.73894,8.939798734936922,0.148126386766134
22.74132,8.952326987810357,0.1477826301126578
22.74372,8.970582003669323,0.1473762716959316
22.746108,8.99442401288696,0.1469166116895088
22.748488,9.016915547664237,0.1464865853731746
22.750888,9.029443800537674,0.1461570972982284
22.753276,9.036991360388129,0.1458346090458254
22.755656,9.04365497650704,0.1454913050167178
22.758052,9.055393729305427,0.1450821248175
22.76044,9.071416222850369,0.1446124481787784
22.762836,9.09079129158209,0.1440898480911377
22.765236,9.108955655500306,0.1435848522489254
22.767624,9.12949420721728,0.1430728859090818
22.770004,9.15175532042695,0.1425531258373301
22.772404,9.177461556622012,0.1420082340725332
22.774792,9.197114268749583,0.1415680149387949
22.777172,9.217371385354967,0.1411580709294557
22.779572,9.235998488266272,0.1407881400799826
22.78196,9.259421188603328,0.1403652353654733
22.784344,9.28019016188791,0.1399694997164128
22.78674,9.302169839985991,0.1395519360120659
22.789128,9.329876281069602,0.139072162594836
22.791508,9.347060361741931,0.1387115096870917
22.793908,9.357586513868952,0.138425859324966
22.796296,9.36988244931691,0.1380978449868512
22.798676,9.385763277377125,0.1377375574385733
22.801076,9.399455013235816,0.1374379660376256
22.803464,9.416591872079904,0.137116585228128
22.805848,9.436242688349603,0.1367854123313061
22.808244,9.449048584618891,0.1365576773433711
22.810632,9.460736323873297,0.1363755437685359
22.813016,9.482155027606067,0.1360915436659766
22.815412,9.504132809846285,0.1357897456538633
22.8178,9.525039656899857,0.1355056399172351
22.820184,9.546737899886343,0.1352215354139749
22.822584,9.575373610671864,0.1348623323697989
22.824968,9.611226328510131,0.1344192724386558
22.827348,9.64991976485598,0.1339238509008206
22.829752,9.684376682283515,0.1334552225444171
22.832136,9.714921946016837,0.1330538602306759
22.83452,9.746630692735412,0.1326640108468338
22.836916,9.777780360946547,0.1322990486091657
22.8393,9.81665889288963,0.1318617094941996
22.84168,9.85525788557899,0.1314376171391414
22.844076,9.889246376439832,0.1311062792140299
22.846464,9.923327415099294,0.1307985507524577
22.848844,9.962204051184507,0.1304462098605553
22.85124,9.996844168351409,0.1301207969294147
22.853628,10.02017052917411,0.1298956176457394
22.908584,10.045587746826104,0.1298054678287927
22.910972,10.046938221266464,0.1297826422102401
22.913356,10.050103804998134,0.1297734793051789
22.915752,10.059694999849638,0.129688525166142
22.91814,10.07147528690266,0.129549863994071
22.92052,10.08493280947801,0.1293503761050475
22.92292,10.0984375538816,0.1291232690464752
22.925308,10.109987419367016,0.1288886435866611
22.927688,10.118139383695285,0.1286444982474492
22.930088,10.127316957239811,0.1283363322019685
22.932476,10.13481919111989,0.1280093601043878
22.934856,10.14539446093302,0.1276508028571313
22.937252,10.167610248172318,0.1271642392336804
22.93964,10.192154897239996,0.1266236752989078
22.942024,10.21446512813578,0.1260865246315646
22.94442,10.23998816459148,0.1255130838827089
22.946808,10.267653071420453,0.1249173562321255
22.949192,10.293223329704391,0.1243231038232653
22.951596,10.32368362907057,0.1236370957127713
22.95398,10.348743926533183,0.1229568141735974
22.95636,10.36863653951771,0.122302271462782
22.958764,10.38685381283778,0.1216305885817677
22.961152,10.407027860933892,0.1208895185450767
22.963532,10.422313763805638,0.1201653228293157
22.965928,10.43401477406513,0.1194626808991303
22.968316,10.441292273951206,0.118811116764898
22.970696,10.447219299396926,0.1181814423409179
22.973092,10.451283993723086,0.1175644771654457
22.97548,10.458002415101722,0.116932942080405
22.977876,10.462811283532558,0.1163417980441103
22.980272,10.467061073455952,0.1157692973864891
22.98266,10.469076445207454,0.1151965633931306
22.98504,10.460941543600011,0.1147167874954303
22.987436,10.447312196432517,0.1142966429013462
22.98982,10.43419470594422,0.1138846382944389
22.9922,10.416933244336228,0.1135101599419968
22.994604,10.397018055675762,0.1131482392733701
22.996992,10.369746090335685,0.1128559992319422
22.999372,10.335861522420672,0.1126603521321814
23.001776,10.305514625289671,0.1124726961131962
23.00416,10.278473081517204,0.1122747877744498
23.00654,10.250453150356716,0.1121099207486498
23.008936,10.219173191808068,0.1120045278605547
23.01132,10.189708342550732,0.1119147392531183
23.013704,10.162338141838433,0.1118311293922799
23.016108,10.136550732991967,0.1117451356885286
23.018492,10.109412849705144,0.1116794825272316
23.020872,10.085580319776854,0.1116041996829288
23.023276,10.061840337647178,0.1115517942835142
23.025664,10.0398229170102,0.1114922696368205
23.028044,10.01938828823906,0.1114304717267802
23.030448,9.998347359132234,0.1114166625278423
23.032832,9.981682718570578,0.1113834384788529
23.035212,9.968183661740598,0.1113464148730274
23.037616,9.953985756776316,0.1113338474854264
23.04,9.9470974066634,0.1112795046654974
23.04238,9.94402626658821,0.1112256978765578
23.044784,9.950127012483946,0.111119140435716
23.047172,9.959161024685878,0.1109898163568097
23.049552,9.971779929500064,0.1108427305014644
23.051948,9.984910690993448,0.110705083024271
23.054336,9.99776191323311,0.1105770343685365
23.056716,10.016339898458302,0.1104098622098784
23.059112,10.03305555256394,0.1102539037547914
23.0615,10.051121681109931,0.110078250403134
23.06388,10.069839435961985,0.1099066679915435
23.066276,10.09349255786665,0.1096975644648108
23.068664,10.118356384584812,0.1094755865236078
23.071048,10.140566484250504,0.1092653768046948
23.073444,10.163567979849107,0.1090551685092164
23.075828,10.19122530324661,0.1088195205370999
23.078228,10.22437707220416,0.1085285847975633
23.08062,10.258739545975208,0.1082247015538127
23.083008,10.290448292693783,0.1079321055420583
23.085388,10.318851686053828,0.1076454106174594
23.087792,10.343530417174756,0.1073827155747171
23.090176,10.363832859750516,0.1071380835776735
23.09256,10.378548308967602,0.1069265203881494
23.094956,10.394754002251908,0.1066912330291547
23.09734,10.408305968483743,0.1064680758883087
23.09972,10.42120630840952,0.1062411713193989
23.10212,10.434246417962154,0.106009069625702
23.104508,10.44528442676837,0.1057935300855859
23.106888,10.458976162627064,0.1055668277222455
23.109284,10.473039985538092,0.1053549441549328
23.111668,10.487383347702844,0.1051338357903691
23.114064,10.497722508374762,0.1049435947203634
23.11646,10.500844661993929,0.1048127452823825
23.118848,10.50876241303885,0.1046518854814471
23.121228,10.518822034457044,0.1044725492767019
23.123624,10.520221626583515,0.1043481918528187
23.126012,10.516034225351316,0.1042541378585396
23.128392,10.505840521879872,0.1042038044972822
23.130788,10.500442415834174,0.1041238788463196
23.133176,10.502493634266704,0.1040042985522022
23.135568,10.505336248632153,0.1038845959001956
23.137968,10.508830489303657,0.1037689028672015
23.140352,10.517260097027773,0.1036196241090615
23.142736,10.525410165498169,0.1034802296590239
23.14514,10.538775140274897,0.1032996483725386
23.147528,10.55414221579804,0.103105819876364
23.149908,10.57351349281402,0.1028848124178942
23.152304,10.593164309083722,0.1026557450201793
23.154692,10.613374203860864,0.1024096330482036
23.157072,10.63134968046611,0.1021601803213815
23.159468,10.649185387444495,0.1019155546563937
23.161856,10.668092029609523,0.1016618356402566
23.164236,10.691282412521105,0.1013704657102608
23.166632,10.714752334686402,0.1010730397414863
23.16902,10.73342665942595,0.100803830496866
23.1714,10.758107286404751,0.100493628137139
23.1738,10.783579309316467,0.1001829657783171
23.176188,10.815197404094295,0.0998268567751292
23.178568,10.846024102939204,0.0994738587572082
23.180964,10.872334743612084,0.0991407833271054
23.183352,10.896131426859348,0.0988123122352657
23.185748,10.923280685293385,0.0984538090469024
23.188144,10.94763644704809,0.098110568593135
23.190532,10.972131978429656,0.0977644185736014
23.192912,10.98889864607927,0.0974631019986575
23.195308,10.99872784592986,0.0972042082552052
23.197696,11.004180757235275,0.096958523920195
23.20008,11.00684017186136,0.0967255453773445
23.202476,11.0096393561143,0.0964889888861935
23.20486,11.011507374807463,0.0962562667335655
23.20724,11.014074241634932,0.0960020354487704
23.209636,11.017991582902756,0.0957312283382949
23.212024,11.022188463424298,0.0954521547877433
23.214408,11.017725314654118,0.0952176222412379
23.216804,11.017266367376772,0.0949584665110834
23.219192,11.01429346267381,0.094703044603768
23.221588,11.009737766105015,0.0944462023616967
23.223984,11.0031799687898,0.0942020315796069
23.226372,10.98931261662322,0.0939842178092774
23.228752,10.976516199643278,0.0937578623392571
23.231152,10.970517480835502,0.0934962533498473
23.23354,10.958791999042202,0.0932615956513831
23.23592,10.942131150196284,0.0930539392062228
23.238316,10.924678905417448,0.0928456351836672
23.240704,10.908297595825251,0.092628323231227
23.243084,10.898341897352887,0.0923614337184151
23.24548,10.892762487425692,0.0920844399635716
23.247868,10.892258214177971,0.0917762181953132
23.250252,10.890822775370468,0.0914723173492638
23.252648,10.892041063615444,0.091161679185066
23.255036,10.8900465463005,0.090874423769196
23.257416,10.88632946749286,0.0905904168942297
23.259812,10.881541453498585,0.0903142106445795
23.2622,10.882899511370418,0.0899982502214362
23.26458,10.87974151107022,0.0896958719774032
23.26698,10.876443741143165,0.0893975084050871
23.269368,10.881666230880969,0.0890646614180751
23.271764,10.889170360618914,0.0887134314259422
23.27416,10.90705708114128,0.0883209765225073
23.276548,10.926014736850286,0.0879224003061537
23.278928,10.93538119770779,0.0875664397680287
23.281324,10.952616291924098,0.0871723299422366
23.283716,10.97720816282002,0.0867298383841969
23.286096,10.999006537036603,0.0862969975458
23.288492,11.023738177559386,0.0858510674316633
23.29088,11.049261214015086,0.0854091343738145
23.29326,11.068405861179194,0.084985706789122
23.295664,11.084337702783388,0.0845863774385609
23.298052,11.098127674014306,0.0842016156165323
23.300432,11.109124148565888,0.0838262529902631
23.302832,11.125847386103,0.0834292050425888
23.30522,11.140940609946032,0.0830555493082284
23.307604,11.155894064162206,0.0826860540459419
23.31,11.17028843987094,0.0823339261321518
23.312388,11.188267708191924,0.0819743736837362
23.314768,11.20410510613963,0.0816282649631835
23.317168,11.210211539608975,0.0813249271561408
23.319552,11.210171901212211,0.0810552903902375
23.321936,11.204405499829914,0.0808078746395047
23.324332,11.19249302658151,0.0805930659228621
23.326716,11.183374050012436,0.0803686281184516
23.3291,11.165967131203976,0.0801913036471113
23.331496,11.147209737955157,0.0800288821840641
23.333884,11.13296840287837,0.0798565192526134
23.336264,11.115374492614809,0.0797083588676652
23.338668,11.095778481604826,0.0795693486408261
23.341052,11.08055875914002,0.0794247128777506
23.343432,11.064547640742292,0.0792782756193392
23.345836,11.049188148650629,0.0791369698209274
23.348224,11.03676192286515,0.0789834045439861
23.350604,11.0234045315199,0.0788326833020612
23.353,11.016193212040758,0.0786506493234975
23.355388,11.01191515886781,0.0784572079997777
23.357772,11.008847810508362,0.0782534529117838
23.360168,11.004849296589134,0.0780524120997698
23.362556,11.008719416028717,0.077820534808478
23.364936,11.014451866587851,0.0775827902596384
23.367328,11.024048749012964,0.0773307710875928
23.369716,11.033366092184355,0.0770867424674724
23.372116,11.050552068714554,0.0768113544031712
23.374512,11.072533642670502,0.0765210549146392
23.3769,11.100661288492564,0.076200357059315
23.37928,11.12944056062068,0.0758871717926743
23.381676,11.153564004949908,0.0755860838240229
23.384064,11.180760485212192,0.0752702747881493
23.386448,11.20367322472792,0.0749790085790408
23.388844,11.227656899430285,0.0746829327583305
23.391232,11.249079394878796,0.0744106473941187
23.393612,11.27250399107372,0.0741301605380292
23.396008,11.295649048014928,0.0738589392669354
23.398396,11.312787802716882,0.0736130787823574
23.400776,11.323780485552726,0.0733973134148625
23.40318,11.333562463575072,0.0731926292060376
23.405568,11.341993967157055,0.0730024357884816
23.407948,11.345862190738773,0.0728440223256903
23.410348,11.34465527764101,0.0727088433407505
23.412732,11.348104192342142,0.0725634313584115
23.415116,11.353275668535971,0.0724182358726411
23.417512,11.36124064140913,0.0722671980428646
23.4199,11.368274448722516,0.072119210176609
23.42228,11.373166385662625,0.0719836718960926
23.424676,11.376056221856311,0.0718563210120529
23.427068,11.376152561370668,0.0717349177472956
23.429448,11.381835894243691,0.0716022475275662
23.431848,11.386448291930082,0.0714755819341078
23.434232,11.399860488535056,0.0713208667975986
23.436616,11.412481289207108,0.0711650465912569
23.43902,11.42817512581222,0.0709956150023006
23.441408,11.442798027230692,0.0708322110711512
23.443788,11.45835209420894,0.0706677375677068
23.446188,11.477630823426304,0.0704955334719608
23.448576,11.50063421488278,0.0703162757384217
23.450956,11.523637606339252,0.0701377688440225
23.453352,11.547711932982372,0.069954156135667
23.45574,11.579003266678235,0.0697389991921431
23.45812,11.61015483074724,0.0695280319920799
23.46052,11.639444063696686,0.069321926675969
23.462908,11.668733296646137,0.0691171332038792
23.465292,11.694018328102748,0.0689269591953381
23.467684,11.719675446611696,0.0687514435935977
23.470072,11.74319069474737,0.0685869783002172
23.472452,11.765215698815824,0.0684391944389931
23.474852,11.787612789936617,0.0683045823387849
23.477236,11.806005679564572,0.0681846990453773
23.479636,11.825050195498587,0.0680709032258648
23.482032,11.83529491251402,0.0679833255199635
23.48442,11.842187054342672,0.0679156059609477
23.4868,11.852152232104384,0.0678359637958438
23.489204,11.863467884306456,0.0677439006837395
23.491592,11.87091910464255,0.0676619773579619
23.493976,11.8843766272179,0.0675603562682889
23.496372,11.897322293114046,0.0674498150189145
23.49876,11.909336793450414,0.0673410958326594
23.50114,11.921351293786786,0.0672327748155052
23.50354,11.928430427070548,0.0671394195003095
23.505928,11.934578394794526,0.0670475195125118
23.508308,11.941937067332004,0.066947323227068
23.510708,11.94557107763037,0.0668530024054248
23.513096,11.950555562369097,0.066746179093609
23.515476,11.948370261883312,0.06664339982437
23.517876,11.94781497509161,0.0665209668044595
23.52026,11.950100406807485,0.0663703609888369
23.522644,11.952712599605324,0.0661884624262917
23.52504,11.95360223091047,0.0660052091844846
23.527428,11.954539084043851,0.0657982105615347
23.529812,11.96283271385685,0.0655599676985141
23.532208,11.973687522923704,0.065300751844841
23.534596,11.982447683445525,0.0650287138004996
23.53698,11.989485282474648,0.0647561466432446
23.53938,11.999084060757626,0.0644629581500974
23.541768,11.999371183442824,0.0641830661832275
23.544148,11.995002478329129,0.0639088453998938
23.546544,11.9890509813496,0.0636295206943412
23.548932,11.98407787175809,0.063325713397311
23.551312,11.98674107809991,0.062986396073767
23.553712,11.991174067762673,0.0626247195233171
23.5561,11.9910909992534,0.0622651161715856
23.558484,11.993569109997988,0.0618854378620517
23.56088,11.998328860742712,0.0614935084534821
23.563268,12.00751212186085,0.0610783962944185
23.565648,12.01576421741921,0.060664704714634
23.568048,12.02308514741779,0.0602531666992167
23.570436,12.030917934095571,0.0598517363157969
23.57282,12.044105396706543,0.0594284383637237
23.575216,12.05394028413074,0.0590217727565271
23.577604,12.058839804502323,0.0586274775100178
23.579988,12.06266838968727,0.0582377524468615
23.582384,12.06179392524508,0.0578751492288013
23.584772,12.061571087108948,0.0575188263053646
23.587156,12.059066608972682,0.0571743678070411
23.589564,12.061357728262164,0.0568222110194485
23.591948,12.070167006470095,0.0564651331420964
23.594332,12.080838615797584,0.0561066293681354
23.596728,12.08559647068444,0.0557828956461355
23.599116,12.082857779264824,0.0554894059205017
23.601496,12.075695577471794,0.0552151887067941
23.603896,12.070255937171462,0.0549425419831615
23.606284,12.062394887244134,0.0546847578605939
23.608664,12.05411452843622,0.0544378793970656
23.61106,12.048068587800206,0.0542035820797812
23.613448,12.045747309403302,0.0539677941292108
23.615832,12.043006722125815,0.0537425467141054
23.618228,12.038264034101918,0.0535214217166845
23.620616,12.02988923163752,0.0533224793341944
23.623,12.02458746510618,0.0531149857484656
23.625396,12.019937324880893,0.0529135772746959
