Time,Force,Position
22.396212,8.37426706274091,0.1537254672549092
22.398596,8.373664554120966,0.1535966983594798
22.400992,8.386657441845356,0.1532918873374683
22.40338,8.40453847479412,0.1529530487599803
22.40576,8.432195798191616,0.1525402394183768
22.40816,8.463530561999985,0.1521162903623443
22.410544,8.502686737338916,0.1516175603242226
22.412928,8.546823605700833,0.15111819953577
22.415332,8.596872332645518,0.1506011042436028
22.41772,8.651669435187708,0.1500432026418368
22.4201,8.705255832916402,0.1495058777530344
22.4225,8.76377759769771,0.1489034755917109
22.424888,8.834079649532036,0.1481116556123851
22.427272,8.896327972410324,0.1473920086766522
22.429676,8.939208809988369,0.1468696274179575
22.43206,8.9814852430886,0.1463161633598202
22.434444,9.00765232241888,0.1459608126118718
22.43684,9.02460029394999,0.1457401368437134
22.439224,9.046343862906854,0.1454610430543811
22.441608,9.080704440820034,0.145049846365611
22.444004,9.116088732091608,0.1446546889528384
22.446388,9.147933456721306,0.1443654856110426
22.448768,9.17852025470926,0.1441392736584008
22.451164,9.210689844563053,0.143908487954075
22.453552,9.243837821804863,0.1436374256979542
22.455936,9.275310459382224,0.1433488460805594
22.458332,9.31162591621358,0.1429850194166422
22.460716,9.348175586328283,0.1425632632765431
22.463116,9.384120851965164,0.1421127482867713
22.465512,9.420113339430292,0.1416279143363165
22.4679,9.463881912455614,0.1410339529216224
22.47028,9.507557937682314,0.1404254867289074
22.47268,9.546438365483263,0.1398781172496206
22.475064,9.5808952829108,0.1393915040382559
22.477444,9.620891971868764,0.1388769013787406
22.47984,9.6616328349314,0.1383925078642401
22.482228,9.714199311017437,0.1378088450020018
22.484608,9.773283946021923,0.1371717311959215
22.487004,9.833951372892242,0.1365327276760635
22.489392,9.891965072710088,0.1359153375016542
22.491776,9.94774435435604,0.1352994640258736
22.494172,9.996401072605726,0.1347154519712425
22.49656,10.036631974847037,0.1341583987128168
22.498956,10.069321004811504,0.1336431521207957
22.501352,10.09656281104416,0.1331712182188056
22.503736,10.12566694839637,0.1326849878115988
22.50612,10.150394797203411,0.1322395374259287
22.508516,10.16934866119668,0.1318800462150455
22.510904,10.18094574851034,0.1316059760604054
22.513284,10.194218175488452,0.1313493332114197
22.51568,10.200505912839294,0.1311946118413914
22.518068,10.206374341309552,0.1310574068860283
22.520448,10.20744717235406,0.1309639676728616
22.522852,10.215038162317017,0.1308167780708704
22.52524,10.22383985709347,0.1306513368333889
22.527624,10.23189737776525,0.1304607243148674
22.53002,10.234322579107989,0.1302661203037759
22.532408,10.225760785188484,0.1301272948313644
22.534788,10.209470127537037,0.1300577629799899
22.537184,10.19303970025873,0.129993396395213
22.592124,9.845828523315085,0.1299705812841191
22.59452,9.83340040167174,0.1299438011357988
22.596908,9.8230688244313,0.1298385050684251
22.599304,9.809479115660572,0.1297179422962315
22.6017,9.80175593950223,0.129541942529126
22.604088,9.79575532483659,0.1293560345748013
22.606472,9.791244954238168,0.1291417563177
22.608868,9.790366698080238,0.1288740198106492
22.611252,9.790140068228366,0.128609369457918
22.613636,9.794941353227724,0.1283202022156846
22.61604,9.810544537892088,0.127929607252944
22.618428,9.836437765542252,0.1274255206630676
22.620808,9.867593121326996,0.1268355946158352
22.623204,9.89851615968626,0.126228769570596
22.625592,9.929346650246908,0.1255974121809662
22.627976,9.957710405210182,0.1249515557461444
22.630372,9.981465554202812,0.1243177672807705
22.63276,10.001822802038292,0.1236741323945497
22.63514,10.020737027634794,0.1230316472754205
22.63754,10.038161009164078,0.1224178773276108
22.639924,10.052279637334829,0.1218167061398086
22.642304,10.06644548733382,0.1211875781902257
22.644704,10.072975021399484,0.1206472551753631
22.647092,10.085044326995575,0.1200956471782363
22.649472,10.090827791098697,0.1196103293347501
22.651868,10.097030564082395,0.1191105553044781
22.654256,10.10137100594654,0.1186240538208762
22.656636,10.105711447810686,0.1181395968102925
22.65904,10.108469097808992,0.1176579768862847
22.661428,10.108992329635406,0.117175090025736
22.663812,10.10192646735673,0.1167511092767096
22.666208,10.092998273958498,0.1163409344153286
22.668596,10.07750469981358,0.1160038596963134
22.670976,10.062103673467272,0.1156900455068994
22.673372,10.046934964546448,0.1153941418733398
22.67576,10.02878576749118,0.1151502354698575
22.678144,10.008587247861254,0.1149522218505837
22.68054,9.9896447590152,0.1147900785361378
22.682928,9.971306674646964,0.1146602039204632
22.685308,9.952689051025,0.1145401140602667
22.687708,9.936026306321216,0.1144310058837542
22.690096,9.921038901281886,0.1143427885573743
22.692492,9.91405989922822,0.1141842842323252
22.694888,9.903496004562305,0.1140455898828562
22.697276,9.895725606575724,0.1138878536818542
22.69966,9.88632519489506,0.113761286855172
22.702056,9.879438740640012,0.1136260480302798
22.704444,9.867849236757833,0.1135505063472033
22.706828,9.859565086234182,0.1134652192384567
22.709224,9.85710024649468,0.1133623019261537
22.711612,9.859523551979548,0.1132481459994875
22.713996,9.861899635636174,0.1131631664539128
22.716392,9.87237667007708,0.11303430847066
22.71878,9.882574165264268,0.1129155682625166
22.721164,9.894354452317293,0.1127949751737895
22.72356,9.913072207169346,0.1126181761689555
22.725948,9.933000666834896,0.112424819564734
22.728332,9.955769845008025,0.1121857091005538
22.730728,9.978306705755676,0.1119284720033074
22.733116,10.00112310575705,0.1116611337257467
22.735496,10.028223246504975,0.1113527006088581
22.7379,10.053461056133347,0.1110571563961786
22.740288,10.07627745613472,0.1107953714972515
22.742668,10.101468043934847,0.1105319132368107
22.745064,10.132385394720504,0.1102315734522714
22.747452,10.166096242185496,0.1099151000262973
22.749832,10.201529651143185,0.1095947736406109
22.752228,10.241898427153483,0.1092361984277429
22.754612,10.27919416723073,0.108905113899204
22.756992,10.309831978762666,0.1086185890933589
22.759388,10.336093501749431,0.1083509390760142
22.761772,10.360400145818025,0.1080709139049862
22.764168,10.374603738355912,0.1078467938360517
22.766564,10.390297574961023,0.107598581045264
22.768948,10.40254628858074,0.1073623923377658
22.771328,10.407997304028289,0.1071748493426151
22.773732,10.420246017648006,0.1069412201101127
22.77612,10.431795883133423,0.1067328762535604
22.7785,10.445580166790732,0.1065286339290712
22.780904,10.462809573433434,0.1063136630287673
22.783292,10.477757340076,0.1061252764279131
22.785672,10.496569538584538,0.1059129650973026
22.788068,10.51337963634666,0.1057156639973299
22.790456,10.52660484149653,0.1055342673861264
22.79284,10.53438282291459,0.1053798618326432
22.795236,10.540438242839954,0.1052313880486972
22.79762,10.542117374220144,0.1050989987568646
22.8,10.543284648921135,0.1049582895592177
22.802404,10.54752495955519,0.1047938319736046
22.804792,10.558842507615124,0.1045771376801741
22.807172,10.57267401310068,0.1043548017219036
22.809568,10.589671102317908,0.1041315608195101
22.811956,10.616771243065834,0.1038589245229947
22.81434,10.64224137011968,0.103614803940836
22.816736,10.670085684972282,0.1033688925475627
22.819124,10.703516993183552,0.1030939698571797
22.821504,10.723724992102827,0.1029188728072868
22.823908,10.740487868036707,0.1027543426960661
22.826296,10.751663750611916,0.1026190461677131
22.828676,10.757904266134512,0.1025173653452476
22.831072,10.761211515350912,0.1024349465461673
22.83346,10.75665013120851,0.1024049720714991
22.835844,10.755022013372296,0.1023559460027449
22.838248,10.756187392215422,0.1022923999246315
22.859752,10.77457649012764,0.1022543221904969
22.86214,10.77699789975464,0.1022276625451943
22.86452,10.785053524568548,0.1021482975441804
22.866916,10.791526357516622,0.1020695768807254
22.869304,10.812712743823916,0.1018772513598135
22.871684,10.83869472755696,0.1016595315181858
22.87408,10.868960452036564,0.1014068653593989
22.876464,10.9027185213298,0.1011194302674454
22.878844,10.938106604317111,0.1008063200389812
22.881252,10.97898913286448,0.1004446811397587
22.883636,11.01949957435951,0.1000725995481094
22.88602,11.061640029548618,0.0996774391992642
22.888416,11.102756771379331,0.0992656910010061
22.890804,11.144200274292013,0.0988208819369253
22.893188,11.183968437540235,0.0983560482632851
22.895592,11.22527406668392,0.0978437970868974
22.89798,11.267558083215627,0.0973042157721129
22.90036,11.307095824896246,0.0967510884282252
22.902756,11.341465882098774,0.0962113439902823
22.905144,11.367315679636436,0.0957134747758848
22.907524,11.391303146054542,0.0952249909102877
22.90992,11.412497115793313,0.0947502371516173
22.912308,11.428755718479469,0.0943073086946147
22.914692,11.442220824486292,0.093876376618592
22.917088,11.445675426761031,0.0935074982429426
22.919476,11.445684906050376,0.0931465021088942
22.921856,11.444111593473888,0.0927851070141063
22.924252,11.440024323471784,0.0924266207277373
22.92664,11.431001686417066,0.0920938489609432
22.929024,11.41639205600368,0.0917823313052785
22.93142,11.400991029657373,0.0914703346292698
22.933808,11.380654636258452,0.0911843076734515
22.936204,11.361389178046172,0.0908899571971517
22.9386,11.34012161908748,0.0906060092455609
22.940988,11.319365916807978,0.0903303332532806
22.943368,11.298842531953955,0.0900712149642791
22.945764,11.27510634154002,0.089834115876431
22.948152,11.251882007805278,0.0896048573046372
22.950532,11.229169530749738,0.0893836140073443
22.952936,11.212463355933448,0.0891285032061687
22.955324,11.19375508037074,0.0888835052381436
22.957704,11.173975869621392,0.0886453504419446
22.9601,11.15126339256585,0.0884207925572825
22.962488,11.130832555510446,0.088176273808079
22.964872,11.109191013641544,0.0879423303058197
22.967268,11.08633876695914,0.0877193296990486
22.969656,11.059994175463103,0.0875264604838106
22.97204,11.036815167698736,0.0873364100232552
22.974436,11.01922315329304,0.0871255808900563
22.976824,11.005727888178797,0.0869140339880547
22.979208,10.989671443810696,0.0867297824471936
22.981604,10.975197791308432,0.0865466721435026
22.983988,10.960165060298726,0.0863801792681112
22.986372,10.946295812274276,0.0862277787595177
22.988776,10.932426564249823,0.0860751074779593
22.991164,10.918557316225376,0.0859222340469934
22.993544,10.90641062969362,0.0857667398713943
22.995944,10.89919931021448,0.0855868980512134
22.998332,10.89627173148189,0.0853777303325158
23.000712,10.891714139055225,0.0851928068195058
23.003108,10.893162848867808,0.0849770205731348
23.005496,10.89540295461331,0.0847619403204442
23.007876,10.901507492224786,0.0845303541069679
23.010276,10.90812388651546,0.0843089090312549
23.012664,10.92167774860516,0.084054053099245
23.015044,10.9363025458815,0.0837918734555417
23.017448,10.95786481095687,0.0834965446769203
23.019836,10.978123823420123,0.0831920777092666
23.022216,10.99773120957732,0.0828834734344982
23.024612,11.021622336481071,0.0825488815990084
23.027,11.0459327722654,0.0822012067915611
23.029384,11.073456013609649,0.0818339842940042
23.03178,11.10232972939425,0.0814530649987448
23.034168,11.12962065331302,0.0810693716414066
23.036548,11.157702973164708,0.0806884337601172
23.038948,11.184062731523696,0.0803091869283792
23.041332,11.210422489882689,0.0799308077729072
23.043712,11.23557154342818,0.0795662652451271
23.046112,11.257647561040615,0.0792194363314468
23.0485,11.280142887533632,0.0788611007619384
23.05088,11.297702846974037,0.0785252687750451
23.053276,11.317544446414578,0.078173025722866
23.055664,11.33738604585512,0.0778223678431528
23.058044,11.353502983056549,0.0774816948187903
23.06044,11.36789735876528,0.0771440774240165
23.062828,11.386156166339989,0.0767943293988245
23.065228,11.40069031167558,0.0764555480334739
23.067624,11.411592342570676,0.0761471856215006
23.070012,11.424356704585328,0.0758355070029281
23.072392,11.43325663473401,0.0755386534522757
23.074792,11.444670522308304,0.0752430265918551
23.077176,11.45594464025574,0.0749530098679491
23.07956,11.465728514135954,0.0746813900435693
23.081956,11.48044775506878,0.0743920596338402
23.084344,11.49330466488205,0.0741074907456135
23.086724,11.511608798427131,0.0738152330882728
23.08912,11.528981766412432,0.0735253670493931
23.091508,11.54155913697198,0.0732498856637253
23.093888,11.556510695330282,0.0729804038610223
23.096296,11.572393419248368,0.0727098029954887
23.09868,11.58664612947237,0.0724594686165993
23.101064,11.599688134882877,0.0722196375021325
23.10346,11.609517334733464,0.0719973777626197
23.105848,11.623862592756083,0.0717692254303579
23.108228,11.636857376338344,0.0715552031202629
23.110628,11.644217944733692,0.0713778946748561
23.113012,11.655023636114432,0.0712011776469193
23.115396,11.671975399361283,0.0709981764193452
23.1178,11.687017609660336,0.070824349905218
23.120188,11.703642611825224,0.0706551271087187
23.122568,11.72133854917675,0.0704811754129258
23.124964,11.733819580221944,0.0703314412845423
23.127352,11.743507114587803,0.070186832664359
23.129732,11.751844174513304,0.0700562109201576
23.132128,11.762695191864418,0.0699280807871913
23.134516,11.77061294290934,0.0698096773069394
23.1369,11.780253255446953,0.0696917603400565
23.139296,11.794549395783465,0.0695654080388461
23.141684,11.809125075373688,0.0694323779855003
23.144068,11.824352381269977,0.0693057986381262
23.146464,11.849590190898343,0.0691451966290004
23.148852,11.879483828325608,0.0689779317343285
23.151236,11.912310732059064,0.0688023753536957
23.153632,11.94513763579252,0.0686280145258315
23.15602,11.97717314359306,0.0684520057242688
23.158404,12.01470309695365,0.0682468296632195
23.160808,12.04743745288849,0.0680536400746896
23.163196,12.077238542517136,0.067870029475854
23.16558,12.11002012028022,0.067655819853799
23.167976,12.138145870244411,0.0674493406259969
23.170364,12.164549058715906,0.0672433380343014
23.172744,12.195096218307096,0.0670206668424931
23.175144,12.231649680137537,0.0667791417558459
23.177532,12.264338710102,0.0665473608985111
23.179916,12.292651451521294,0.0663158416336116
23.182312,12.317379300328335,0.0660865399694533
23.1847,12.339453422082904,0.065858162977895
23.187084,12.360875917531413,0.0656251826679362
23.18948,12.378853289994533,0.0653912252628806
23.191868,12.392454373912477,0.0651571322290711
23.194252,12.394741701486222,0.0649431828615619
23.196652,12.388788308648822,0.0647376747933743
23.199036,12.382323059132224,0.0645230523637664
23.20142,12.37455455700351,0.0642972165355284
23.203816,12.368927925248071,0.0640619643047641
23.206204,12.357854069760826,0.0638304531334096
23.208588,12.3494811631543,0.063575240186029
23.210984,12.337523363935516,0.0633204523744158
23.213376,12.319838801731208,0.0630758648282632
23.215756,12.305087505833091,0.062823803986117
23.218152,12.28754271325564,0.0625744028830838
23.22054,12.268554898439213,0.062316474388177
23.222924,12.244259629517838,0.062057602995599
23.22532,12.221734143917402,0.0617759293867337
23.227712,12.2032128598098,0.0614825983451785
23.230092,12.187904381262111,0.0611750359205871
23.232492,12.17687964346098,0.0608496154144123
23.23488,12.16334094823423,0.0605198765413945
23.237264,12.1505936489404,0.0601919687201825
23.23966,12.140919385579624,0.0598537185043284
23.242052,12.135109554084824,0.0595070146209646
23.244432,12.133303924082856,0.0591490632434836
23.246836,12.132569229267528,0.0587874670513282
23.24922,12.129692664078922,0.0584342811308262
23.2516,12.124813998143898,0.0580864188356965
23.253996,12.12258905926135,0.0577391900683018
23.256384,12.12073620743114,0.0574056658925754
23.258764,12.1244703489596,0.0570676098742246
23.261168,12.129927051980756,0.0567310266576369
23.263556,12.134732128695854,0.0563883725177843
23.265936,12.142190932463429,0.0560467768777119
23.268332,12.14829926179064,0.055715957492895
23.27072,12.157992483730109,0.0553862511817501
23.2731,12.168057792721914,0.0550701779633348
23.275496,12.1761210009673,0.054759258220508
23.277884,12.183764900332108,0.054459187288142
23.280264,12.188847620443054,0.0541782428162165
23.28266,12.194302427606342,0.0539102490814503
23.285048,12.199198156262188,0.0536557527888097
23.287432,12.201392936037315,0.0534226453507989
23.289828,12.203308176558725,0.0531962427541963
23.292212,12.200520367452995,0.0529951295444105
23.294596,12.192377882414076,0.0528129733724128
23.296992,12.183024692561656,0.0526374230003797
23.29938,12.17339196345552,0.0524684716659975
23.30176,12.160686198416323,0.0523071286906024
23.304156,12.150122303750408,0.0521385467544575
23.306544,12.136485373151434,0.0519778966861555
23.308928,12.120427032925464,0.0518310897985425
23.311328,12.103949383818913,0.051694176247533
23.313716,12.089613605085638,0.0515497923463139
23.3161,12.078862718964618,0.0514076149331679
23.318496,12.063408783216463,0.0512902228238738
23.320884,12.045673207468171,0.0511833685229243
23.323268,12.02551622209288,0.0510902895747855
23.325664,12.004148531904091,0.0510040665716033
23.328052,11.979707805782247,0.0509251447284476
23.330436,11.955127310033545,0.0508493720596319
23.332832,11.928032856859224,0.0507669617142358
23.335224,11.905082374804598,0.050673116054242
23.337604,11.884273763123248,0.050571639489454
23.34,11.870542388867788,0.0504548234920424
23.342388,11.86253777759786,0.0503331686277689
23.344768,11.857047123753548,0.0502175802444144
23.347168,11.851276930655512,0.0501087345173614
23.349556,11.851093730916146,0.0499988576190423
23.351936,11.843833293750892,0.0499038721443272
23.354336,11.83643308695878,0.0498121707897269
23.356724,11.83289731203264,0.0497162794659541
23.359104,11.82922176747964,0.0496237098793681
23.361504,11.820051777366585,0.0495524992019028
23.363892,11.804084089081362,0.0494888689557439
23.366272,11.790537810423135,0.0494108606518119
23.36868,11.777271071018632,0.0493255576926898
23.371068,11.767077367547184,0.0492326635660568
23.373452,11.755812728889094,0.0491431480856605
23.375844,11.745479255790784,0.0490531719600021
23.378232,11.735285552319334,0.0489594654896023
23.380612,11.730678842206556,0.0488649951699203
23.383016,11.718994894667889,0.0487850258809417
23.385404,11.701816501569166,0.0487264644745663
23.387784,11.678631806231197,0.0486788084446187
23.39018,11.652513844587029,0.0486347136403795
23.392568,11.625744256636803,0.0485834164124316
23.394948,11.595250006447468,0.048532100588694
