Time,Force,Position
22.091596,8.784754287638435,0.1523427882575572
22.093984,8.793132881818568,0.1523395885191492
22.096368,8.820319882791503,0.1521786460393214
22.098764,8.853745503429167,0.1519536697941753
22.101152,8.891874173693967,0.1516477349010815
22.103536,8.941084282877489,0.1511974257892899
22.105932,8.993646967247784,0.1507022342810944
22.10832,9.050213853110916,0.1501567546811319
22.1107,9.10696773042915,0.1495776926240553
22.113104,9.159113001776737,0.1490201926886889
22.115492,9.203995940101198,0.148510951206308
22.117876,9.250741209545216,0.147979693621618
22.120272,9.303445559400243,0.147395988011877
22.12266,9.364622947091894,0.1467466773708026
22.125044,9.420864967730932,0.1461551974187219
22.127448,9.485534700236215,0.1454453463568858
22.129836,9.545501383114368,0.1448288086524754
22.132216,9.592244756700516,0.1443945951535925
22.134612,9.63456461991325,0.1440289307774263
22.137,9.679213344954366,0.1435934644381287
22.13938,9.723584426599633,0.1430812173690656
22.141776,9.75668897372894,0.1426707958680184
22.144164,9.791470756380573,0.1422044337504846
22.146544,9.826951387166504,0.1417124382718979
22.148948,9.85088594418276,0.1413175852112038
22.151336,9.860248613324522,0.1410298691767169
22.153716,9.864164058734476,0.1407925984014663
22.156112,9.86891812190559,0.1405246564211948
22.1585,9.872181941009488,0.1402874318848909
22.16088,9.876376925673169,0.1400412344260504
22.163276,9.88043214070998,0.1398001220102579
22.165664,9.889562492426268,0.1395016964224293
22.168044,9.902277736754804,0.1391760179313765
22.170444,9.910756462165034,0.1388776171058258
22.172832,9.920912423097583,0.1385121920402842
22.175212,9.91845137507382,0.1382497282754672
22.177608,9.91496661369166,0.1379726621279607
22.179996,9.921632125668449,0.1375800141459361
22.182392,9.931278125779668,0.137126771469652
22.184788,9.938130629211557,0.136697597075509
22.187172,9.944284284509145,0.1362951385686906
22.189556,9.94731768204543,0.1359570886094938
22.191952,9.94243522439467,0.1357333772111087
22.19434,9.938483932303688,0.1355017356724721
22.19672,9.93732613689204,0.1352433289034019
22.199124,9.938123220398566,0.1349907882662718
22.201512,9.941434261330707,0.1347253726235289
22.203892,9.94204435338213,0.13450993876058
22.206288,9.94470376800821,0.134244009087585
22.208676,9.94377829002204,0.1340041257400202
22.21106,9.945134452036006,0.133732123526077
22.213456,9.94304549106458,0.1334836495288189
22.21584,9.93914142080184,0.1332231771096694
22.21822,9.938310386472155,0.1329287448439881
22.220628,9.940085857366704,0.1326444926941619
22.223016,9.94553876867212,0.1323551098450653
22.225396,9.952062615164175,0.1320537083411482
22.227792,9.95430272090968,0.1318072383266354
22.23018,9.95463327370738,0.1316048580231835
22.232564,9.954916604676844,0.1314303692219302
22.23496,9.95492039639258,0.1312661042265959
22.237348,9.963771208855148,0.1309877539850573
22.239728,9.976673444638791,0.1306408690315536
22.242124,9.982358673369689,0.1303730312636099
22.244512,9.990138550645614,0.1301071861593956
22.246896,10.000991463854596,0.1298072209013891
22.249292,10.009749728518546,0.1295061608618524
22.25168,10.015062870197104,0.1292249348230408
22.25406,10.01776761079356,0.1290145372982476
22.256456,10.025080957360666,0.1287942391785096
22.258844,10.031276146912887,0.1286164195009059
22.26124,10.036540170905337,0.128447030436804
22.263636,10.037240914897504,0.1283391157466816
22.266028,10.032167674075902,0.1283106594761132
22.268408,10.028677225120134,0.1282775268439525
22.270808,10.038829394336949,0.1280916801378828
22.273192,10.049261102807485,0.1278970140833739
22.275576,10.059180954598816,0.1276954122653619
22.277972,10.074827569375689,0.1274465711359581
22.280356,10.097691191205302,0.1271229489960361
22.28274,10.125118093035193,0.1267420334679558
22.285136,10.144024735200215,0.1264323398968326
22.28752,10.15622622699169,0.1262057883682158
22.2899,10.176668439194309,0.1259206875993234
22.292304,10.203256723263038,0.1255760709018014
22.294692,10.234268517705182,0.125183415770696
22.297076,10.263417981027768,0.1248059479561299
22.299472,10.299085603268804,0.1243829163222179
22.30186,10.33638323920392,0.1239284379844165
22.304244,10.374519492900196,0.1234460874462903
22.30664,10.411259946185735,0.1229342799699982
22.309024,10.447628312418942,0.1224120640402806
22.311408,10.487489023465782,0.1218442281892622
22.313812,10.533915115259315,0.1212014374426711
22.3162,10.579457263321316,0.1205413160835366
22.318584,10.611031927986636,0.1199884845036638
22.32098,10.636879829666432,0.1194793022235517
22.323368,10.660074004293753,0.1189855244450806
22.325748,10.67796072481612,0.1185225639206364
22.328144,10.691471156793316,0.1180841434583488
22.330532,10.703259027277817,0.1176563772960275
22.332912,10.719051099255152,0.117194592703643
22.335312,10.73940645123276,0.1166795123698083
22.337696,10.755944593172636,0.1161680409591166
22.34008,10.76438178432823,0.115703017198809
22.342476,10.76215684544568,0.115318126560024
22.344864,10.75699864025694,0.1149545466547172
22.347244,10.745741585030329,0.1146186661440009
22.349644,10.73262219868416,0.1142940566575517
22.352028,10.71619745897946,0.1139780975047046
22.354412,10.701635050394318,0.1136497514695082
22.356808,10.686932872182316,0.113325878010744
22.359196,10.671159758783674,0.1130120307333233
22.361592,10.652313609451976,0.1127244754963307
22.363988,10.629975115306642,0.1124764777495281
22.366376,10.609871039333202,0.1122291506350503
22.368756,10.592700229665956,0.1119591334509846
22.371156,10.574318715185212,0.1117032054642646
22.37354,10.55551789182389,0.1114606529693655
22.375924,10.534435428462428,0.111242800930349
22.37832,10.506787584354276,0.1110918845181132
22.380708,10.476206473939932,0.1109618095511787
22.383088,10.442412557965667,0.1108618695669284
22.385484,10.411784225723078,0.1107571391074683
22.387876,10.386183808331715,0.1106370985532076
22.390256,10.366961780231945,0.1104823137983195
22.39266,10.349462313624867,0.1103205086364195
22.395048,10.333266099629906,0.1101659374451265
22.397432,10.31758174231414,0.1100197071612948
22.399828,10.305574825409249,0.1098785865999951
22.402216,10.291937894810273,0.1097666857301057
22.4046,10.274808619397664,0.1096952280086228
22.406996,10.259541675104614,0.1096121155223006
22.409384,10.243715652304122,0.1095479578618028
22.411768,10.230683126182964,0.1094669490638694
22.414164,10.21909362230078,0.1093891084441023
22.416552,10.20694503991116,0.1093302999430208
22.418932,10.199032976439844,0.109258092870416
22.421332,10.19312301371495,0.1091698314761227
22.42372,10.19051840434859,0.1090737309278173
22.426104,10.196061967594757,0.1089090375341391
22.4285,10.203979718639674,0.1087422883973167
22.430892,10.21441142711021,0.1085686733383811
22.433268,10.222561495580608,0.1084210922227972
22.435664,10.229500859237504,0.1082891789209258
22.438048,10.236300453267544,0.1081625024356493
22.440428,10.247616105469612,0.1080139728712415
22.442836,10.260654319164376,0.1078596848461699
22.44522,10.2755548639787,0.1076948382942885
22.4476,10.289664012860104,0.1075313389811042
22.449996,10.306706428047702,0.1073476728798401
22.452384,10.328544440661055,0.1071325650971541
22.454764,10.35317594995374,0.1069043125763049
22.457168,10.378086998500146,0.106666258629408
22.459552,10.405931313352747,0.1064096819811768
22.461932,10.434055167459071,0.1061447896711235
22.464328,10.468185323804644,0.1058372111095769
22.466716,10.50180362347102,0.1055226596633841
22.469112,10.536073549443453,0.105213526529031
22.471516,10.574906755416158,0.1048606555637355
22.4739,10.61173786064245,0.104525607833162
22.47628,10.647637800308962,0.1041963072502626
22.478684,10.684888214415835,0.103850859116294
22.481072,10.721906311097229,0.1034880570597467
22.483456,10.758692090353144,0.103108875752695
22.485852,10.796036948116503,0.1027138286368497
22.48824,10.833009718827524,0.10230926428307
22.49062,10.87347483435218,0.1018725153987273
22.493016,10.914499028384276,0.1014204044585143
22.495404,10.95328880424448,0.1009649888528154
22.497784,10.990635557865703,0.1005079258586943
22.500188,11.027749994061455,0.1000363854303166
22.502576,11.059789293577731,0.099602724515958
22.504956,11.096763960146625,0.0991411085393488
22.507352,11.131876295595957,0.0986914596232849
22.50974,11.163683277686754,0.098246276896761
22.51212,11.192045136792162,0.0978137183542221
22.51452,11.21961559996465,0.097382650399586
22.516904,11.246953745711664,0.0969358876876799
22.519284,11.265352322913229,0.0965447825150197
22.521684,11.2808176338086,0.0961703652340641
22.524068,11.29670225358455,0.0957836964007498
22.526452,11.308582671867669,0.0954222917076931
22.528848,11.320974946829985,0.0950699198401317
22.531236,11.33201674735194,0.0947345668177643
22.533616,11.33984574231398,0.0944240832072562
22.53602,11.344601701342969,0.094134642457843
22.538408,11.340138552572787,0.0939057065499231
22.540788,11.331531432682912,0.0937047063059432
22.543192,11.325438270218651,0.0935003898764925
22.545576,11.317854863687174,0.0933166580673651
22.547956,11.307570508274974,0.0931658033187026
22.55036,11.29542382174322,0.0930222091822672
22.552748,11.276339667412438,0.0929178434774496
22.555128,11.254462016402318,0.0928244653742823
22.557528,11.236681114683652,0.0927286680531621
22.559912,11.213545537031791,0.0926724918283916
22.562296,11.191061585685992,0.0926204874705397
22.564692,11.16680785101925,0.0925970270838694
22.567076,11.14828087933804,0.0925467411191327
22.569456,11.131476469149526,0.0924930890372812
22.571852,11.113461354147512,0.0924512335741787
22.57424,11.099310671011471,0.0923901447349976
22.57662,11.084228822315657,0.092332537005591
22.579016,11.070217908806471,0.0922668218450778
22.581404,11.05914026160349,0.0921857487782277
22.583784,11.0497851758932,0.0921014769449573
22.586184,11.046296622795298,0.0919867472219622
22.588568,11.049605767869568,0.0918384472613869
22.590968,11.049050481077868,0.0917086412425998
22.593368,11.05170799984608,0.0915556987975522
22.595756,11.054924597121731,0.0913857992111627
22.598136,11.062564704770802,0.0911805981477633
22.60054,11.07649065391284,0.0909336197319814
22.602928,11.092278934174438,0.0906795980404571
22.605312,11.105832796264137,0.0904201149691219
22.607704,11.124601564660171,0.0901259361600295
22.610092,11.142858476377004,0.0898237253141572
22.612476,11.1607433010415,0.089507713406128
22.614872,11.178628125706,0.0891936120877968
22.61726,11.199074129624355,0.0888533458104578
22.61964,11.222732939102626,0.0884917631291389
22.622036,11.24359825190156,0.0881413100914182
22.624424,11.267536600633557,0.0877737959523781
22.626804,11.28961261824599,0.0874129001273008
22.629204,11.30982630473887,0.0870592751345761
22.631588,11.325663702686576,0.0867133063367091
22.633968,11.33912691283553,0.0863650328681246
22.636368,11.34872569111851,0.0860355094082128
22.638752,11.362328670894325,0.0856849866248354
22.641132,11.3731381539908,0.0853449206828796
22.643532,11.38273693227378,0.0850157152468289
22.645916,11.38991430092976,0.0847096265650511
22.6483,11.389874662532996,0.0844455751100216
22.650696,11.38876408894959,0.0841885975255868
22.65308,11.387094436858744,0.0839476848605001
22.65548,11.382491518461704,0.0837198703649441
22.657876,11.375606960064523,0.0835100129708298
22.660264,11.371376128719824,0.0832951451137162
22.662648,11.359556203270031,0.0831075830615787
22.665044,11.346385803379883,0.0829353351973159
22.667432,11.33121330274332,0.0827728904204807
22.669816,11.318042902853172,0.0826004448727713
22.672212,11.29979736628355,0.0824541146312115
22.6746,11.282482995273709,0.0823044381125268
22.67698,11.26703095538342,0.0821488662600646
22.679376,11.255163808105388,0.0819854843219686
22.681764,11.248604114932306,0.0818135564582145
22.684144,11.238179989893249,0.0816562456258695
22.686544,11.226684929667552,0.0815056854029746
22.688932,11.212908229441718,0.0813722255731287
22.691312,11.20220456514894,0.0812222468030902
22.693708,11.192571836042802,0.0810653261518377
22.696096,11.188154013242992,0.0808783245332433
22.69848,11.188671557495798,0.0806704110928347
22.700884,11.191610511375604,0.0804413019713718
22.703272,11.200276228240938,0.0801931595497968
22.705652,11.209733341039186,0.0799459197033383
22.708052,11.21704858346416,0.0797121573197767
22.71044,11.23153361111364,0.0794647850587664
22.71282,11.240152106150733,0.0792405553770137
22.715216,11.247140587493742,0.0790390573972966
22.717604,11.251847428836616,0.0788550656910251
22.719984,11.263491737978516,0.078641405581339
22.722388,11.277650004546032,0.0784285849276162
22.72478,11.287524530366996,0.0782417696553226
22.72716,11.298981848053794,0.0780584898243659
22.729556,11.3045726331282,0.0778988296344336
22.731948,11.315610641934418,0.0777279821737496
22.734328,11.327020737792973,0.0775708917788098
22.736728,11.34415759663706,0.0773951004312695
22.739116,11.359943981040788,0.0772343018433393
22.741496,11.377452926937211,0.0770733093148482
22.743892,11.396125355818892,0.0769283378041152
22.74628,11.407720547274684,0.0768162926544346
22.74866,11.417406185782674,0.0767344306215116
22.75106,11.420945752424553,0.076682668755442
22.753444,11.43156255649232,0.076599533132008
22.755828,11.44497285723942,0.0765096949873368
22.758224,11.456008970187773,0.0764152988725753
22.760612,11.476636277987623,0.0762906466877483
22.762992,11.499545225787616,0.0761498891712427
22.765388,11.523385339147383,0.0760068975382962
22.767776,11.542290085454535,0.0758838761628706
22.77016,11.561194831761696,0.0757615499054251
22.772556,11.584243549188544,0.0756185894617719
22.774944,11.604359000309197,0.0754863628488564
22.777324,11.62540561698963,0.0753516565794454
22.779724,11.642587801804089,0.0752297314691076
22.782108,11.659537669193073,0.0750910564326533
22.784492,11.67141239990258,0.0749750874742691
22.786888,11.682216195425454,0.0748650970306088
22.789276,11.689807185388409,0.0747733504441666
22.791672,11.693021886806193,0.0746849072369209
22.794068,11.69744729303748,0.0745862225678384
22.796452,11.701640381843283,0.0744703402349127
22.798836,11.707975341022369,0.0743422192922701
22.801232,11.703368630909589,0.0742574225325696
22.80362,11.696108193744337,0.0741752448207694
22.806,11.692572418818196,0.0740846241381384
22.8084,11.683030341652804,0.0740182945775746
22.810788,11.672557098927635,0.0739539832611375
22.813168,11.661432229896407,0.0738839626781351
22.815568,11.65002782161146,0.0738214586878733
22.817956,11.6361094559009,0.0737573808319016
22.820336,11.622330859817197,0.0736893631636888
22.822732,11.60897157261407,0.0736097487551595
22.82512,11.598685321344004,0.0735164173177154
22.827504,11.594684911566912,0.0733922346885905
22.8299,11.590404962536097,0.0732756328320192
22.832288,11.590688293505554,0.0731285367652076
22.834668,11.595395134848427,0.0729551932341393
22.837064,11.60266315544516,0.0727592738595585
22.839452,11.611002111228526,0.072557397015548
22.841836,11.619201297385036,0.0723587592033011
22.844232,11.634058412086857,0.0721443917509008
22.846624,11.650126231602172,0.0719212873788091
22.849004,11.673131518916518,0.0716734929139265
22.851404,11.69762705029808,0.0714094182940365
22.853792,11.717326984253894,0.0711589988581745
22.856172,11.737725766344008,0.0708898283068932
22.858568,11.758823396568422,0.0706028128988196
22.86096,11.781643588285537,0.07031650599963
22.86334,11.805162628136946,0.0700115030212844
22.865736,11.829752603174995,0.0697015220937711
22.868124,11.853551182280128,0.0693906115892685
22.870508,11.881633502131818,0.069059799476006
22.872904,11.910135130864084,0.0687202393478182
22.875292,11.933841162170598,0.068394456469545
22.877676,11.961970703850527,0.0680462484621814
22.880076,11.98837768403776,0.0676994655188409
22.882464,12.010268606052966,0.067358154877268
22.884844,12.030576736202333,0.0670135880800451
22.887252,12.053026736724972,0.066659721382456
22.88964,12.08111095243453,0.0662748293995974
22.892024,12.101233986986662,0.0658939505415531
22.89442,12.119774229672958,0.0655096399170093
22.896808,12.1359402845605,0.065119779551523
22.899188,12.15075586500768,0.0647424074435455
22.901584,12.167061689522082,0.064349288978639
22.903976,12.187231945902456,0.0639493239382064
22.906356,12.204049627096056,0.0635672732263185
22.908752,12.218632890117762,0.0631750558664944
22.911144,12.23614941944566,0.0627770995304449
22.913524,12.252083156907725,0.0623746763450897
22.91592,12.267365268063733,0.0619669119461666
22.918308,12.279434573659822,0.0615748596160867
22.920692,12.28763944738994,0.0611913370586135
22.923088,12.295052925187138,0.0608050410943431
22.925476,12.291384964065614,0.0604503440810286
22.92786,12.285575132570813,0.0601043482327686
22.93026,12.279066452941713,0.0597749920829083
22.932648,12.273209399618665,0.0594516483449489
22.935028,12.267352346295622,0.0591289921212677
22.937428,12.257071782599166,0.0588278544109003
22.939816,12.248094471514822,0.0585380902479442
22.9422,12.238837621176758,0.0582549154438319
22.9446,12.229301231584971,0.0579783196871149
22.946988,12.220975546806688,0.0576938529105038
22.949368,12.2155831283346,0.0574040529709013
22.951764,12.205255342809895,0.0571250713310522
22.954152,12.198931758778029,0.0568360653405166
22.956532,12.194190966611998,0.0565523273716988
22.958936,12.188519008886187,0.0562700847545023
22.961324,12.188573814145911,0.0559815061647764
22.963704,12.189420015338548,0.0556959043098663
22.966108,12.189614590225126,0.0554041848578466
22.968496,12.193673596977684,0.0551073949320092
22.970876,12.197872373357098,0.0548068058176812
22.973272,12.211290257535676,0.0544808038169979
22.97566,12.224568372087395,0.0541577135562466
22.97804,12.240547435519831,0.0538134257322638
22.980436,12.255735103019353,0.0534666436502348
22.982824,12.267989504212675,0.0531249013192821
22.985204,12.280383675032864,0.0527797503369941
22.9876,12.28984457954685,0.0524381316893235
22.989988,12.297163613687564,0.0521033656144288
22.992372,12.30140961189522,0.0517754985315845
22.994768,12.3047244445431,0.0514481844913983
22.997156,12.302405062004066,0.0511462409883493
