Time,Force,Position
21.367932,8.024825117880834,0.159045734258986
21.370324,8.043913063927352,0.1588489121084994
21.372704,8.055876550719741,0.1587996444330718
21.375104,8.070960295273428,0.1586701823907058
21.377492,8.090235232775054,0.1584404563880896
21.379872,8.112350888784258,0.1581313254002109
21.382272,8.125154889195674,0.1579363739782706
21.38466,8.135817019233818,0.1577831401881238
21.38704,8.171620619385974,0.1572981320408037
21.38944,8.22963242334595,0.1565134369114294
21.391828,8.282708860253315,0.1558003990435195
21.444384,8.45218650508809,0.1556171793638097
21.44678,8.457401411394423,0.1555364703485698
21.449168,8.477841727739172,0.1552344727678449
21.451548000000003,8.500191597031723,0.1548767182956321
21.453956,8.532132661175773,0.1543965524452177
21.456344,8.570452114611415,0.1538531489468177
21.458728,8.611797382151867,0.1533052377933006
21.461128,8.667389672342715,0.1525889137961799
21.463516,8.731082913317847,0.1517903675083831
21.465896,8.799711521345593,0.150923981509362
21.468296,8.870342230119753,0.1500421005529984
21.470684,8.940833169267053,0.1491771408396688
21.473068,9.019192741773162,0.1482155660414199
21.475468,9.09988117610765,0.1471859190593175
21.477852,9.17000192406048,0.1462411446366898
21.480236,9.233559187124492,0.1453094770219208
21.482636,9.287292937911522,0.1444798637301999
21.485024,9.341585767205991,0.1436254190716653
21.487404,9.394947430940684,0.1427814230341682
21.489808,9.450311195421792,0.1419159017617702
21.492196,9.504604024716262,0.1410633631235046
21.494576,9.552424021062656,0.1403521411036744
21.496972,9.595773285207397,0.1397556338228934
21.49936,9.640425801964248,0.1391670519884033
21.50174,9.675394576070984,0.1386593558683231
21.504144,9.700679607527595,0.1382334821762784
21.506532,9.724102307864651,0.137830530547779
21.508912,9.740727310029538,0.137507525629455
21.511308,9.752464166970055,0.1372113395786371
21.513696,9.761314979432624,0.1369175120341255
21.51608,9.762204610737768,0.1366853233792309
21.518476,9.762210298311372,0.136433248763841
21.520864,9.759562258832506,0.1362027939506874
21.523244,9.7551444360327,0.1360131493604429
21.52564,9.752541722524208,0.1358361404385366
21.528028,9.757341111665696,0.135622830055241
21.530408,9.768239350845054,0.1353686231965238
21.532804,9.78537620968914,0.1350704787880563
21.535192,9.80609796114548,0.1347465961837797
21.537572,9.82467784222854,0.1344506727358635
21.539968,9.84525982405802,0.1341329086916276
21.542356,9.867891128462158,0.1337674267477083
21.544736,9.888427784321264,0.1334023587553409
21.547136,9.906730022008473,0.1330408453089471
21.549524,9.92554411637488,0.132683391483651
21.64032,9.80047150400853,0.1324307848802671
21.642708,9.800286408411296,0.1323830906951161
21.645088,9.80159155688128,0.1323070877846555
21.647492,9.808950229418762,0.132141618090776
21.649876,9.819661477143017,0.1319328866828497
21.652256,9.839731602293297,0.1316210057431995
21.654652,9.865016633749908,0.1312531131872246
21.65704,9.89393377964702,0.1308332690063783
21.65942,9.92233906886493,0.1304061971271201
21.661824,9.958612991441653,0.1299062261870759
21.664212,10.002615777750314,0.1293387545022142
21.666592,10.05383557111173,0.1286902287355575
21.668996,10.106033751861164,0.1280134617680771
21.671384,10.161352190371902,0.1272792486805447
21.673764,10.213132958098628,0.1265422085726102
21.676156,10.262167450974262,0.1258054611833337
21.678544,10.307152416386687,0.1250597894221664
21.680924,10.355397409187274,0.1242521980144698
21.683328,10.399964961576991,0.1234462477746391
21.685712,10.441227160608172,0.1226564565224268
21.688092,10.47997540221374,0.1218806387569241
21.690496,10.517699930460912,0.1210952024750392
21.69288,10.552119105349547,0.1203265745597988
21.695264,10.579321273185435,0.1196323563910957
21.697668,10.606802980275043,0.1189325833172852
21.700052,10.626695593259573,0.1182927871554295
21.702432,10.641700061019728,0.11767020712033
21.704836,10.65433034098113,0.1170544087306453
21.707224,10.669242260942664,0.1164137493740889
21.709604,10.678055330866336,0.1158038194704804
21.712008,10.6796986155655,0.1152335954663777
21.714396,10.682040748398965,0.1146417893194831
21.716776,10.67781750048574,0.1141182695528061
21.71918,10.66931051182596,0.1136367700705612
21.721568,10.664248646151572,0.1131411957590197
21.723948,10.655834205290407,0.1126810163332169
21.726344,10.644718815548526,0.1122588282453953
21.728732,10.628108980246594,0.1118927438588292
21.731112,10.610660527183498,0.1115534700102749
21.733508,10.591721830053183,0.1112375921627676
21.735892,10.570501492922732,0.1109464797698469
21.738276,10.544717875792006,0.110705939387753
21.740672,10.51716447534034,0.1104988304950174
21.74306,10.49054224044845,0.1102852368076779
21.74544,10.461498595929566,0.1101011615626167
21.747844,10.434037743276518,0.1099144207973605
21.776516,10.1085039548828,0.1098636126145666
21.778904,10.101428613314782,0.109842100937844
21.781284,10.097658625105296,0.1098127891588696
21.78368,10.10226912693381,0.109733957523118
21.786064,10.114189183613696,0.1096164753463015
21.788444,10.129694132905833,0.1094819971006403
21.79084,10.147573269996723,0.1093455595029278
21.793228,10.165405185259374,0.1092368539727764
21.795608,10.185331749067055,0.1091359794761977
21.798012,10.20991414067363,0.1090080515897735
21.8004,10.2362190937729,0.1088733376547158
21.802784,10.268670118738282,0.1086865712696241
21.80518,10.300981374076802,0.1085044234256481
21.807564,10.332221694228682,0.1083336866369698
21.809944,10.369608086246677,0.1081118913295323
21.812344,10.403130046398694,0.1079167977290534
21.814732,10.438793876923992,0.107700917375856
21.817128,10.472083519650534,0.1074865023287058
21.819524,10.500158256070744,0.1073196533346245
21.821912,10.526510430998256,0.1071606873478717
21.824292,10.554864706672188,0.1069867493595915
21.826688,10.584662004585091,0.1068185697077702
21.829076,10.616461403244417,0.1066366210472703
21.831456,10.640531938171794,0.1065069428108358
21.833856,10.655942443807444,0.1064332010923952
21.836244,10.672843193510314,0.1063369435406767
21.838624,10.696449093586734,0.1061762560373638
21.84102,10.72024198511826,0.1059837993638381
21.843408,10.742079997731611,0.1057794750417165
21.845788,10.763545923292623,0.1055638092891113
21.848184,10.788643963294136,0.1053077464530522
21.850572,10.809086175496754,0.1050768365078189
21.852952,10.834091667699647,0.1048014391500457
21.855352,10.858725072850202,0.1045138302045551
21.857736,10.880053124642226,0.104234110741357
21.860132,10.9068756219943,0.1039054282779497
21.862528,10.935328133040455,0.1035519414494791
21.864916,10.967272988900246,0.1031632084202701
21.8673,10.999776923267476,0.1027562125689702
21.869696,11.028975504276175,0.1023553169786036
21.872084,11.05808153748626,0.1019349883404058
21.874464,11.08323059103175,0.1015176022871354
21.87686,11.10614522640535,0.1010984412383892
21.879248,11.132691976219444,0.1006402243530298
21.881632,11.163941775660671,0.1001324315837052
21.884028,11.191606682489647,0.0996407076434098
21.886416,11.20683967595954,0.0992424630786899
21.888796,11.222864065362351,0.0988445896736814
21.891192,11.238748685138304,0.0984510390620126
21.89358,11.248766772301863,0.0980918314755063
21.895976,11.254920427599451,0.097755346657614
21.89838,11.264286888456956,0.0973934327831243
21.900764,11.267135190396012,0.09706188714657
21.903144,11.267189995655732,0.0967423763187138
21.905544,11.267105031288594,0.0964275120372042
21.907932,11.26287609580176,0.0961426028090689
21.910312,11.256784829195366,0.0958663612321221
21.912712,11.2473409874022,0.0956189421005704
21.915096,11.241901347101864,0.0953475986722785
21.91748,11.238324037921087,0.095068098202124
21.91988,11.23167369280726,0.0948087083300055
21.922267999999995,11.225535204372624,0.0945579560037902
21.924648,11.218465550378214,0.0943109361537313
21.927044,11.210045421943445,0.0940805195754458
21.929432,11.203208085374508,0.0938512685807847
21.931812,11.195020274365216,0.0936378229250235
21.934212,11.191116204102476,0.0933915955708774
21.936596,11.188422838653231,0.093133575318875
21.93898,11.188522969883326,0.0928647952202942
21.941376,11.194489633725809,0.0925652692279043
21.943764,11.199105823127931,0.0922814983316797
21.946144,11.203162934022616,0.0920152465105082
21.948544,11.207592131969635,0.0917612140034304
21.950928,11.212393416968997,0.0915193924341259
21.953312,11.217706558647553,0.0912869685423571
21.955708,11.223950865885888,0.0910509965125447
21.958096,11.226702828310588,0.0908465273812832
21.96048,11.23797505040015,0.090606730114154
21.962883999999995,11.24538284062374,0.0903863398585419
21.965272,11.249717594914271,0.0901845705981737
21.967652,11.257217932936484,0.0899855588121808
21.970051999999995,11.264206414279489,0.089777746991322
21.972436,11.269704651555278,0.0895897956823204
21.97482,11.273852414390712,0.0894177683267609
21.977216,11.27320457980039,0.0892672797312129
21.979604,11.274558845956486,0.0891055710337786
21.981984,11.276052881739442,0.0889395996372167
21.98438,11.274613651216203,0.0887880849360577
21.986772,11.272522794386909,0.0886321223465933
21.989152,11.268057749758857,0.0884739646002518
21.991556,11.266014114757803,0.088292510946492
21.993944,11.264809097517912,0.0880868209485482
21.996324,11.2669566554648,0.0878549616896293
21.998728,11.272876097479038,0.0875847966865387
22.001116,11.275490186134746,0.0873149476486041
22.003500000000003,11.278244044417317,0.0870413015753237
22.005896,11.287703053073434,0.0867163715013302
22.00828,11.284545052773236,0.0864235214850461
22.010664,11.279524721353482,0.0861361494865987
22.01306,11.277717195493649,0.0858266724542354
22.015448,11.2723719988498,0.0854998548726697
22.017828,11.264884931832674,0.085186485921422
22.020232,11.25967950481569,0.0848543104471684
22.02262,11.256802939627082,0.0844781859726322
22.025,11.259001511117948,0.0840748774973754
22.027396,11.260548456302756,0.0836665010893843
22.029784,11.26623937260726,0.0832355700630104
22.032164,11.274863555217957,0.0827922027165603
22.03456,11.277760974843124,0.0823693739510844
22.036948,11.279819776707129,0.081970702484558
22.039328,11.28001624745158,0.0815775800863297
22.041732,11.27406664632992,0.0812167250202272
22.04412,11.267977275581398,0.0808606943996949
22.0465,11.261608365579155,0.0805135431690491
22.048896,11.257241556323333,0.0801560706853204
22.051288,11.25194358150773,0.0798012105402504
22.053668,11.241430700385791,0.0794760727987597
22.056064,11.236597360421142,0.079155043065649
22.058448,11.236280078628525,0.0788249064184826
22.060832,11.236754192768826,0.0784968453612791
22.063236,11.239183185827304,0.0781848501507982
22.065624,11.246547545938393,0.077852314905324
22.068004,11.254982841236114,0.0775141857653448
22.0704,11.26108927470546,0.0772188854000515
22.072788,11.26170126261475,0.0769598227571254
22.075168,11.264687438322795,0.0767059339439837
22.077564,11.261899629217067,0.076496200672629
22.079952,11.258832280857622,0.0762948430488841
22.082336,11.26293471772268,0.0760825055217263
22.084732,11.27197252164035,0.0758514413328452
22.087124,11.284036139662836,0.0756312021335156
22.089504,11.301267442163406,0.0754084084177671
22.091908,11.319290140596896,0.0751885455387604
22.094296,11.335682825336306,0.0749912175948688
22.096676,11.353378762687832,0.0748056115862274
22.099076,11.3709349304125,0.0746241397186248
22.101464,11.391516912241975,0.074453728283936
22.103844,11.412378433325175,0.0742756676992947
22.106244,11.430166918475322,0.0741124923920246
22.108628,11.450329591424218,0.0739558041572391
22.111012,11.47328576105245,0.0737936220336076
22.113408,11.493540981799963,0.0736595290492498
22.115796,11.510164088106984,0.0735550340891563
22.118176,11.525716259227366,0.0734560898792461
22.120576,11.546064027773497,0.0733427657059255
22.122964,11.563618299640297,0.0732361260326959
22.125344,11.584385377067008,0.0731116018685066
22.127744,11.604733145613135,0.072999191424154
22.130132,11.622287417479937,0.0728935931891679
22.132512,11.63397515673434,0.0728082681378944
22.134908,11.647013370429107,0.0727100947298474
22.137296,11.661541828191094,0.0725952626091195
22.13968,11.670715610019885,0.0725092271495037
22.142084,11.681100096662176,0.0724138014694232
22.144472,11.689482482558049,0.072326123290414
22.146856,11.69902835143918,0.0722535769426712
22.149252,11.705129097334916,0.0721812262350181
22.151636,11.709367512111095,0.0721127352236868
22.15402,11.715468258006831,0.0720404199546502
22.156416,11.715050844984123,0.0719816996763788
22.158808,11.711979704908936,0.0719250620508885
22.161188,11.707186003341056,0.0718683758365942
22.163588,11.705605107333088,0.0717945536770181
22.165976,11.712312153564511,0.0716832702760197
22.168356,11.717436407930096,0.0715685281769213
22.170756,11.725354158975012,0.0714484575042615
22.173144,11.731409578900374,0.0713322181778527
22.175524,11.73667360289282,0.0712141952668114
22.177924,11.741797857258405,0.0711000102857494
22.180312,11.749995147557042,0.0709729226779107
22.182692,11.755259171549488,0.0708554699461318
22.185092,11.75731038998202,0.0707547438640086
22.18748,11.7648560539746,0.0706227997799895
22.18986,11.7744038187136,0.0704843253737964
22.19226,11.788235324199151,0.0703245980137099
22.194648,11.80597848337892,0.0701313018803457
22.197032,11.828796779238164,0.0699191395578895
22.199428,11.855339737336518,0.0697006737049924
22.201816,11.881091299501954,0.0694807291103894
22.2042,11.90791379685403,0.069254719467366
22.206596,11.932454654205968,0.0690429746077415
22.208984,11.9611394826776,0.0688138909082663
22.211368,11.98689104484304,0.068593547728668
22.213764,12.001700937716612,0.0684101525456679
22.216152,12.013298025030272,0.0682423573883691
22.218536,12.022753241970657,0.0680855188073378
22.220928,12.035933121150151,0.0679227791896706
22.22332,12.049392539583366,0.0677529640234848
22.2257,12.062200331710525,0.0675774996394181
22.2281,12.072866253464404,0.0674126916259212
22.230488,12.081530074471868,0.0672545134373144
22.232872,12.091264830665969,0.0670911348501261
22.235268,12.098997486113657,0.0669350583661242
22.237656,12.101794774508727,0.0667940719334641
22.24004,12.09979646547805,0.0666643968186935
22.24244,12.091512314954402,0.0665617812806827
22.244824,12.076150927004864,0.0664836094383043
22.247204,12.061069078309046,0.0663981855765261
22.2496,12.043053963307033,0.0663203584895164
22.251988,12.03090538091741,0.0662268003673149
22.254368,12.024902870393898,0.0661106582934079
22.256772,12.017038028750829,0.0659973643176965
22.25916,12.015319258973872,0.0658619097183974
22.26154,12.017604690689748,0.0657133397746142
22.263936,12.027107129458374,0.0655378633936735
22.266324,12.035306315614882,0.0653506236869995
22.268708,12.036987342852944,0.0651725711425655
22.271104,12.035735103784807,0.0650017041189709
22.273492,12.036484965463092,0.0648248197549233
22.275876,12.038585301581731,0.064635928330919
22.278272,12.042036112140735,0.0644347445154575
22.280664,12.046697627513232,0.0642255429019463
22.283044,12.051498912512594,0.0640130431928858
22.28544,12.058861376765812,0.063780253706711
22.287828,12.07143874732536,0.0635280566816712
22.290212,12.086297757885047,0.0632627840678538
22.292608,12.106651214004785,0.0629701754301141
22.294996,12.126213274191606,0.0626767203463945
22.297376,12.15126977993848,0.0623569845401253
22.29978,12.171949997140183,0.0620374571725093
22.302168,12.18639159467716,0.0617194095428664
22.304548,12.200181565908077,0.0613957326481052
22.306944,12.208524313407189,0.0610758154519952
22.309328,12.219568009787013,0.0607336815556524
22.311708,12.22623541762167,0.0603908438662731
22.314108,12.23425329989668,0.0600365569787989
22.316492,12.248836562918388,0.0596529755661839
22.318876,12.26984543705992,0.0592444506037564
22.321272,12.29113385045518,0.058830736224375
22.32366,12.312841572731015,0.0584078839456695
22.326056,12.337762100566769,0.0579740126821982
22.328448,12.361239606163544,0.0575326429447405
22.330836,12.382994550267624,0.0570896080984073
22.33322,12.401816228065508,0.0566521926116011
22.335616,12.414491833997282,0.0562332993074549
22.338004,12.42558464806322,0.0558090221741953
22.340384,12.435606526942522,0.0553899132380064
22.342788,12.442974678769346,0.0549696066437982
22.345176,12.447409564289975,0.0545554441532521
22.347556,12.448352104996973,0.0541585540968638
22.349956,12.449806502383163,0.0537702603263312
22.352344,12.4481878638363,0.0533890788759644
22.354724,12.44507898122222,0.0530208158143073
22.35712,12.438477753794496,0.0526708785304681
22.359508,12.42745301599336,0.0523381699213751
