Time,Force,Position
27.449584,7.044263601872443,0.1664798238077275
27.451979999999992,7.218961840587159,0.1653573834929727
27.454368,7.3749026860530575,0.164204747865185
27.456748000000005,7.507989388978686,0.1631315266469205
27.459148,7.619989836827115,0.1622512390353792
27.461535999999995,7.725987774152029,0.1613181317018549
27.46392,7.820955286102206,0.1603807378233729
27.466315999999992,7.893952599243645,0.1595330737240219
27.48782,7.84373583942255,0.1590174456307152
27.490208,7.8403379382654,0.1590165790764897
27.492588,7.852350542743903,0.1588255022189023
27.494987999999992,7.870973853939469,0.1585744806417906
27.497376000000003,7.9010034692778515,0.1581915206376754
27.499756000000005,7.937783560960161,0.1577451617784952
27.502151999999995,7.982944142680474,0.1571855046813531
27.50453999999999,8.029874507721727,0.1565669820227235
27.50692,8.070333935672775,0.1560024389529326
27.509316,8.098455893921228,0.1555867542472155
27.511703999999995,8.123132729184286,0.1552123978812098
27.514088,8.147809564447346,0.1548386163140791
27.51648399999999,8.167830571911514,0.1545235966714958
27.518872,8.187339722696484,0.1541970786417215
27.521256,8.214857276467121,0.1537474416523023
27.523652,8.241675982103457,0.1533349106610392
27.526039999999995,8.26867978333703,0.1529829737125301
27.52842,8.297219154608193,0.1526594815696887
27.530816,8.326689691439137,0.1523175518244955
27.533204,8.351644170098048,0.1520303296615574
27.5356,8.370871885771429,0.1518299523988909
27.537996,8.38982006219109,0.1516466225466645
27.540384000000003,8.41477454085,0.1513800851174077
27.54276399999999,8.433397852045568,0.1511508550814476
27.54516,8.452255376524482,0.150852104599383
27.547547999999992,8.47050849652558,0.1505235053311923
27.549932,8.48810999022062,0.1501981774853444
27.552328000000003,8.509296376527914,0.1498385519136735
27.554716,8.533835338021982,0.1494214459806301
27.557096,8.558793608396634,0.1489820068410561
27.559496,8.580958382091946,0.148575103266721
27.561883999999992,8.608151070638492,0.1481334060258158
27.564263999999994,8.64237377478268,0.1476239453201316
27.566664000000003,8.68246301153926,0.1470399520978576
27.569052,8.71859526863125,0.1464886131399834
27.57143599999999,8.753424273111124,0.1459337723397283
27.573836,8.787089794605741,0.145369559056362
27.576224,8.818381128301606,0.1448196517310928
27.578608000000003,8.854375511624605,0.1441846182316118
27.581004,8.885901058603816,0.1435541521457343
27.583392000000003,8.908674028492683,0.1430015569106678
27.58577199999999,8.929584667261995,0.142473697542668
27.588172,8.94155573748586,0.1420679942129428
27.59056,8.962466376255172,0.1415470570119799
27.59294,8.975787920919394,0.1411165900144055
27.59534,8.98133338002343,0.1408119356098044
27.597728000000004,8.985248825433386,0.1405496950227159
27.60010799999999,8.986603091589483,0.1403382372336997
27.602504,8.985675717745444,0.1401643234094905
27.604896,8.986098818341762,0.1399620392180172
27.607280000000003,8.989083098191937,0.1397100797295724
27.609676,8.989693190243361,0.1394710766907516
27.612064000000004,8.988580720802089,0.1392458015296151
27.614448,8.980158696509449,0.1390900620121949
27.616844,8.963076642925081,0.1390312047075908
27.619232,8.946553667848159,0.1389479589314108
27.621616000000003,8.934174663890927,0.1388086163529275
27.624016,8.923657991053252,0.138650300414016
27.626404,8.913932714148496,0.1384883939313304
27.628788,8.912308388028027,0.1382548651760418
27.631192,8.918924782318697,0.1379435178496712
27.633579999999995,8.92512186772879,0.1376506307151748
27.63596,8.937325255378132,0.1372863643030376
27.638356,8.946455607094418,0.1369647502392927
27.640744,8.951022678810432,0.1367112240660665
27.643128000000004,8.963226066459775,0.1363471407208193
27.645523999999995,8.97477782780306,0.1359818323928834
27.64791199999999,8.990892869146618,0.135548513747402
27.650296,9.008358384930537,0.135088457286819
27.652692,9.025823900714457,0.1346285811473556
27.65508,9.0387261364981,0.1342386019306346
27.657456,9.050417667468247,0.1338712562909282
27.659864,9.064111299184807,0.133482519774794
27.66224799999999,9.085766112058796,0.1330332264678262
27.664628,9.11338000534379,0.1325411531735796
27.667031999999992,9.144950878293374,0.1320390468734793
27.66942,9.173029406429322,0.1315965408683082
27.671800000000005,9.204180970498324,0.1311226363835176
27.674204000000003,9.229186462701216,0.1307224903538464
27.676587999999995,9.249908214157555,0.1303794089504978
27.678968,9.26862786486748,0.1300610538517679
27.681364,9.2892570685252,0.1296967621043376
27.683752,9.308303480317088,0.1293425814055605
27.686132,9.322134985802638,0.1290509227018951
27.68852799999999,9.346768390953194,0.128645920282047
27.690916,9.367118055357196,0.1282989226090045
27.693296000000004,9.387607489388056,0.1279479112984339
27.695692,9.401811081925947,0.1276745464646323
27.698076,9.415967452635591,0.1274323057695528
27.70046,9.433149637450054,0.1271872976099618
27.70286399999999,9.45820045562332,0.1268635656853034
27.705248,9.483251273796588,0.1265412752967133
27.707628,9.507743013462417,0.1262437160829784
27.710028,9.529301486822046,0.1259774550648577
27.712416000000005,9.554212535368451,0.1256684606325005
27.714796,9.575958000183189,0.1253712033997812
27.71719999999999,9.597471147572444,0.1250555458727583
27.719588,9.611767287908952,0.1248195883557062
27.721968000000004,9.633652522350545,0.1245196973670414
27.724372,9.662614994218028,0.1241489689800009
27.72676,9.688923739033036,0.1237945552854399
27.72914,9.709598268661132,0.1235140650718494
27.73153599999999,9.723427878288817,0.1233250832391483
27.733924,9.740423071648172,0.1231266025033794
27.736308,9.756067790567174,0.1229539182458827
27.738704,9.770921113553252,0.1227830285379216
27.741091999999995,9.784843270979552,0.1226200776783188
27.743472,9.801558925085187,0.1224353369716602
27.745868,9.821487384750736,0.1222141698496435
27.748256,9.839041656617535,0.1219998761660103
27.750636,9.851428244006248,0.1218142190038457
27.75304,9.85915900359606,0.1216633950496397
27.755427999999995,9.866517676133538,0.1214995555931401
27.757808,9.870151686431903,0.1213635751598657
27.76020799999999,9.868710560050795,0.1212785495231974
27.762592,9.863125462549998,0.1212371294959066
27.764976000000004,9.857912452101534,0.1212094981315618
27.77454,9.82900478549377,0.1212033208161387
27.776928,9.82300037911239,0.1211771795094873
27.779308,9.82249041829106,0.1210850645324437
27.781707999999995,9.82496094560417,0.1209377248782728
27.78409599999999,9.824126119558748,0.1208027227267864
27.78648,9.823431063140184,0.1206623310385796
27.788876,9.820873675602066,0.1205355034842698
27.791264,9.815662561011472,0.120424007874754
27.793644,9.804724683435348,0.1203587993334864
27.796040000000005,9.789922373993251,0.1203262768400947
27.798428,9.778844726790268,0.120265751476049
27.800808000000004,9.776566878505868,0.1201284690816673
27.803204,9.771076224661554,0.1200269022992507
27.805592000000004,9.77080047712357,0.1198708327870824
27.807976,9.774808470332143,0.1196673349791591
27.810372,9.785242074660546,0.1193931103130191
27.81276,9.794512196003692,0.1191069117368896
27.81514,9.803038143242166,0.1187940619070785
27.817536000000004,9.807979197868386,0.1185015534641378
27.819924,9.8177630717486,0.1181404115027311
27.822307999999992,9.82610392338984,0.1177777203664283
27.824704,9.833793148725018,0.1174124548619486
27.827092,9.834964215141753,0.1170916400011014
27.829488,9.835204115998708,0.1167787321110342
27.831884,9.838656822415578,0.1164320449609493
27.834272,9.845462104019225,0.1160468859738562
27.836652,9.855480191182783,0.1156277611590396
27.83904799999999,9.866708983159844,0.1151914264591347
27.841436,9.882221515883458,0.1147092231811644
27.84382,9.904019890100043,0.114163647494449
27.846216,9.9200915013311,0.1136620742814788
27.848600000000005,9.927782622524148,0.1132180843309061
27.850984,9.93403072147822,0.112768987974638
27.85338,9.933341352633263,0.1123780465430175
27.855768,9.92799615598942,0.1120180933721449
27.858148,9.916504887479464,0.1117154840046201
27.860547999999994,9.905665245275562,0.111416572832028
27.862932,9.892404193444666,0.1111495220407931
27.865312000000003,9.88500967422616,0.1108354474158359
27.86771999999999,9.87891840761977,0.110530180217669
27.870108,9.874409932879216,0.1102232230663324
27.872488000000004,9.86990145813866,0.1099164708134425
27.874888,9.87605511343625,0.1095304033507953
27.877275999999995,9.882068999106975,0.1091508924072703
27.879656,9.880074481792034,0.1088366012735764
27.882052,9.872725288543904,0.1085759068996791
27.88444,9.868029822348245,0.1083042868151162
27.88682,9.865336456899003,0.1080166928116466
27.889216000000005,9.859849594770427,0.1077457303604244
27.891604,9.850078991895298,0.1075165240604328
27.893988,9.843101885699504,0.1072702611939382
27.896384,9.836916175436627,0.1070220795323379
27.898772,9.8360379192787,0.1067503451371389
27.901168,9.845961562785776,0.1063992039458161
27.903564000000003,9.858678702972185,0.1060313186574381
27.905952,9.872187239091511,0.1056611676034696
27.908332,9.887697875957258,0.1052768699867191
27.910732,9.906141779129198,0.1048718526177896
27.913119999999992,9.918160071181306,0.1045286764937106
27.915499999999994,9.92738486655408,0.1042026338602866
27.917900000000003,9.934747330807298,0.1038878034264182
27.920288,9.940479781366436,0.1036030065971508
27.922668,9.937784520059324,0.1033956259783525
27.925068,9.929082956512962,0.103234010318732
27.927455999999992,9.926899551885048,0.1030346807112929
27.92984,9.926718248003551,0.1028190779556478
27.932236000000003,9.920810181136526,0.1026406322021393
27.934624,9.9124807046425,0.1024923716473925
27.93700799999999,9.904243775947094,0.1023681805673874
27.939404,9.898800343931022,0.1022281313224816
27.941791999999992,9.890144106355034,0.1021183539814161
27.944171999999995,9.88400182620466,0.1020024744692091
27.946572000000003,9.878278854934868,0.1018719887406953
27.94896,9.863336775865909,0.1018172154215352
27.95134,9.847695848662646,0.1017867932359069
27.95374,9.83633866220594,0.1017160644396089
27.956128,9.82083750462954,0.1016799407743373
27.958512,9.80412564223964,0.101658104457035
27.960908000000003,9.793839390969572,0.1015767937376132
27.963296,9.78555524044592,0.1014804189757588
27.965679999999992,9.775920615481912,0.1014034464521891
27.968076,9.77070950089132,0.1012822938457353
27.970464,9.769921896674138,0.1011168500271708
27.972848,9.776723386562043,0.100906826162227
27.975248,9.784456042009731,0.1006928640749959
27.977632,9.791257531897635,0.100483346650456
27.980012,9.796708547345183,0.1002924637254967
27.982412,9.806163764285564,0.1000729275423431
27.9848,9.81897155641272,0.0998197219659751
27.987179999999995,9.83070841335324,0.0995768168679974
27.989584,9.846449471786594,0.0993043853746202
27.991972000000004,9.864052861339502,0.0990232069341872
27.994351999999992,9.88016600682519,0.0987679279406967
27.996752,9.899491957870795,0.0984831746249887
27.99914,9.918445821864063,0.0981837113775961
28.00152,9.935769672163254,0.0979148869866211
28.003916000000004,9.95402468802222,0.0976405631190143
28.006304,9.969998063881054,0.0973897185575131
28.008687999999992,9.985552130859302,0.0971553583884575
28.011084,9.996542917837278,0.0969682983310837
28.013472,10.012608841494725,0.0967439734710132
28.015856,10.020386822912783,0.0965856550818156
28.018252000000004,10.027745495450263,0.0964424087803845
28.02064,10.033381606495045,0.0963044277922845
28.023023999999992,10.035944681606772,0.0961898078747208
28.02542,10.043303354144252,0.0960482217217846
28.027808,10.054666228174565,0.0958788802867462
28.030192,10.060022799965624,0.095750968480181
28.032588000000004,10.061235400636994,0.0956553273965585
28.034976,10.064729641308498,0.0955369027529632
28.03736,10.06929481716664,0.0954099218710328
28.03976,10.07134603559917,0.0952868757643985
28.042144,10.071674692539002,0.0951678793344686
28.044528,10.072794745411754,0.0950494708361119
28.046928,10.077779230150478,0.0949097546453642
28.049316000000005,10.084393728583285,0.0947432354058916
28.051696,10.094221032576003,0.0945507129303769
28.054092,10.10754068138236,0.0943224676491415
28.05648,10.11913776869602,0.0940988464860729
28.05886,10.136089531942869,0.0938312244261505
28.061264,10.151458503323884,0.0935646898968806
28.063652000000005,10.17804868325048,0.0932223576900272
28.066028000000003,10.201985136124604,0.0928876398027078
28.068428,10.222988322692537,0.09256994803462
28.070812000000004,10.244690357394765,0.092229232628337
28.07319199999999,10.265600996164071,0.0918908578910623
28.075596000000004,10.287862109373744,0.0915370901547652
28.077984,10.314546732956828,0.0911449853235125
28.080364000000003,10.345654866913328,0.0907155634897647
28.082768,10.37490066975027,0.0902963344577238
28.085156,10.404426011840933,0.0898715084276634
28.087536,10.439026490611068,0.0894178848435786
28.089932000000005,10.473766739008065,0.0889597785313934
28.09232,10.504782325165948,0.0885161934169056
28.094704,10.531933479457855,0.0880939624821623
28.0971,10.554009497070291,0.0877038571610057
28.099488,10.57422318356317,0.0873228691855313
28.101872,10.59350570449627,0.0869468854219319
28.104268000000005,10.60971518949632,0.0865896195409887
28.106656,10.623270947443888,0.0862395379401857
28.109036000000003,10.632682734271766,0.0859165148659452
28.111432,10.633946348487116,0.085644401540878
28.113820000000004,10.63814322900866,0.085357739825242
28.116199999999992,10.642200339903344,0.0850745735247691
28.118596,10.648911177850504,0.0847865168439266
28.120984,10.652548979864608,0.0845178091969616
28.123368,10.653113745945657,0.0842682789114703
28.125764000000004,10.65018616721307,0.0840502449365812
28.128152,10.646047883666984,0.0838447627515375
28.130532,10.638696794560982,0.0836614389381146
28.132928,10.62505986396201,0.0835186396997319
28.13532,10.604066156683428,0.0834237856356812
28.137699999999995,10.582932679777985,0.0833328596281638
28.140096,10.56766573548493,0.0832141139117549
28.142484,10.554121352684575,0.0830932639614923
28.14488,10.544301632123336,0.0829597558929867
28.14727599999999,10.534202372308371,0.082834754801411
28.149664,10.524894508426328,0.0827109387966618
28.152044000000004,10.520661781223756,0.0825589273541467
28.15444,10.51614951476746,0.0824153071755566
28.156828000000004,10.513499579430723,0.0822652196513869
28.159207999999992,10.51713548558696,0.0820761100924987
28.161608,10.521050930996914,0.0818790940219738
28.163992,10.528318951593644,0.0816562838474639
28.166376,10.533584871443958,0.0814443173119753
28.168772000000004,10.538990560921132,0.0812279247997642
28.17116,10.544116711144586,0.0810198752583524
28.173540000000003,10.554737306928091,0.0807726083249379
28.175936,10.562704175659126,0.0805297594260341
28.178324000000003,10.575746181069633,0.0802602931534284
28.180708,10.594003092786467,0.079959361354729
28.183104,10.61561257969008,0.079632472261224
28.185492,10.638432771407189,0.0792947003386438
28.187876000000003,10.65752830088519,0.0789696333606121
28.190272,10.675180808124212,0.0786380439425788
28.192660000000004,10.692181689057175,0.0783016613195343
28.19503999999999,10.70746000849744,0.0779662336787362
28.19744,10.723949032751207,0.0776215830927947
28.199828,10.736573625139,0.0772922343690712
28.202212000000003,10.752271253459847,0.0769477019735313
28.204608,10.770110752153975,0.0765903593538293
28.206996000000004,10.779941847862434,0.0762706534026625
28.209392,10.787631073197613,0.0759648597301532
28.211788,10.792247262599735,0.075674977771972
28.21418,10.793930185695668,0.0753960338910279
28.21656,10.796823813605098,0.0751064474924842
28.21895599999999,10.800136750395106,0.0748040655030045
28.221344,10.79944548569228,0.0745203999501065
28.223728,10.800476782482152,0.074236008914148
28.226124,10.798854352219552,0.073954922888246
28.228511999999995,10.798442626770449,0.0736643892499447
28.230892,10.798962066881122,0.0733722003479319
28.23329199999999,10.802414773297992,0.0730705918728227
28.235676,10.80880074602106,0.0727593042082898
28.238060000000004,10.815046949117264,0.0724521065671015
28.24046,10.816497554787716,0.0721584348148647
28.242847999999995,10.821952361951004,0.0718487763180996
28.245228,10.819398766128623,0.0715709982495674
28.24762799999999,10.818567731798938,0.0712929227651336
28.250012,10.816945301536336,0.0710137667736213
28.252396000000005,10.814251936087096,0.0707410587878034
28.254791999999995,10.814352067317188,0.0704614496164924
28.25717999999999,10.81538336410706,0.0701798859212188
28.25956,10.822141423882462,0.0698836289194499
28.26196,10.834626246643396,0.0695723259057279
28.264344,10.845620825337107,0.0692793010884598
28.266728,10.85740679996374,0.0689887530774829
28.269127999999995,10.869984170523288,0.0687007199391628
28.27151599999999,10.883492706642617,0.0684116584759591
28.2739,10.896442164254504,0.0681386969497088
28.276296,10.90496811149298,0.0678934405765508
28.278684,10.910421022798396,0.0676615757828949
28.281064,10.91172996298412,0.067449285215537
28.283463999999995,10.909686327983067,0.0672583672192315
28.28585199999999,10.908014780034357,0.06708166688159
28.288236,10.914863491750506,0.0668861720052087
28.290632,10.91929079383966,0.0667104658728917
28.293024000000003,10.932517894847395,0.0665080783173129
28.295404000000005,10.947095470295492,0.0662929013946881
28.297812,10.960462340930093,0.0660880404505491
28.300196,10.976762477870883,0.0658757790660202
28.302576,10.99306261481168,0.065663455136679
28.304976,11.00922298212561,0.0654554999874213
28.307364,11.020587752013792,0.0652599365074586
28.309743999999995,11.029950421155558,0.0650721769807484
28.31214,11.041594730297462,0.0648701777042225
28.314528,11.05538090981264,0.0646585434677783
28.316908,11.06795638451432,0.0644561530248119
28.319304,11.07946092402936,0.0642595195830165
28.321692,11.096040600223873,0.0640455233451559
28.32407599999999,11.114901916418525,0.0638173279112239
28.326471999999995,11.136696498919372,0.0635816189090363
28.32885999999999,11.156628750300662,0.0633480360588071
28.33124,11.176700771308813,0.063110435321038
28.333636,11.198402806011044,0.0628529399943914
28.336023999999995,11.21717157440708,0.0626049507611698
28.338404,11.235288716497053,0.0623506557213694
28.34080399999999,11.250332822653974,0.0621088708471488
28.343192,11.266168324743813,0.0618711091543801
28.345572000000004,11.280793122020151,0.0616422361511284
28.347967999999995,11.29155348743052,0.0614226064881955
28.350356000000005,11.307388989520362,0.0611871757904195
28.352751999999995,11.322572865304142,0.0609455541277924
28.355148,11.33975884183434,0.0606986107044917
28.35754,11.353499695379146,0.0604483782055013
28.35992,11.369102880043506,0.0601976091938175
28.362316,11.381493259147954,0.0599618092572796
28.364704000000003,11.396165278252536,0.0597132127388998
28.367087999999995,11.410185671051064,0.0594583553708485
28.369484,11.419550236050698,0.0592093718256825
28.371872,11.42970619698325,0.0589638351328226
28.374252,11.44200402828908,0.0587105185026062
28.376648000000003,11.45937699627438,0.0584421878354026
28.379036,11.47782089944632,0.0581695500358616
28.38141999999999,11.493983162618123,0.0579102161491235
28.383816,11.505210058737314,0.0576619294759585
28.386203999999992,11.519509990789558,0.0574047062719395
28.388583999999994,11.534089462095524,0.0571406094562253
28.39098,11.54345402709516,0.0568950033988414
28.393372,11.556171167281573,0.0566331465552226
28.395752,11.566746437094704,0.0563794710372606
28.398152,11.575319606161418,0.0561326469975166
28.400539999999992,11.58789697672097,0.0558769336408205
28.402924,11.598052937653522,0.0556372718613879
28.405320000000003,11.61086262563855,0.0553991961495727
28.407708,11.618597176944103,0.0551755478828922
28.410088,11.62554033231674,0.0549485754130418
28.412488,11.632343718062517,0.0547259270162134
28.414875999999992,11.641009434927849,0.0545025675375024
28.417255999999995,11.646602115860128,0.0542874388672183
28.419656000000003,11.652194796792404,0.0540729204914749
28.422044,11.650850009925652,0.0538727725986725
28.424424,11.647223583058764,0.0536847792522775
