Time,Force,Position
23.27506,8.033642488383178,0.1528445960930616
23.277448,8.035876906555073,0.1528362769970841
23.279828,8.048167154429425,0.1527387023084359
23.282224,8.064926238647566,0.1526238410725603
23.284612,8.088343251411015,0.1524184466983993
23.286996,8.122981472720046,0.1520340475063459
23.289392,8.1554778236558,0.1516918568395084
23.29178,8.181316246046247,0.1514446059106757
23.294172,8.201195588025685,0.1512530438057607
23.296572,8.22061029515417,0.1510155945621102
23.29896,8.237278727431564,0.1507764854126722
23.30134,8.25236436784312,0.1505491831617216
23.303736,8.274619793479182,0.1502416486007016
23.306124,8.300320342100637,0.1499025864724955
23.308504,8.322947854789037,0.1496127994454841
23.310908,8.33728742523805,0.1494565628400402
23.313296,8.357493528299454,0.1492208387336242
23.315676,8.38035335841333,0.1489605073197842
23.318072,8.40679808113946,0.1486626308483482
23.32046,8.431380472746035,0.1483901345929721
23.32284,8.463319641032218,0.1480028283797661
23.32524,8.495026491892922,0.1475985068955827
23.327624,8.52664079495501,0.1471701467191268
23.330008,8.556439988725787,0.1467311061602564
23.332404,8.582421972458834,0.1463114286705382
23.334792,8.600023466153873,0.1459905651886957
23.337168,8.617764729475772,0.145665114570032
23.339572,8.637368323917231,0.1453204188707061
23.34196,8.659997732463498,0.1449648897968433
23.34434,8.691799026980693,0.1445177715308239
23.346732,8.729419632282031,0.144031293020398
23.34912,8.76755209426257,0.1435557350815787
23.351516,8.807826426616383,0.143056097798275
23.353916,8.846238427850642,0.14257967241208
23.356304,8.886280442778977,0.1420636135882351
23.358684,8.92916317621489,0.1414824504857703
23.36108,8.969811491478913,0.1409168538310272
23.363468,9.006502827078345,0.140373690860932
23.365848,9.044032780438936,0.1398011485983695
23.368244,9.077326214881218,0.1392570945795304
23.370632,9.100888684845131,0.1388264136162483
23.373012,9.123799528502992,0.1383971543327317
23.375416,9.151785508840325,0.137912005673761
23.377804,9.184008008095969,0.1374030050553323
23.380184,9.216323055150228,0.1369206980668742
23.382588,9.250360663697183,0.1364247109006216
23.384976,9.285748746684495,0.1359068243571427
23.387356,9.320065894485174,0.1354065280430599
23.389752,9.35429049448723,0.1348825782506314
23.39214,9.378923899637789,0.1344627515723009
23.394524,9.397598224377331,0.1340818397257856
23.39692,9.413618822064407,0.1337214348806971
23.399304,9.423912656765951,0.1334209239798595
23.401684,9.432483929974795,0.1331317354145227
23.40408,9.439704728743283,0.1328684183188732
23.406468,9.444643887511637,0.132638901395272
23.408852,9.445159535906573,0.1324724898094437
23.411248,9.4491203072869,0.1322839230267276
23.413636,9.451171525719433,0.1321439511219978
23.416032,9.456388327883632,0.1319922669580486
23.418432,9.47026515933956,0.131753146385582
23.42082,9.483862451541766,0.1315268965132277
23.44232,9.413343249144914,0.1313939457406555
23.4447,9.40799046906959,0.131376251081427
23.4471,9.401706523434488,0.1313668604326211
23.449484,9.397936535225002,0.1313437635178476
23.451868,9.394026777388657,0.1313262290848381
23.454264,9.399568444776952,0.1312213022804816
23.456652,9.406460586605606,0.1310912827143626
23.459036,9.41242156287448,0.130970524668447
23.461432,9.416799747277524,0.130854977709175
23.46382,9.419315600561006,0.1307553417647009
23.4662,9.417035856418735,0.1307018641219685
23.468596,9.412242154850857,0.130661467905911
23.470984,9.405586122163417,0.1306371767739361
23.473364,9.405448248394425,0.1305561882754969
23.47576,9.414901569476935,0.1303833262438476
23.478148,9.425006516865508,0.1302138777381406
23.480528,9.437904960933414,0.1300201663757425
23.482928,9.446007807575567,0.1298728394104607
23.485316,9.46197928757653,0.1296459653598589
23.487712,9.48367753056302,0.1293659549601339
23.490108,9.506493930564394,0.1290433066993147
23.492496,9.522140545341262,0.1287738140224646
23.494876,9.54207090086468,0.1284518846496486
23.497276,9.56242056526868,0.1281153786958865
23.49966,9.582909999299543,0.1277729281470194
23.502044,9.593715690680284,0.1274967114807449
23.50444,9.605359999822188,0.1271889283892268
23.506828,9.614490351538471,0.1268941256664989
23.509212,9.622969076948705,0.12659560554028
23.511608,9.638013183105622,0.1262158721948846
23.513996,9.654827072583483,0.125796819784186
23.51638,9.673131206128565,0.1253495819977589
23.518776,9.695858850047058,0.124845799194812
23.521164,9.71393066616666,0.1243792941383663
23.523544,9.726974567435036,0.1239390679249008
23.525948,9.739134524971874,0.1234771449399325
23.528336,9.749339603590537,0.1230056191078179
23.53072,9.76010376071664,0.12251169652676
23.533116,9.766910938178157,0.1220311127848332
23.535504,9.771763236721496,0.1215424878345523
23.537888,9.773682268958645,0.1210803501000005
23.540284,9.783469934554596,0.120548192897845
23.542672,9.78832223309794,0.1200612486922486
23.545052,9.792522905335224,0.119572170330911
23.547448,9.800076152759283,0.1190434306758108
23.549836,9.80734986092962,0.1185226712598073
23.552216,9.818348231339073,0.1179791062378538
23.55462,9.830697076188883,0.1174144234176918
23.557008,9.844908252158252,0.116836525791427
23.559388,9.851390564395672,0.1163227127307912
23.561792,9.856801941446452,0.1158210937654334
23.56418,9.863144484057011,0.1153148093820353
23.56656,9.86548282517474,0.1148439977255295
23.568956,9.87224467666588,0.1143223713334757
23.571344,9.876585118530024,0.1138324512684128
23.573728,9.881157877819646,0.1133620462170566
23.576124,9.887033889721383,0.112899483037524
23.578512,9.892490592742538,0.112451166913209
23.580892,9.890310979830364,0.1120851263522726
23.583288,9.884639022104553,0.1117627844482725
23.585676,9.877896129192104,0.111450593375023
23.58806,9.863796459600048,0.1112128514326079
23.59046,9.852490286687324,0.1109558712324038
23.592848,9.83983363933424,0.1107200512138842
23.626296,9.494142865565236,0.1106999356780548
23.628684,9.486136358437438,0.1106834674679844
23.631064,9.484508240601226,0.1106305007497436
23.633468,9.489398281683464,0.1105364312402492
23.635856,9.500946251311012,0.1103965589074197
23.63824,9.513937243177535,0.1102609211677917
23.640636,9.525298221349976,0.1101560211608783
23.643024,9.545179459187285,0.1099933055086897
23.645404,9.568645589636844,0.1098139721292361
23.6478,9.604124324564909,0.1095346324339512
23.650188,9.638392354679471,0.1092698697143418
23.652572,9.674662485540452,0.1089899980355728
23.654968,9.710420759722236,0.1087023961443836
23.657356,9.747249969090657,0.1084061683188789
23.659736,9.785289883272576,0.1080936344760391
23.662132,9.827613538201051,0.1077391684177662
23.66452,9.868866257942887,0.107396274403278
23.6669,9.912121078431142,0.1070377749780719
23.6693,9.9524426326132,0.1067026496038743
23.671684,9.99104162530256,0.1063740569481305
23.674068,10.030432013924838,0.1060477429266212
23.676464,10.064235409188449,0.1057571890804862
23.678856,10.091380875906747,0.1055107761709661
23.681236,10.113311436318718,0.1053128040818293
23.683636,10.131377564864708,0.1051429229224908
23.68602,10.14772113191801,0.1049795152218385
23.688404,10.17035054046428,0.1047602664462836
23.6908,10.189534826025156,0.1045543129744254
23.693184,10.202200952667583,0.1043857234672427
23.69558,10.206067280391428,0.1042794097948296
23.697976,10.214357118488683,0.1041283533761923
23.700364,10.220644855839522,0.1039929610312425
23.702744,10.226932593190362,0.1038580721331818
23.70514,10.228424733115451,0.1037535389626527
23.707524,10.231918973786955,0.103634342028778
23.709908,10.233411113712046,0.10353055021383
23.712304,10.234251627331076,0.1034222359143236
23.714692,10.237094241696523,0.1032997658438598
23.717072,10.241938956808388,0.1031627597883062
23.719472,10.250787873413085,0.1029971353496416
23.72186,10.258473307032528,0.1028189241074105
23.724256,10.270302711771668,0.1026081427383601
23.726652,10.28920935393669,0.1023457651553132
23.72904,10.310677175355574,0.1020509347180879
23.73142,10.33014289602804,0.1017697642900611
23.733816,10.350959091140863,0.101470856453479
23.736204,10.36604852326816,0.1012062933858108
23.738588,10.381929351328372,0.1009424763275888
23.740984,10.402885316068058,0.1006416568910101
23.743372,10.42612292080788,0.1003164882751445
23.745752,10.45001215185376,0.0999987386663387
23.748148,10.475251857340002,0.0996637367690773
23.750536,10.498629231706683,0.0993385128031034
23.75292,10.528804304245536,0.0989732206089362
23.755316,10.556465419358773,0.0986138878518138
23.757704,10.58375444741967,0.0982422574049915
23.760084,10.612114410667209,0.097861994927028
23.762484,10.636609942048771,0.0975057610229165
23.764872,10.65938291193764,0.0971545642204587
23.767252,10.679502154774031,0.0968141094497684
23.769648,10.698550462423787,0.096483995025907
23.772036,10.713874107834428,0.0961725737308187
23.774416,10.721608659139982,0.0959000220729354
23.776824,10.728272275258895,0.0956368329686369
23.779208,10.736565905071894,0.0953467247733894
23.781592,10.740995103018916,0.0950776156216969
23.783988,10.746355466525712,0.0948038098035091
23.786376,10.750924434099597,0.0945302225766491
23.78876,10.749766638687946,0.0942856006846984
23.791164,10.750610944022716,0.0940285715230005
23.793552,10.746008025625674,0.0937915924400061
23.795932,10.740753480922574,0.093550064983836
23.798332,10.735918245100054,0.0932949385287384
23.80072,10.723773454426167,0.0930670895209943
23.8031,10.7124200596852,0.0928394344526622
23.805496,10.698785024944096,0.0926324159350169
23.807884,10.682216723896795,0.0924410049329846
23.810268,10.665788192476358,0.0922447334308378
23.812664,10.651501531429192,0.0920315567805371
23.815052,10.635073000008754,0.0918344660475551
23.817436,10.61501235414782,0.0916751294111861
23.819832,10.59467216903316,0.0915241493083317
23.82222,10.57791687653076,0.091361629077909
23.8246,10.56316368477477,0.0911868813275962
23.827,10.552786781563956,0.0910021544220837
23.829388,10.54906780689845,0.0907869813043838
23.831768,10.550423968912414,0.090540938917371
23.834168,10.55299083573988,0.0902830642183913
23.836556,10.563146796672427,0.0899922943630674
23.83894,10.571300656858565,0.0897135774599853
23.84134,10.581316848164256,0.0894270439339047
23.843728,10.590773960962505,0.0891585134362848
23.846104,10.600603160813094,0.0889040027909378
23.848508,10.612806548462435,0.0886510575425456
23.850896,10.623007835365366,0.0884094165157485
23.853276,10.637353093387986,0.08814124442426
23.855672,10.657704653649857,0.0878398687786922
23.85806,10.676845509098229,0.0875501774074675
23.86044,10.690491918986543,0.0873035334542577
23.862844,10.70707159518106,0.0870423457493282
23.865232,10.72742315544293,0.0867396338984694
23.867612,10.750847751637856,0.0864189696253444
23.870016,10.772270247086364,0.0861092403077723
23.8724,10.788617605855402,0.0858299820417588
23.87478,10.795373769772937,0.0855933318440468
23.877184,10.79519246589144,0.0853938877944207
23.879572,10.787282298278,0.0852300398063647
23.881952,10.776950721037558,0.0850901035308065
23.884352,10.761544007117646,0.0849796457152352
23.88674,10.749070559503927,0.0848548808279936
23.88912,10.739111069315824,0.0847290025675918
23.891516,10.727940874314225,0.0846148136188782
23.893904,10.7171899881932,0.0844875878270689
23.896284,10.70858097244546,0.0843453219758817
23.89868,10.700903122257492,0.0841995212866816
23.901068,10.691083401696252,0.0840686623728131
23.903452,10.677911105948231,0.0839642510940634
23.905848,10.669953716506548,0.0838273460941319
23.908236,10.67028426930425,0.0836405338647953
23.910616,10.669683656542174,0.0834570535531335
23.913012,10.668663734899516,0.0832864110084929
23.9154,10.664431007696944,0.0831375514685421
23.91778,10.664482021240923,0.082960098223834
23.920184,10.670539337024158,0.0827526117285564
23.922572,10.686467386912614,0.082499094085024
23.924956,10.706679177547622,0.0822171688763829
23.927352,10.729544695235107,0.0819298383053972
23.92974,10.74882532031034,0.0816484747699125
23.93212,10.76652315351974,0.0813637089343384
23.934516,10.7777953756093,0.0811217265832309
23.936904,10.785762244340331,0.0808789650410432
23.939288,10.794148421951949,0.0806231344989612
23.941684,10.800113189936562,0.0803899411372517
23.944072,10.80500702273454,0.0801643651746283
23.946452,10.812973891465573,0.0799222793354348
23.948856,10.818798889823327,0.0796941512487829
23.95124,10.823972261875026,0.079460340882977
23.953624,10.825141432433886,0.079246950863855
23.956024,10.821515005566996,0.0790522558617727
23.958412,10.817748809073247,0.0788618220686059
23.960796,10.815333087019855,0.0786563585571514
23.963192,10.81212596903355,0.0784489032148545
23.96558,10.807708146233743,0.0782530696629196
23.96796,10.799286121941105,0.0780763199898361
23.970364,10.783926629849436,0.0779300462279915
23.972752,10.769078994436963,0.0777936523224279
23.975132,10.757164625330688,0.077645520458965
23.977532,10.7528393503295,0.0774730139964449
23.979916,10.753309672754058,0.0772839434951761
23.982296,10.761276541485092,0.0770486543199554
23.984692,10.77082620208196,0.0768166489876062
23.98708,10.77944469711905,0.0765868185663061
23.98946,10.796351134395527,0.0763143276095727
23.991856,10.81539944204528,0.0760300172516972
23.994244,10.833376814508396,0.0757537240062709
23.996624,10.854427222904569,0.075462427550371
23.999024,10.877200192793438,0.0751711706174029
24.001412,10.90155595454814,0.0748839609019253
24.003808,10.925632177049124,0.07460507453226
24.006204,10.945843967684134,0.0743386260276045
24.008592,10.962423643878648,0.07410366163009
24.010972,10.98100542081958,0.0738600890382144
24.013368,10.999587197760512,0.0736176103324073
24.015756,11.02017107544786,0.0733671472201937
24.018136,11.042757053881624,0.0731077170404242
24.020536,11.060826974143358,0.0728554812563947
24.02292,11.076894793658678,0.0726126325360824
24.025304,11.090169116494655,0.0723774211211826
24.0277,11.100230633770725,0.07216125057091
24.030088,11.10521701436732,0.071968172806699
24.032468,11.108201294217494,0.0717830421605456
24.034864,11.112908135560367,0.0715976780855189
24.037252,11.105742142051598,0.0714570696633864
24.039636,11.09471171667686,0.0713284277308003
24.042032,11.080748024995922,0.071209552929431
24.04442,11.06385106700879,0.0711003523831366
24.046816,11.044300381969183,0.0709927066400369
24.049212,11.022375509130825,0.0708785033511556
24.0516,11.00245273703888,0.0707561205449173
24.05398,10.99146953349238,0.0706003972215459
24.056376,10.986120545132795,0.0704073857882229
24.058764,10.980911326400069,0.0702104298322547
24.061144,10.971977445428232,0.0700205440051386
24.063548,10.961181233336838,0.0698342389641508
24.065936,10.95331828755164,0.069638641035141
24.068316,10.946106968072495,0.0694484356576605
24.070712,10.94317938933991,0.0692359907000793
24.0731,10.938389479487764,0.0690267616162995
24.075484,10.932808173702702,0.0688148187712113
24.07788,10.930439673477554,0.0685857407567621
24.080268,10.934357014745382,0.0683273641921429
24.082648,10.939485060826703,0.0680599549194197
24.085048,10.952481740266832,0.0677668020855022
24.087436,10.9682719163863,0.0674689709176385
24.089816,10.988066293998596,0.0671573473006534
24.092212,11.008931606797535,0.0668398410352231
24.0946,11.033940890716169,0.066505226929597
24.096984,11.05867063538108,0.0661780255564846
24.09938,11.082608984113069,0.0658496500909704
24.101772,11.099889404299756,0.0655377695933408
24.104152,11.112234457433829,0.0652422870005253
24.106552,11.125370906500818,0.0649500884440537
24.108936,11.141161082620282,0.0646571418488947
24.11132,11.15602009317997,0.0643653625642679
24.113724,11.167945837433464,0.0640825118695273
24.116112,11.184155322433508,0.0637791286405817
24.118496,11.191285469261247,0.0635076107522518
24.120892,11.202419817581822,0.0632235692649666
24.12328,11.215835805902532,0.0629253370345101
24.125664,11.230322729409885,0.0626237151031264
24.12806,11.236801249931563,0.0623479578715981
24.130444,11.243419540080108,0.0620693535779097
24.132828,11.248315268735952,0.0617902314591545
24.135224,11.254421702205295,0.0615035117580414
24.137612,11.25573253824889,0.0612262291062761
24.139992,11.260116410225535,0.0609387101864429
24.142388,11.26021654145563,0.060670869261942
24.144776,11.262318773432144,0.060396915196022
24.14716,11.263350070222016,0.0601278033093524
24.149556,11.266383467758306,0.0598528360184535
24.151944,11.27127919641415,0.0595758377037912
24.154324,11.27459213320416,0.0592935926128391
24.156724,11.278603918128471,0.0589929881761783
24.159112,11.286899443799337,0.0586743972021468
24.161492,11.294543343164143,0.0583488957429004
24.163892,11.301675385849752,0.0580146941168028
24.166276,11.31029767260258,0.0576625485193623
24.16866,11.31826833304935,0.0573054599396647
24.171064,11.328380863869397,0.056940939856429
24.173448,11.333418258009972,0.0565914115173545
24.175832,11.34488126327038,0.0562156764221185
24.178236,11.355552872597867,0.0558381160385093
24.180624,11.36329121561916,0.0554658531735977
24.183004,11.365302795654925,0.055100772683235
24.1854,11.370666950877464,0.0547188976008401
24.187788,11.370304343114476,0.0543437977200709
24.190172,11.37343408016512,0.0539488982462439
24.192568,11.377262665350065,0.0535362839755999
24.194956,11.377785897176476,0.0531129012175328
24.197336,11.375375862696696,0.0526938749553715
24.199736,11.367099295604522,0.0522827936035281
