Time,Force,Position
24.748992,7.39852123038141,0.1554561832460734
24.751376,7.597382551822118,0.1542244979816888
24.75378,7.776553418596361,0.1531557859114091
24.756164,7.935616417681427,0.1521155188242297
24.789612,8.010453311647991,0.1517897030410695
24.79438,8.008917741610396,0.1517639365700381
24.796776,8.022326146499632,0.151621594014199
24.799164,8.04821179071832,0.1513503895032585
24.801548,8.077402788295542,0.1510522207807608
24.803944,8.101146562140956,0.1508099781150228
24.806332,8.127032206359646,0.1505334988781927
24.808712,8.147470626846527,0.150315443066353
24.811116,8.16781649953479,0.1500635990552238
24.813503999999995,8.184857018864523,0.1498408233065555
24.815884,8.210138258605397,0.1495161705146386
24.818284,8.247152563571053,0.1490198327747831
24.820668,8.283562464058894,0.1484766773387753
24.823052,8.312755357493984,0.1480595041619059
24.825447999999994,8.328537950181973,0.1478995733237997
24.827832,8.339849810668303,0.1478554587234979
24.830212,8.361124953058475,0.147699149233362
24.832615999999994,8.390408498434315,0.1474263755878489
24.835,8.420390891944454,0.1471227612203134
24.83738,8.445298148775127,0.1469011351543205
24.83978,8.47276658485965,0.1466339116391054
24.842168,8.497488746093083,0.1463636669922444
24.844548,8.508662732810421,0.1462360305209443
24.846944,8.506707853892248,0.1462295871849494
24.849332,8.507593693481653,0.1461580567245872
24.851727999999994,8.52500819572159,0.1458797413881044
24.854124,8.539629201282194,0.1456334858025654
24.856511999999995,8.56155976169416,0.1453085689597415
24.858892,8.586283818785464,0.1449494581407718
24.861287999999995,8.609797171063267,0.1446136525426643
24.863676,8.636243789647267,0.144244892602719
24.86606,8.659757141925073,0.1439182197185024
24.868452,8.6811286238296,0.1436190020423388
24.87084,8.702919414614708,0.143300601713324
24.87322,8.725409053534117,0.1429491314301617
24.87562,8.750879180587965,0.1425272354855601
24.878008,8.769598831297886,0.14215883056828
24.880388,8.777983113051631,0.1418771525700429
24.882784,8.785995307753035,0.1415829102343161
24.885172,8.791773084282548,0.1412951074867523
24.887567999999995,8.788611292266612,0.1411236113979285
24.889964,8.788662305810591,0.1409035769790096
24.892351999999995,8.792577751220549,0.1406355085972183
24.894735999999995,8.800589945921955,0.1403398749389708
24.897132,8.806832357302422,0.1400941421155642
24.899519999999995,8.804135200137441,0.1399645764863919
24.901903999999995,8.798784315919987,0.1398575165351018
24.9043,8.788777603903641,0.1397993239134078
24.906687999999995,8.784637424499685,0.1396704552365222
24.909068,8.788413100282781,0.1394153027495392
24.911463999999995,8.788883422707343,0.1391815327425735
24.913852,8.782276507706017,0.1390366462326091
24.916232,8.786611261996551,0.1387576018451647
24.918631999999995,8.793227656287224,0.1384430952046856
24.921015999999995,8.803196625764672,0.1380781725979566
24.9234,8.810744185615125,0.1377565490397226
24.925796,8.821317559570389,0.1374270358962566
24.928183999999995,8.834217899496162,0.1371168355628826
24.930564,8.848141952780333,0.136826743452973
24.932967999999995,8.867373460169452,0.1364962101629984
24.935351999999995,8.889538233864767,0.1361322290729134
24.937736,8.909002058679365,0.1358226170843335
24.940132,8.929769136106078,0.1355178043364788
24.942519999999995,8.9566822853989,0.1351376885777797
24.9449,8.98150078614669,0.1347564962114633
24.947295999999994,9.008880466148335,0.1343322754326748
24.949684,9.04193968730727,0.1338800414247065
24.952064,9.079887053690571,0.1334014155312079
24.954463999999994,9.11676348488724,0.1329465412332343
24.956848,9.146562678658013,0.1325838070953328
24.959244,9.173521153921213,0.1322782914740548
24.961644,9.20550754403564,0.1319390997945858
24.964032,9.229438309336157,0.131725776687553
24.966412,9.252018600196312,0.1315402585254829
24.968808,9.269104445496415,0.1314322787434172
24.971196,9.290985888222274,0.1312776717175928
25.023751999999995,9.282327754788415,0.131254845788539
25.026152,9.271714742436387,0.1312431833611147
25.028535999999995,9.264546853069753,0.1312098779939612
25.030919999999995,9.26440897930076,0.1311281488724514
25.033316,9.271860199636857,0.1309762528779841
25.035704,9.278567245868278,0.1307965865514907
25.038084,9.287975240980415,0.1305678424858741
25.040479999999995,9.300596041652469,0.1302995348962825
25.042868,9.313775920831963,0.130008545432298
25.045264,9.330727684078814,0.1296547523603137
25.04766,9.335714064675408,0.1293992311918922
25.050048,9.342050919712358,0.1291178646443795
25.052428,9.354673616242284,0.1287603252818553
25.054824,9.371440283891902,0.1283559014057071
25.057216,9.384761828556126,0.1279739701140392
25.059596,9.39943384766071,0.127569124764014
25.061992,9.417830529004409,0.1271340346986264
25.06438,9.441534664453055,0.126666201520053
25.066764,9.473247202887372,0.1261120340309773
25.06916,9.505938128709705,0.1255207162886724
25.071548,9.53225066524045,0.1249809052014499
25.073932,9.55069456841239,0.1245183626998241
25.076328,9.569278241211189,0.1240524452749946
25.078716,9.58190283359898,0.1236188006266538
25.081095999999995,9.588568345575766,0.1232179980655054
25.083492,9.593091987179276,0.1228427278562313
25.08588,9.59440282322287,0.1225059774898626
25.088263999999995,9.593432019266324,0.1222010518604347
25.09066,9.594603085683058,0.1218711928940046
25.093048,9.594703216913151,0.1215546881598322
25.095431999999995,9.606117104487446,0.1211464354178987
25.097828,9.621115884673994,0.1207158237600406
25.100216,9.635835125606825,0.1202990864352354
25.102596,9.647900639487172,0.11990068847449
25.104996,9.660757549300442,0.1195010385554507
25.107384,9.671472588740436,0.1191266338232245
25.109767999999995,9.679254361874232,0.1187789041432943
25.112164,9.680657745716443,0.1184742707362759
25.114552,9.679547172133036,0.1181800187383552
25.116932,9.674804484109137,0.1179365050672953
25.119328,9.673367149443768,0.1176815863835195
25.121716,9.675002850711454,0.117394401761658
25.1241,9.67156341529967,0.1171561125104861
25.126496,9.671569102873278,0.1169010167193172
25.128884,9.672086647126084,0.1166545038849153
25.131268,9.67111394731167,0.1164348546448276
25.133664,9.673074513803453,0.1161894686314377
25.136052,9.674895310668374,0.1159495167916414
25.138436,9.67229259715988,0.1157628489066783
25.140832,9.671132905890362,0.1155789915194729
25.162336,9.485302214712943,0.1155495630996212
25.16712,9.451925711761392,0.1155229624268134
25.169515999999994,9.43800734605083,0.1155047760209855
25.171907999999995,9.431305987393015,0.1154143344769016
25.174288,9.425675563921844,0.1153122123014175
25.176683999999995,9.419905370823807,0.1152151702313555
25.179072,9.4234940551518,0.1150241483418771
25.181456,9.425080638733377,0.1148512973150523
25.183851999999995,9.424293034516197,0.1146814870892552
25.18624,9.427789171045568,0.1144650402107809
25.18862,9.428911119776188,0.1142523884344423
25.191016,9.43683076667898,0.1139844120195504
25.193404,9.453550212500351,0.1136447841752814
25.195788,9.47972108354637,0.1132378199130119
25.198184,9.506683350525304,0.112830975945342
25.200572,9.532993991198186,0.1124213551363999
25.202952,9.56116696299062,0.1119997124644829
25.205352,9.591574352954948,0.1115804983569791
25.20774,9.621981742919278,0.1111629367449002
25.21012,9.648105392137053,0.1107896930735504
25.212516,9.67180763172783,0.110450280953639
25.214904,9.695929180199188,0.1100935005721495
25.217284,9.716465836058292,0.1097577115682033
25.21968,9.73364991673062,0.1094631238276416
25.222068,9.747900731096754,0.1091928555220392
25.224452,9.76494504214222,0.1089051270574639
25.226848,9.77677444688136,0.1086708633306981
25.229236,9.788184542739916,0.108451381260558
25.231615999999995,9.805693488636336,0.1082068419452811
25.234016,9.82264335602532,0.1079837386152973
25.236404,9.841036245653278,0.1077648237512254
25.238783999999995,9.858218430467735,0.1075631636727421
25.24118,9.869254543416089,0.1074171448604206
25.243572,9.877217620431376,0.1072994483085491
25.245968,9.882247431140478,0.1072033277252024
25.248368,9.88499560184944,0.1071331446083228
25.250756,9.890025412558536,0.1070375690994618
25.253136,9.8934724314018,0.1069431825885636
25.255536,9.89785061580484,0.1068437248361858
25.257924,9.908514641700853,0.1066870141500867
25.260307999999995,9.924393573903195,0.1064846152455232
25.262704,9.944648794650709,0.1062655667446655
25.265092,9.9675577424507,0.1060360198500249
25.267475999999995,9.993260186930025,0.1057917940598989
25.269872,10.02361845920824,0.1055229003062896
25.27226,10.053325105180395,0.1052515268720625
25.274643999999995,10.08088988077928,0.1050005882049336
25.27704,10.111667461938078,0.1047201327956871
25.279428,10.13886015048462,0.1044576857378337
25.281811999999995,10.165401212725108,0.1041915047091247
25.284212,10.19301321015223,0.1039170805908436
25.2866,10.222767077952634,0.1036253181613669
25.288984,10.254802585753172,0.1033098419010765
25.29138,10.284324136128095,0.1030010832560046
25.293772,10.317849887995855,0.1026633090684879
25.296152,10.355659380610168,0.1022875839159335
25.298552,10.391466772478063,0.101929982583594
25.30094,10.430067661025292,0.1015591024127098
25.303324,10.466945988079823,0.1011949283791549
25.30572,10.502101753641664,0.1008391252158701
25.308112,10.533393087337528,0.1005100456951548
25.310496,10.564591873234772,0.1001613405078329
25.312895999999995,10.594347636893044,0.0998099094115473
25.315284,10.618516407192644,0.0994862740873562
25.317664,10.638169119320215,0.0991826086122475
25.320056,10.659032536261286,0.098867486124068
25.322444,10.681525966896432,0.0985256277282267
25.324819999999995,10.701645209732826,0.0981848614542695
25.327224,10.72204399182294,0.0978358832502643
25.329608,10.744864183540049,0.0974621597608898
25.331988,10.765030648204686,0.0970980124090951
25.334384,10.78054128507043,0.0967563718684377
25.336768,10.791256324510424,0.0964399642142273
25.339147999999994,10.801831594323556,0.0961278136584983
25.341544,10.809101510778158,0.0958197701893756
25.343931999999995,10.81651119685962,0.0955091118408139
25.346312,10.818194119955548,0.0952269831462036
25.348704,10.815500754506308,0.0949566624018506
25.351092,10.81150413644495,0.0946765706367464
25.353483999999995,10.806716122450675,0.094396531485343
25.355888,10.798203446217284,0.0941319532022763
25.358272,10.787548899610618,0.0938845974871091
25.360651999999995,10.775963187444177,0.0936409533658901
25.363056,10.769080524904863,0.0933501910341826
25.36544,10.762477401619272,0.0930502459217934
25.367816,10.75187007684085,0.0927747766859821
25.370211999999995,10.739120881689152,0.0925153844767432
25.372595999999994,10.728373787283868,0.0922437524200434
25.374976,10.717766462505445,0.0919676742655484
25.377372,10.701944231420688,0.0917276110034798
25.37976,10.683468273283456,0.0914934637554701
25.38214,10.667134185519505,0.0912424359162031
25.384552,10.655735464808162,0.0909632645244296
25.38694,10.64461628335054,0.0906748521808758
25.38932,10.635871289691671,0.0903882143554339
25.39172,10.622051159353331,0.0901328929410737
25.394108,10.61181592162725,0.0898660351784865
25.396484,10.608238612446474,0.089569306889071
25.398888,10.603171059198475,0.0892927869235265
25.401272,10.59582186595034,0.0890364024045104
25.403652,10.593408039754816,0.0887525134157432
25.406048,10.590994213559291,0.0884688436801421
25.408432,10.58937178329669,0.0881859478492808
25.410827999999995,10.583186073033817,0.0879433384125746
25.413224,10.57364778758416,0.0877280283250952
25.415612,10.567973934000484,0.0874942080927774
25.417992,10.56551288597672,0.0872366705059691
25.420396,10.559559493139322,0.0870113614171292
25.42278,10.551324460301784,0.0868057525060033
25.42516,10.542949657837386,0.0866035987659112
25.427564,10.537880208731522,0.0864002073244924
25.429948,10.532391450745076,0.0862100875366271
25.432328,10.525971527198852,0.0860235265592502
25.434732,10.522205330705104,0.085831418431289
25.43712,10.51620471603946,0.0856316899613458
25.439499999999995,10.516070633986208,0.085403426691631
25.441892,10.52036006230637,0.0851409512537166
25.44428,10.515989461334806,0.0849164318092639
25.446659999999994,10.518416558535412,0.0846610905419024
25.449064,10.524056461295933,0.0843832811260069
25.451452,10.527414724056316,0.0841251709527781
25.453832,10.532495548309395,0.0838659621303465
25.456236,10.538787077375972,0.0835957637664303
25.45862,10.55080536942808,0.0833032707015705
25.461,10.567759028532802,0.0829863809544018
25.4634,10.581919190958187,0.0826797431474843
25.465784,10.595660044502994,0.0823874028817612
25.468168,10.614615804354132,0.0820641757617385
25.470572,10.635433895324828,0.0817348820349292
25.472956,10.66440015890805,0.0813626929356579
25.475336,10.692854565812071,0.0809810576851627
25.477732,10.719446641596544,0.0806050212443108
25.48012,10.746830113313926,0.0802318560729213
25.482499999999995,10.768486822045782,0.0798799401223762
25.484904,10.79330911450931,0.0795348057343466
25.487288,10.813335809547086,0.0792090940533107
25.489672,10.828938994211448,0.0789168249310911
25.492068,10.850920568167396,0.0786093384071215
25.494451999999995,10.867175379137818,0.0783236720020331
25.496848,10.88180017641416,0.0780623809309775
25.499244,10.897495908877138,0.077794455375079
25.501632,10.90546277760817,0.0775553578344024
25.504012,10.913941503018398,0.0773272980952273
25.506408,10.91562253025646,0.0771257220836755
25.508796,10.915301456748104,0.0769336075309599
25.511176,10.914700843986028,0.076749645963259
25.513576,10.91023579935798,0.0765798025906039
25.515964,10.901347244356517,0.076441089475368
25.518348,10.89380916379541,0.0762874396000021
25.520744,10.878262680248636,0.0761699750931196
25.523128,10.867232254873894,0.076044525357839
25.525507999999995,10.858343699872428,0.0759057597977485
25.527912,10.850246540803886,0.0757689584011701
25.530296,10.847084748787951,0.0756118645754918
25.53268,10.84112946009268,0.0754619005503355
25.535084,10.83703650251697,0.07530707032066
25.537468,10.83257145788892,0.0751377881954413
25.539852,10.828385952514594,0.0749609160167621
25.542255999999995,10.82592300863296,0.0747833802700791
25.54464,10.821085876952573,0.0745999189017396
25.54702,10.818250846018602,0.0744082849696992
25.549412,10.819559786204325,0.0741942453213664
25.5518,10.816212898591154,0.073991223822758
25.554179999999995,10.820734644336795,0.0737584137293973
25.556584,10.825535929336157,0.0735172753688939
25.558972,10.831128610268436,0.0732779896594825
25.561352,10.840585723066686,0.0730257715044701
25.563748,10.851672849559018,0.0727510159728238
25.566136,10.858476235304792,0.0725011464311042
25.568515999999995,10.87114615366296,0.0722307637656583
25.570912,10.879300013849091,0.0719680297695594
25.5733,10.887453874035227,0.0717058100714137
25.575696,10.89123144567619,0.0714457318408878
25.5781,10.893146686197596,0.0711900201577409
25.580484,10.893479134853168,0.070929498954284
25.582864,10.89502228832224,0.0706594263380626
25.585256,10.899219168843786,0.0703877653995576
25.587644,10.900622552685997,0.0701224122781171
25.590024,10.90044314466237,0.0698525104373347
25.592428,10.903336772571798,0.0695685569694084
25.594815999999994,10.907301335667867,0.0692804451125102
25.597196,10.91899476249588,0.0689718089203117
25.599592,10.934040764510671,0.0686418036544831
25.60198,10.942568607607017,0.068324837159427
25.604364,10.953098551449774,0.0680011912581145
25.60676,10.962185473053555,0.0676687778360786
25.609144,10.97048099872442,0.0673348598101474
25.611524,10.97556371883537,0.0670173033787883
25.613932,10.983859244506233,0.0666824812284557
25.616316,10.986428007191568,0.0663616220960376
25.6187,10.98992793543668,0.0660393328119455
25.621092,10.992217158868293,0.0657265312437745
25.62348,10.99823104453902,0.0654075217266883
25.625864,11.005176095769528,0.0650872423108981
25.62826,11.016637205172064,0.0647637456534763
25.630644,11.025816674574465,0.0644555297268326
25.633028,11.034716604723144,0.0641561414042608
25.635424,11.039472563752131,0.0638729851209255
25.637808,11.048884350580003,0.0635835863815098
25.640208,11.06067032520664,0.0633031274394185
25.642604,11.066449997594018,0.0630428915507618
25.644991999999995,11.06501266292865,0.0628125851939136
25.647372,11.06287648012898,0.0626018154547798
25.649767999999995,11.063254254754929,0.0623946414111009
25.652156,11.063212720500294,0.0621996010830819
25.654536,11.069037718858048,0.0619903193703874
25.65694,11.07644550908164,0.0617870229359821
25.659324,11.087577961544346,0.061578958826594
25.661708,11.09829110512647,0.0613827199807168
25.664103999999995,11.111518206134209,0.0611904927577424
25.666492,11.125536703074864,0.0610016515996447
25.668872,11.141417531135076,0.0608109121688674
25.671276,11.153014618448736,0.0606397860891488
25.673663999999995,11.166985893561147,0.0604776913842259
25.676044,11.179094837554006,0.0603183712479991
25.678448,11.192134947106643,0.0601581264766159
25.680836,11.202241790353082,0.0600047812845329
25.68322,11.223010763637662,0.0598294589048205
25.685616,11.240566931362329,0.0596693662269791
25.687999999999995,11.252396336101464,0.0595190966005022
25.69038,11.266739698266212,0.0593732121808045
25.692775999999995,11.284156096364018,0.059217313062279
25.695164,11.29877899778249,0.0590639890628234
25.697544,11.317545870320654,0.0588967085228145
25.699943999999995,11.33752344767232,0.0587219820450031
25.702332,11.349213082784596,0.0585772878284826
25.704712,11.356246890097983,0.0584370190602705
25.707116,11.363560236665087,0.0582897688746094
25.709503999999995,11.37315522323233,0.0581301657139769
25.711884,11.386102784986344,0.0579540411189259
25.714284,11.398119181180585,0.0577792340051119
25.716668,11.409623720695627,0.0575946908299967
25.719048,11.42648293614386,0.0573881114659891
25.721447999999995,11.437894927860286,0.0571825129979603
25.723836,11.45051762439021,0.0569695210540391
25.726212,11.459555428307878,0.056755255948108
25.728615999999995,11.471014641852548,0.0565248603953914
25.731004,11.474884761292127,0.0563046179929223
25.733384,11.478522563306232,0.0560667988780885
25.735788,11.48765481088039,0.055804097718337
25.738176,11.494692409909511,0.0555245423843743
25.740556,11.497213950766604,0.0552443960937371
25.742951999999995,11.502017131623834,0.0549514064761228
25.745335999999995,11.500022614308891,0.0546701752198165
25.74772,11.493092729941342,0.0543988034862852
25.750116,11.489515420760563,0.0541101799881192
25.7525,11.489011147512842,0.053812159346025
25.754895999999995,11.486784312772423,0.0535117372710543
25.757292,11.479761880606258,0.0532171879701477
25.75968,11.467804081387476,0.0529323968014393
25.76206,11.452261389556444,0.0526446272202408
25.764464,11.431643561045938,0.0523685046788766
25.766852,11.405019430296184,0.0521048703309745
25.769231999999995,11.381747874733202,0.0518245089849138
25.771628,11.355123743983446,0.0515592886145809
25.774016,11.331293109913023,0.0512917737327949
25.776399999999995,11.30145617360335,0.051035419576376
25.778796,11.27082784136076,0.0507741435296262
25.781184,11.235775998744757,0.0505306303193508
