Time,Force,Position
24.870272,7.362283291005781,0.1712394402629165
24.872688,7.383560329253821,0.1709171785873945
24.875072,7.413450174965344,0.1704875856806119
24.877456,7.450649575528234,0.1699404178543317
24.879852,7.490549924971843,0.1693088856737936
24.88224,7.529519108855672,0.168692813569695
24.88462,7.561363833485369,0.1682591428948428
24.887016,7.598468790391772,0.1677921280005087
24.8894,7.635294208044455,0.1673378730953662
24.891784,7.6710959123387426,0.1668640178205187
24.89418,7.699355744356187,0.166477487902833
24.896568,7.729897216373769,0.1660486813251337
24.898948,7.76029891876449,0.1656255659774513
24.901348,7.796846693021322,0.1650900506282114
24.903732,7.835955646532011,0.1644858760313084
24.906116,7.878184857803999,0.1637933190537442
24.908512,7.915758241277095,0.1631794213689774
24.910904,7.9498392799365565,0.1626521855259165
24.913284,7.982709613782518,0.1621569930981992
24.91568,8.011296206881925,0.1617486530109802
24.918072,8.030199057331211,0.1614653101077312
24.920452,8.040581648115632,0.161312830939597
24.922868,8.054688901139167,0.1611127136391508
24.925252,8.06986708934934,0.1608937310305312
24.927636,8.086395751999872,0.1606410454059442
24.930032,8.10082976610537,0.160391008321884
24.93242,8.116381937225752,0.1600855782641974
24.9348,8.129559920547377,0.1597992949626966
24.937196,8.147533501294756,0.1594438582885637
24.939584,8.168300578721468,0.1590504544289926
24.941968,8.195353497641152,0.158547014238287
24.944364,8.217098962455887,0.1581114324024056
24.946752,8.246713060629428,0.1575626334187719
24.949136,8.27427783622831,0.1570870385118176
24.951532,8.30263400776011,0.156608542606771
24.95392,8.326194581866158,0.1562006165603851
24.9563,8.352595874479784,0.1557260889059483
24.958696,8.382349742280185,0.1551952687602545
24.96108,8.413965941200143,0.1546445349097968
24.96346,8.448422858627678,0.1540265555507405
24.96586,8.48623235124199,0.1533480545088526
24.968248,8.526091166430964,0.1526077681030241
24.970628,8.556498556395292,0.151994376453461
24.973024,8.584391988934005,0.1514029071733549
24.975412,8.611494025539802,0.150817387023749
24.977796,8.644881903638568,0.1501366100756591
24.980208,8.677478385804417,0.1494635013105227
24.982596,8.713147903903323,0.1487493676741676
24.98498,8.742811119762976,0.1481214870444034
24.987376,8.771682939689713,0.1475008015008219
24.989764,8.79962359405667,0.1468984278345274
24.992144,8.829054492490846,0.1462636528423414
24.99454,8.847963030513741,0.1457614398573863
24.996924,8.861703884058548,0.1453023790895922
24.999308,8.872791010550877,0.1448688052779093
25.001704,8.88187603629679,0.1444607152137511
25.004092,8.88695686054987,0.144108890400635
25.006472,8.884169051444141,0.1438596104286416
25.008868,8.87979845047258,0.143619175654327
25.011256,8.873937605433797,0.1434140213446849
25.013636,8.864072558902182,0.1432619123440188
25.016032,8.848713066810511,0.1431981850178494
25.018424,8.839220107331233,0.1430601376975412
25.020804,8.832101335650707,0.1429097386415593
25.0232,8.828287917328714,0.1427372964210364
25.025588,8.82033052788703,0.1426237532997671
25.027972,8.812792447325924,0.1424915506592537
25.030368,8.801389934898845,0.1424047349092226
25.03276,8.796645351017075,0.1422430866742086
25.03514,8.7948340334415,0.1420466272326667
25.039924,8.766906650079628,0.1419714456889851
25.042308,8.759181578063421,0.1418771855067932
25.044704,8.759976765712077,0.1416896412119821
25.047092,8.76263428448029,0.1414825592198159
25.049476,8.768225069554697,0.1412396958828921
25.051872,8.769532113882551,0.1410587186913112
25.054264,8.774563820449519,0.1408372581039473
25.056644,8.777685974068685,0.1406686095014313
25.059044,8.779457653247494,0.1405282259990896
25.061432,8.786024929852054,0.140332082419938
25.063812,8.793942680896976,0.1401052956928973
25.066208,8.794643424889147,0.1399799164645299
25.0686,8.796926960747154,0.1398475123120252
25.07098,8.797627704739323,0.1397233635569018
25.07338,8.796046808731358,0.1396372653993931
25.075768,8.795210086828066,0.1395807921248135
25.078148,8.796607783096666,0.1395195068023532
25.082936,8.789160354476309,0.1395038323803922
25.085316,8.79106990742411,0.1394514120918485
25.097272,8.796517131155918,0.1393968862588416
25.099652,8.808762053059896,0.1392692517411676
25.102048,8.82421978052379,0.1390969989657946
25.104436,8.84424078798796,0.1388527989437205
25.10682,8.867474601012045,0.1385637501810294
25.109216,8.886145134035853,0.1383471900693722
25.111608,8.913056387470805,0.1380558894509533
25.113988,8.945042777585233,0.1376987112137005
25.116384,8.974794749527767,0.1373479990135143
25.118772,9.003847873336,0.1370282948205702
25.121156,9.033692393077148,0.1367032167155315
25.123552,9.064095991325738,0.1363571491430632
25.125944,9.093475876215932,0.1359958124723487
25.128324,9.120574121105989,0.1356708309400779
25.13072,9.152467963421795,0.1352958255012112
25.133112,9.184781114618188,0.1349069334392566
25.135492,9.214859847642684,0.134524053705012
25.137888,9.245916968055203,0.1340979714088761
25.140276,9.274180591788385,0.1336979218678344
25.14266,9.299790488469093,0.133319661078285
25.145056,9.32689062921702,0.1329122262790495
25.147444,9.343049100673085,0.1326334110166634
25.149828,9.356134536196096,0.1323936234667795
25.152228,9.365215770226268,0.132200465930024
25.154612,9.371363737950247,0.1320389423379596
25.156996,9.383285690488002,0.1317902282164735
25.159392,9.391762520040364,0.1315667265387081
25.161784,9.400798428100163,0.1313220116351407
25.164164,9.408623631346469,0.1310966912544632
25.166564,9.41756699160765,0.130827818965254
25.168952,9.429071531122691,0.1305152117986714
25.171332,9.434849307652206,0.1302565138723996
25.173732,9.437414278621802,0.130038418416342
25.176116,9.443331824778172,0.1297742037661216
25.1785,9.447666579068708,0.1295165082951053
25.180896,9.449207836679909,0.1292833591576696
25.183284,9.449817928731331,0.1290581621796028
25.185668,9.451871043021727,0.1288333599694328
25.188068,9.457928358804963,0.1285659506902193
25.190456,9.468269415334747,0.1282462585862591
25.192836,9.475397666304618,0.1279673275049303
25.195236,9.486949427647904,0.1276295453589746
25.197624,9.496778627498491,0.1273014111012337
25.200004,9.5086099280955,0.12695251596565
25.2024,9.522862638319502,0.1265669331916379
25.204792,9.531248815931114,0.1262396233331866
25.207172,9.53404800018406,0.1259582785000655
25.209568,9.53656764518328,0.1256888519476745
25.21196,9.537364728689804,0.1254282963378929
25.21434,9.534669467382695,0.1252178770720219
25.21674,9.531834436448724,0.125013359236259
25.219128,9.535657334060064,0.124750500148844
25.221512,9.543344663537376,0.1244515980830938
25.223912,9.545956856335213,0.1242067594697925
25.2263,9.545635782826858,0.1239898929143389
25.228684,9.543824465251282,0.1238017896757567
25.23108,9.54094221248907,0.123626277153688
25.233472,9.538479268607434,0.1234344597988606
25.235852,9.530708870620852,0.1232765732105847
25.238252,9.5178633359548,0.123172215423361
25.24064,9.506508045355964,0.1230383412680331
25.24302,9.490729244383711,0.122961061213501
25.24542,9.478954644904295,0.1228428878361688
25.247808,9.467459584678602,0.1227136527171534
25.250188,9.453543114825909,0.1226202949314066
25.252588,9.441209436839053,0.1225229358072166
25.25498,9.432460651464446,0.1224013598707782
25.257364,9.420638830156786,0.1223124607820432
25.25976,9.411610505528463,0.1222013091673822
25.262152,9.40379288571364,0.122071611521407
25.264532,9.39197106440598,0.1219820820451006
25.266932,9.375772954553147,0.1219178974615503
25.26932,9.3587834487674,0.1218550640357108
25.271704,9.345798144474486,0.1217520397315226
25.2741,9.333883775368207,0.1216359750992566
25.276488,9.32560152070243,0.1214651528464585
25.278872,9.3233255682759,0.1212349212322004
25.281268,9.322772177342063,0.1209964124841215
25.283656,9.32859717569982,0.1207136258917113
25.28604,9.337215670736912,0.1204095542674683
25.288436,9.342341820960366,0.1201532073138636
25.290824,9.354824747863429,0.1198158541687444
25.293204,9.366376509206717,0.119487698435696
25.295604,9.375786400176722,0.1191847721954591
25.297992,9.38547583040045,0.1188707821911984
25.300372,9.397167361370595,0.1185379355500313
25.302772,9.409929827527378,0.1181938746255461
25.30516,9.424834164057438,0.1178250191489217
25.30754,9.441880370960778,0.1174336720153041
25.309936,9.458786808237257,0.1170474125738785
25.312328,9.479697447006563,0.1166228695302612
25.314708,9.502190877641713,0.1161953722543822
25.317108,9.527617574583056,0.1157454743594882
25.319496,9.551042170777984,0.1153152968625171
25.321876,9.575118393278965,0.1148892527241881
25.324272,9.600917177272647,0.1144594358190793
25.32666,9.620290350146496,0.1141022009920668
25.329044,9.63659048708729,0.113775953844271
25.331444,9.64809502660233,0.1134881418046841
25.333828,9.65601467350512,0.1132205654609278
25.336212,9.669288996341102,0.1128949920644689
25.338608,9.673204441751055,0.1126635504055696
25.340996,9.674978016787732,0.1124555336499312
25.34338,9.677170900704994,0.1122317326359371
25.345776,9.679363784622254,0.1120077351126888
25.348168,9.685700639659204,0.1117451452859275
25.350548,9.689243998016822,0.1115012081661917
25.352948,9.694509917867135,0.1112509672537089
25.355336,9.697633967344174,0.111024028920131
25.357716,9.704901987940904,0.1107586067899282
25.360112,9.712170008537637,0.110494236811104
25.3625,9.720788503574724,0.1102095950185775
25.364884,9.727684437119116,0.1099335588782787
25.36728,9.737932945850284,0.1096211327166394
25.369668,9.748880302715758,0.1092843470709996
25.372048,9.753961126968838,0.1089921869781949
25.374448,9.761742900102636,0.1086583334560648
25.376836,9.77301701805007,0.1082836451261353
25.379216,9.788435107117197,0.1078724457080359
25.381616,9.80757785842344,0.107438798609995
25.384004,9.8275120056626,0.1070085955457886
25.386384,9.85852759182048,0.1064899089686814
25.38878,9.888751782045444,0.1059709084618352
25.391164,9.918277124136107,0.1054764727118706
25.393548,9.949525027719467,0.1049771988193002
25.395944,9.9721129020111,0.1045385904635406
25.398332,9.999496373728489,0.104070196282502
25.400712,10.023294952833618,0.1036190960152192
25.403112,10.047373071192473,0.1031592889536804
25.4055,10.068378153618267,0.1027279026353385
25.40788,10.089523005670928,0.1022938191060946
25.41028,10.106104577723308,0.101908979173605
25.412668,10.11826263940228,0.1015686503557322
25.415048,10.126788586640751,0.101273579046822
25.417448,10.135966160185284,0.100984274292163
25.419836,10.148868395968927,0.1006746477581484
25.422216,10.16135132287199,0.1003802030604963
25.424616,10.170341904961417,0.1001255764972432
25.427004,10.177702473356762,0.0999009365397727
25.429388,10.183712567311751,0.0996958888525491
25.431784,10.180643323094436,0.0995579528303582
25.434172,10.167563575145032,0.099492183524842
25.436556,10.156858014994382,0.0994261384293402
25.438952,10.147363159657235,0.0993456642494188
25.44134,10.136797369133449,0.0992746551528392
25.443724,10.13074763678169,0.0991842646512341
25.446124,10.118412062936962,0.0991462294630698
25.448512,10.111663482450904,0.0990795257575058
25.450892,10.104495593084266,0.0990269231717852
25.453288,10.09690839483705,0.0989884432612164
25.45568,10.085968621403056,0.0989827782534639
25.45806,10.079033049461891,0.0989489798129833
25.460456,10.07274910382679,0.0989200488061818
25.462844,10.068607028564964,0.0988720744154434
25.465228,10.06176400442242,0.098862104943072
25.467624,10.056783311399432,0.0988425968915637
25.470016,10.05473588468264,0.0988044164781348
25.472396,10.054411019458543,0.0987617353637611
25.474796,10.053294758301533,0.0987189784723599
25.477184,10.054320367517793,0.0986577587042752
25.479568,10.06521671083928,0.0985318639723265
25.481964,10.084261226773297,0.0983463627017268
25.484356,10.103725051587894,0.0981476425158119
25.486736,10.124259811589129,0.097940599398635
25.489136,10.14693644196364,0.0977163534498144
25.49152,10.16681957565882,0.0975056862046231
25.493904,10.19191761566033,0.0972540753672342
25.496304,10.211288892676308,0.0970349769549823
25.498692,10.233733205625342,0.0967948384448486
25.501072,10.25366356114876,0.0965578794679493
25.503472,10.278669053351653,0.0962858973939806
25.50586,10.306235724808406,0.0959847279385734
25.508244,10.337853819586234,0.0956296720302162
25.51064,10.36947191436406,0.0952762706344671
25.513028,10.403790958022608,0.0948872015977569
25.515408,10.435596044255538,0.0945042708862693
25.517808,10.46367646824936,0.0941400273073656
25.520192,10.492595510004335,0.0937504694456459
25.522576,10.517138263214148,0.0933708258065297
25.524972,10.540237994184976,0.0929877046732892
25.52736,10.558821666983777,0.0926225123258345
25.529744,10.571399037543324,0.0922962918317175
25.53214,10.583045242543095,0.091974920856844
25.534528,10.590966785303753,0.0916691125241312
25.536908,10.597025996944854,0.0913720968549025
25.539308,10.605878705265292,0.0910634677091135
25.541696,10.612217456160115,0.0907583308936234
25.54408,10.623491574107549,0.0904260677321126
25.546476,10.63024963388295,0.0901091036370578
25.548864,10.643013995897606,0.0897570472965782
25.551248,10.653404170113504,0.089404746500007
25.553644,10.659510603582849,0.089085809480961
25.556032,10.663195627425194,0.0887921395837095
25.558412,10.665297859401702,0.0884971588780146
25.560812,10.665537760258657,0.0882095701316333
25.5632,10.661773459622776,0.0879439442826419
25.56558,10.659871490106454,0.0876714767216531
25.56798,10.655687880589994,0.0874191674727313
25.570368,10.660304069992122,0.0871230956938647
25.572748,10.663569784953888,0.0868435394987832
25.575148,10.66855806140835,0.0865619382669805
25.577536,10.674617273049453,0.0862721507376046
25.57992,10.681747419877192,0.085975429559908
25.58232,10.69846876155643,0.0856390857926783
25.584708,10.71239660655634,0.0853121672496154
25.587092,10.726464221183113,0.0849821023930496
25.589492,10.740903922862216,0.0846662314097851
25.59188,10.748406156742297,0.0843857393038476
25.594264,10.755628851368652,0.0841131666559494
25.59666,10.757496870061816,0.0838783875213922
25.599048,10.75866604062068,0.0836652432947917
25.601432,10.76104591599304,0.0834404510972457
25.603832,10.76421718729832,0.0832168238099548
25.60622,10.7691110200963,0.0829916130962492
25.6086,10.775447875133253,0.0827733184987755
25.610996,10.786440557969096,0.0825393685050408
25.613384,10.798224636737856,0.0823077199388372
25.615764,10.810660341812676,0.0820816351732466
25.618164,10.815459730954167,0.0819108645067082
25.620552,10.821330055282296,0.0817329374709233
25.622932,10.827991775543342,0.0815570377003373
25.625332,10.835165352483587,0.0813908520797648
25.62772,10.840057289423694,0.0812433600945484
25.6301,10.83279685225844,0.0811602186062256
25.632496,10.832054574011636,0.0810570824206154
25.634884,10.83024136057819,0.0809610921544911
25.637268,10.830570017518024,0.0808513377212562
25.639664,10.837556603003163,0.0807178101686352
25.642052,10.850269951473836,0.0805640101610096
25.644432,10.86726704069106,0.0803828515378447
25.646828,10.88268133804245,0.0801988252563879
25.649216,10.894882829833923,0.0800353399157539
25.651596,10.908155256812035,0.0798654905960703
25.653996,10.914629985617982,0.0797224357617339
25.656384,10.921524023304508,0.0795674015314913
25.658764,10.92976853543139,0.0793980693012532
25.66116,10.932426054199604,0.0792444896346676
25.663552,10.93443194666176,0.0790852426121167
25.665932,10.946216025430518,0.0788619642626101
25.668332,10.956277542706584,0.0786398003654176
25.67072,10.963825102557038,0.0784176794412835
25.6731,10.970069409795371,0.0781839969096765
25.675496,10.977012565168009,0.0779296739835574
25.677884,10.989869474981278,0.0776246280046739
25.680268,10.9962082258761,0.0773379362379852
25.682664,11.003106055278364,0.0770352777331339
25.685052,11.006698531322092,0.0767306444126314
25.687436,11.005263092514594,0.0764244880154848
25.689832,10.997449264415506,0.0761313512634869
25.69222,10.98912357963722,0.0758291369880905
25.694604,10.982008599672437,0.0755158419900319
25.697,10.98131923082748,0.0751646929673587
25.699388,10.980118005303328,0.0748043260427112
25.701768,10.990137988324758,0.0743914575661991
25.704164,10.995502143547297,0.0739891638089925
25.706552,10.997001866903863,0.0736001676846601
25.708936,11.000922999887427,0.0731891368146638
25.711332,11.00526344175157,0.0727658651962015
25.71372,10.99987291913735,0.0723769637045844
25.7161,10.997415662829326,0.0719778889242238
25.718496,10.997100276894576,0.0715672177791926
25.720884,11.00321050207966,0.071122361112933
25.723268,11.011834684690358,0.070680883266923
25.725668,11.019108392860696,0.0702537394011555
25.728052,11.028244432150592,0.0698218587362589
25.730436,11.033236500320792,0.0694085612383265
25.732832,11.038600655543334,0.0690088536726982
25.735224,11.045407833004848,0.0686167390387788
25.737604,11.05286663677242,0.0682295499612132
25.740004,11.05576216053972,0.0678733693382811
25.742388,11.059309310613074,0.0675235666691104
25.744772,11.05563945363368,0.0672059194447402
25.747168,11.051550287773706,0.0669004472919899
25.74956,11.038893640420625,0.0666405290822094
25.75194,11.030753051239572,0.0663757423592877
25.75434,11.02433502355122,0.0661113061110708
25.756728,11.021222349221397,0.0658525178283544
25.759112,11.017410826757274,0.0656132340599919
25.761508,11.016625118397968,0.0653868578030745
25.763896,11.013697539665378,0.0651716548645834
25.76628,11.002482018693405,0.0649914547713882
25.768676,10.983210872907518,0.0648651725078312
25.771064,10.9587248208153,0.0647617871749929
25.773444,10.93367969021564,0.0646738465872177
25.77584,10.913709696295454,0.0645663765664746
25.778232,10.899186926107076,0.0644539747882141
25.780612,10.887597422224896,0.064333354767506
25.783008,10.874936983156074,0.0642176608740652
25.7854,10.865629119274027,0.0640818266723623
25.78778,10.860325456884818,0.0639324608445331
25.790176,10.856092729682246,0.0637779676315884
25.792564,10.856515830278564,0.0636165572851472
25.794948,10.856938930874884,0.0634552798146558
25.797344,10.858572736284705,0.0632841676106448
25.799736,10.862348412067798,0.0631035019276008
25.802116,10.865984318224031,0.0629269385291107
25.804512,10.866547188447209,0.0627621686895352
25.8069,10.869391698670528,0.0625833790746901
25.809284,10.871724352214644,0.0623940104287537
25.81168,10.87577956725146,0.062206342317558
25.814068,10.892638782699697,0.0619839943321858
25.816452,10.912850573334705,0.0617420416270506
25.818848,10.937485874343128,0.0614759370087453
25.821236,10.969757491284884,0.0611730442965857
25.82362,10.99416047486783,0.0608919412122861
25.826016,11.01912253695822,0.060597411945928
25.828408,11.040359936809494,0.0603077851431134
25.830792,11.066952012593962,0.0599951681411346
25.833188,11.09191407468435,0.059703896333344
25.835576,11.112220308975848,0.0594173965344274
25.837956,11.132526543267346,0.0591322592741294
25.840356,11.156325122372476,0.0588276629974966
25.842744,11.181334406291109,0.0585158446853281
25.845124,11.211698366142931,0.0581823176521056
25.84752,11.23419369263595,0.0578671152808401
25.849912,11.257248097636406,0.0575377706255907
25.852292,11.28300345151758,0.0571852774754911
25.854692,11.30796740946584,0.0568312572079232
25.857076,11.336144172974011,0.0564653360529269
25.85946,11.36301768387007,0.056086988984504
25.861856,11.38430420140746,0.0557158450173939
25.864244,11.406661654131485,0.0553415043698174
25.866628,11.426085840549314,0.0549733920046236
25.869028,11.433497422488644,0.0546351653289356
25.871416,11.444633666667087,0.0542940238986931
25.8738,11.44948406935256,0.0539744135827209
25.876196,11.456476342411309,0.0536463542902679
25.878584,11.458113939536863,0.0533398321247672
25.880968,11.458308514423443,0.0530229289771764
