Time,Force,Position
24.639808,7.374828617740285,0.1582149921338489
24.642188,7.375807005128306,0.1581638089899733
24.644588,7.390892645539862,0.157907637667104
24.646976,7.422506948601952,0.157381556507299
24.64936,7.46161779797051,0.1567149421904069
24.651756,7.489042803942532,0.156198642780547
24.654148,7.515024787675579,0.1556827981989782
24.656528,7.530159545773248,0.15527136968743
24.658924,7.535750330847657,0.1549697736868927
24.661312,7.547020657079352,0.1546169206396284
24.663692,7.566344712267089,0.1541863527084896
24.666092,7.592139704545031,0.1536977223209941
24.66848,7.611182324621178,0.1534131231848536
24.67086,7.632691680294696,0.1531529826743687
24.67326,7.659228950819443,0.152838732660341
24.675648,7.684835055784413,0.1525358109461943
24.678032,7.71230349186894,0.152213975065649
24.680428,7.736559122393552,0.1519575698594131
24.682816,7.758580334746268,0.1517134864255619
24.6852,7.779670381539208,0.1514813001985027
24.687596,7.802110902772506,0.1512190375880666
24.689984,7.824878185087767,0.1509059051594856
24.692364,7.845970127738573,0.150580377884364
24.694764,7.865619048150402,0.1502647190202835
24.697148,7.871904889643373,0.1501605937835428
24.699532,7.880937005987435,0.1500551298514995
24.701928,7.899280777929281,0.1498328652003021
24.704316,7.932802738081302,0.1494091536759307
24.706696,7.979221246443359,0.1488274112497177
24.709096,8.019865769991641,0.1483579142489381
24.711484,8.062744711711819,0.1478790073985511
24.713868,8.099524803394129,0.1474618767856912
24.716264,8.1270404613069,0.1471327329814469
24.718656,8.14831749955494,0.1468776186625692
24.721036,8.16656872369817,0.1466309998372164
24.723432,8.183516695229283,0.1463784151387998
24.72582,8.194505586349388,0.1461819224132881
24.7282,8.203911685603659,0.1459958312409006
24.7306,8.212758706350485,0.1458373675964541
24.742532,8.237152210644089,0.1456991466238623
24.744928,8.251909194115813,0.1456271548109656
24.747316,8.273044566879124,0.1454823303970986
24.754488,8.301812463860028,0.1454115483737112
24.756868,8.306793156883014,0.1454081384890597
24.759268,8.3136834028538,0.1453493711381419
24.761656,8.334076497370306,0.1450943556966755
24.76404,8.357263088566148,0.1448093265773307
24.766436,8.375886399761713,0.1446023928581166
24.768828,8.407918115846513,0.1442693780221891
24.771208,8.446979847528961,0.1438756890075953
24.773608,8.486273896636883,0.1435017298381398
24.775996,8.531294708730337,0.1430675069205012
24.778376,8.577106916756708,0.14263083145411
24.780776,8.620637484782943,0.1422315290902588
24.783164,8.669802267996092,0.1417345575917553
24.785548,8.723158244157176,0.1411559737178704
24.787944,8.78456984513217,0.1404514209111291
24.790332,8.83909120013638,0.1398075683673442
24.792716,8.8884448706625,0.139205072095493
24.795112,8.934213648576367,0.1386354011475921
24.7975,8.978259864997538,0.1380805283611725
24.799884,9.022445851045568,0.1375278573167967
24.80228,9.06565344970558,0.1370177991538971
24.804668,9.114820128776598,0.1364651869352734
24.807052,9.163148190086453,0.1359540898335197
24.809448,9.200394812477589,0.1355921477153781
24.811836,9.237781204495578,0.1352282052463158
24.81422,9.278520171700348,0.1348105214747857
24.816616,9.307805612934054,0.1345167613242274
24.819004,9.332202908943396,0.1342504102627807
24.821384,9.359208606034835,0.1339079023553117
24.82378,9.380534761968988,0.1335970485501302
24.826168,9.399766269358109,0.1332839503918954
24.828552,9.422350351934002,0.1329221871482011
24.830948,9.443211873017203,0.1325735515883616
24.833336,9.456204760741592,0.1323127794841066
24.83572,9.456812956935147,0.1321730703705591
24.838116,9.459655571300598,0.1320305931798815
24.840504,9.467526100517272,0.1318608513455073
24.842888,9.482334097532975,0.1316181155964084
24.845284,9.502404222683255,0.1312852819060417
24.847672,9.515025023355312,0.1310170609078023
24.850056,9.528716759214005,0.1307349887406852
24.852452,9.54203640802036,0.1304411942863838
24.85484,9.553820486789125,0.1301234308402058
24.857224,9.563137829960514,0.1297880331149254
24.85962,9.567007949400097,0.129494460693989
24.862008,9.57474250070565,0.1291651184905189
24.864392,9.587831727944396,0.1287691852007819
24.866788,9.60306282555642,0.1283485972275347
24.86918,9.619085319101364,0.1279299651529702
24.87156,9.63296594227303,0.1275377352097016
24.87396,9.65043145805695,0.127121826217816
24.876348,9.667617434587148,0.1267182840760786
24.878732,9.68745713816982,0.1262997240762062
24.881132,9.712139661006487,0.1258117673352201
24.88352,9.743619882015324,0.1252612227523014
24.8859,9.775100103024158,0.1247116770078187
24.888304,9.802763113995264,0.1241687899945984
24.890692,9.822884252689528,0.1236633598718986
24.893076,9.829921851718652,0.1232879372889717
24.895472,9.844548544852865,0.1228496864750543
24.89786,9.859594546867651,0.1223964033289612
24.90024,9.868774016270052,0.1219960183485579
24.90264,9.873669744925898,0.1216441840236584
24.905028,9.882242913992616,0.1212936708613013
24.907408,9.895332141231362,0.1209119818346824
24.909808,9.902275296603996,0.1205945882003002
24.912196,9.901861675297024,0.1203579867977147
24.914576,9.897304082870356,0.1201658046502499
24.945648,9.63136299444458,0.120088026332704
24.948032,9.620098355786496,0.1200608442132504
24.950416,9.61376908418102,0.1199893486721268
24.952816,9.604134459217011,0.1199291479211464
24.955204,9.594919143133584,0.1198530780389588
24.957588,9.59026710705043,0.1197189626396485
24.959984,9.591249286154191,0.1195142853564859
24.962376,9.595584040444727,0.1192686924410529
24.964756,9.603922996228096,0.1189855768800585
24.967156,9.613612426451825,0.1186793180296413
24.969544,9.624652331115913,0.118350788558951
24.971928,9.637414797272696,0.118014894306759
24.974328,9.65483309122837,0.117646356700002
24.976716,9.672530924437767,0.1172647624534245
24.979096,9.688785735408189,0.1168815508645201
24.981496,9.708113582311665,0.1164682973213114
24.98388,9.724647932535802,0.1160763642321898
24.986264,9.742160670147962,0.1156486641787728
24.98866,9.761443191081064,0.1151873364974178
24.991048,9.776861280148191,0.1147577485787438
24.993428,9.787483771789567,0.1143655793613806
24.995824,9.796663241191968,0.1139714770134585
24.998212,9.807053415407866,0.1135629870175519
25.000596,9.819585459997043,0.1131317179326566
25.002992,9.830115403839802,0.1127191241778167
25.00538,9.838084168428704,0.1123451535326989
25.007764,9.847775494510302,0.11196572699181
25.01016,9.85597657652468,0.1116136256430837
25.012548,9.86445719779278,0.1112529492686334
25.014928,9.875079689434155,0.110871103167964
25.017324,9.888495677754866,0.1104737968345715
25.019712,9.89911816939624,0.1100942963339954
25.022096,9.90694716435828,0.109733409868471
25.024492,9.919991065626654,0.1093242215870289
25.02688,9.935037067641444,0.108899765486042
25.029264,9.948080968909816,0.1084925333420318
25.03166,9.96219580536483,0.1080751145174072
25.034052,9.976031102566123,0.1076688433584857
25.036432,9.985442889394,0.1073112011149539
25.03884,9.996065381035375,0.1069376382627145
25.041232,10.008829743050027,0.1065421711329318
25.043612,10.02210596174388,0.1061563762923716
25.046008,10.031098439691176,0.1058128109498752
25.0484,10.04074254394453,0.1054747462967861
25.05078,10.049036173757523,0.1051561896637497
25.053176,10.05788888207796,0.1048178141544859
25.055564,10.061666453718926,0.1045211540888115
25.057944,10.064932168680691,0.1042151342994081
25.06034,10.064053912522768,0.1039450124660208
25.062728,10.059823081178063,0.1037104189850636
25.065108,10.049725717220973,0.1035173981575196
25.067504,10.041211145129711,0.1033232728241092
25.069892,10.033068660090793,0.1031432896716602
25.072272,10.02050266467846,0.1030086033961897
25.074672,10.006446425198906,0.1028984322173999
25.07706,9.99411274721205,0.1027825339098046
25.07944,9.980288825157974,0.102691061130286
25.08184,9.963903723850038,0.1026341124990533
25.084228,9.948449788101884,0.1025717575032144
25.086612,9.934718413846422,0.1025035811090302
25.089008,9.923361227389716,0.1024344563141896
25.091396,9.91200404093301,0.1023651494249836
25.093776,9.90371989040936,0.1022708215766549
25.096172,9.896087366191765,0.1021811910252431
25.09856,9.893110669773064,0.1020666837585403
25.10094,9.891297456339617,0.1019663634600968
25.103348,9.89628194107834,0.1018220951237555
25.105732,9.900567577682764,0.1017016998115764
25.108116,9.911231603578774,0.1015520480844716
25.110512,9.925620291713896,0.1013829698614323
25.1129,9.94531643395397,0.1011943649830333
25.115284,9.968877008060016,0.1009830705973611
25.11768,9.993648286979564,0.100758006425985
25.120068,10.024797955190696,0.100505272022153
25.122452,10.052734817841912,0.1002799992347033
25.124848,10.08039214123941,0.1000652450612883
25.12724,10.110982730943102,0.0998318807697655
25.12962,10.146508687699406,0.0995654915473679
25.13202,10.18175510520199,0.0993090005127735
25.134408,10.216582213823994,0.0990681025214947
25.136788,10.251688861699716,0.0988200852201072
25.139184,10.291451337374337,0.0985516502105677
25.141572,10.328792403421955,0.0983115826750558
25.143956,10.365062534282936,0.0980821079674553
25.146352,10.398818707718304,0.0978588367908951
25.148744,10.434996290780669,0.0976102454600665
25.151124,10.46609873716356,0.0973993815328155
25.153524,10.503487025039426,0.0971410159934118
25.155912,10.537430189929898,0.0968932838506462
25.158296,10.573654994820508,0.0966264668012159
25.160692,10.60671421597944,0.0963601544138302
25.16308,10.631532716727232,0.0961279278416269
25.165464,10.65756192228852,0.095884283118411
25.16786,10.676700881879023,0.0956571305997569
25.170252,10.699611725536888,0.0953857099358678
25.172632,10.726946079568162,0.0950783157540394
25.175028,10.75190624580068,0.0947709516924114
25.177416,10.775423389794224,0.0944605382806479
25.1798,10.800291008228127,0.0941336932948045
25.182196,10.821853273303498,0.0938092823669484
25.184584,10.838619940953116,0.0935094437805999
25.186968,10.849287758564865,0.0932256152883223
25.189368,10.861725359497552,0.0929116246843112
25.191756,10.872068311885208,0.0925875571627839
25.19414,10.880548933153303,0.0922711218299759
25.196536,10.883442561062733,0.0919783592387429
25.198924,10.889176907479738,0.0916477678149028
25.201308,10.888253325351435,0.0913492414340292
25.203704,10.88253414579738,0.0910728375634136
25.206092,10.871088203257797,0.0908236693901369
25.208476,10.861644361464627,0.0905626670645395
25.210876,10.858858448216766,0.0902709577143358
25.213264,10.852068333476074,0.0900026903586029
25.215644,10.846861010601216,0.0897350027912845
25.218044,10.84230531403242,0.0894726764120657
25.220432,10.827087487425477,0.0892627230894366
25.222816,10.81373199193809,0.0890453868290456
25.225212,10.797722769398233,0.0888339481955359
25.2276,10.77812865424612,0.0886317156023607
25.229984,10.76333013651976,0.0884072797183931
25.23238,10.75081325879354,0.0881621464417804
25.234768,10.737597532933016,0.0879378612899463
25.237152,10.724242037445633,0.0877176762591267
25.239548,10.70953606751789,0.0875130062322967
25.241936,10.6996256950159,0.0872868658936697
25.24432,10.69302067587244,0.0870596884799251
25.246716,10.682923311915346,0.0868640427337973
25.249108,10.673896883144891,0.0866601987248144
25.251488,10.672459548479525,0.0864248755289099
25.253888,10.671953379373932,0.0861857554586661
25.256276,10.667954865454709,0.0859781883542557
25.25866,10.661023085229289,0.0857850594855552
25.26106,10.65423107463073,0.0855870045416402
25.263448,10.65079163921894,0.0853620771263617
25.265832,10.64469847675468,0.0851424640621968
25.268232,10.641398810969756,0.084911500923257
25.27062,10.63395517406514,0.0847062948374713
25.273008,10.628885724959272,0.0845042266423776
25.275404,10.6272613988388,0.0842976725161076
25.277796,10.621632871225492,0.0841126874844469
25.280184,10.618518301037804,0.0839270359974156
25.282584,10.617825140477107,0.0837175258007029
25.284972,10.616852440662695,0.0835167999701347
25.287364,10.620535568647178,0.0833004190591213
25.28976,10.616350063272847,0.0831216452220203
25.292152,10.607648499726489,0.0829536553243093
25.294544,10.601740432859463,0.0827762069060191
25.296944,10.596483992298491,0.0826041932848068
25.299332,10.585361019125134,0.0824591731091781
25.301716,10.57810247781775,0.082297786272213
25.304112,10.571263245390949,0.082122932737388
25.3065,10.566146574456836,0.0819463575012449
25.308884,10.562612695388566,0.0817721447563166
25.311284,10.551582270013824,0.0816487702205388
25.313672,10.54092393169142,0.0815393824786346
25.316056,10.533198859675212,0.0814163451925349
25.318452,10.5296177587787,0.0812681204320936
25.32084,10.524314096389489,0.0811214974603374
25.323228,10.51849857732108,0.0809649237092415
25.325624,10.513614223812448,0.0808050493668561
25.328012,10.50751916549032,0.080657079855728
25.330408,10.499422006421774,0.0805188959591447
25.332812,10.491185077726367,0.0803849789909764
25.3352,10.48364699716526,0.0802298812056408
25.337604,10.483046384403185,0.080041959204629
25.34,10.489103700186416,0.0798302422260421
25.342388,10.492786828170894,0.0796140991963307
25.344784,10.494607625035815,0.0794032256780414
25.34718,10.500712162647291,0.0791640830341395
25.349568,10.502160872459877,0.0789390954085043
25.351972,10.506263309324936,0.0787103236188826
25.354376,10.511716220630351,0.0784671066924079
25.356764,10.516797044883434,0.0782095879748357
25.35916,10.532167912122317,0.0778965978768171
25.361564,10.55023972824192,0.0775536027145917
25.363952,10.574457616227631,0.0771818886660535
25.366352,10.598675504213343,0.0768120835707704
25.368744,10.62075152182578,0.0764547052692876
25.371144,10.64147706499786,0.07611295566756
25.37354,10.661411212237018,0.0757690389277375
25.375924,10.68004210686406,0.0754139074731463
25.37832,10.70360836854372,0.0750397745643897
25.38072,10.72480044242462,0.0746597711527183
25.383104,10.738356200372188,0.0743295752835147
25.3855,10.751120562386845,0.0739993378586012
25.387896,10.761510736602744,0.0736652129065653
25.390284,10.772272997870978,0.0733450360564843
25.39268,10.784245963952714,0.0730138858389433
25.395076,10.797941491527142,0.0726845429695367
25.397464,10.811217710220992,0.0723668701933849
25.399848,10.82104880592945,0.0720495345105455
25.402244,10.826735930518216,0.0717537515421405
25.404628,10.830281184733703,0.0714699234687092
25.407012,10.8267492015233,0.0712183348157544
25.409416,10.823729074992096,0.070977838732363
25.4118,10.80855657435553,0.0707902376295488
25.414184,10.78937987222613,0.070618319608107
25.41658,10.773555745283506,0.0704234061457221
25.418968,10.75880255352752,0.0702221132070486
25.421352,10.748984728824148,0.0700029131588751
25.423756,10.737676660053555,0.0698014422977968
25.426144,10.719291353857075,0.0696293482668017
25.428524,10.70742420657904,0.0694439692836066
25.43092,10.703705231913537,0.0692229610060144
25.433308,10.70063788355409,0.0690089376817462
25.435688,10.698873787806756,0.0688080389309108
25.438084,10.70246436799262,0.0685788790768004
25.440472,10.708848444857814,0.0683451098908414
25.442852,10.711228320230177,0.0681268552882468
25.445252,10.713887734856256,0.0678999501080906
25.44764,10.725858805080124,0.0676576714793304
25.45002,10.738900810490629,0.0674094508091331
25.452416,10.756598643700023,0.0671533648406725
25.454808,10.77336531134964,0.0668980633022353
25.457188,10.785336381573506,0.0666550329948659
25.459584,10.805315854783036,0.0663824826697696
25.461972,10.830370464672043,0.0660904536820363
25.464352,10.856868096800024,0.0658088218297234
25.466748,10.883365728928004,0.06552799443184
25.469136,10.90651078586921,0.0652692373799481
25.471532,10.937012619490028,0.0649781155392708
25.473928,10.974451920909871,0.0646653495770257
25.476316,11.004162358597773,0.0643730399970257
25.478696,11.031219069233192,0.0640831283690361
25.481096,11.05427157837578,0.0638071263189385
25.483484,11.074810130092754,0.0635283015628221
25.485864,11.08706073957034,0.0632842466241936
25.48826,11.094236212368454,0.0630586306568069
25.490648,11.10169122442029,0.0628251131843606
25.493032,11.113941833897874,0.0625819573718074
25.495428,11.115809852591038,0.0623574488809722
25.497816,11.119400432776898,0.0621345632617173
25.500196,11.124061948149397,0.0619078748564458
25.502592,11.13766303206734,0.0616563967000641
25.50498,11.15605971341104,0.0613955455545317
25.50736,11.17259406363518,0.0611381528393317
25.509756,11.18777793941896,0.0608945740340415
25.512144,11.19951669221735,0.0606481225467019
25.514528,11.213257545762156,0.0603967362322577
25.516924,11.226486542627764,0.0601351733727781
25.519308,11.23235876281376,0.0599044334666739
25.521708,11.23622888225334,0.0596804694888609
25.524104,11.247967635051728,0.0594380787365502
25.526492,11.259287078969535,0.0592073809657843
25.528872,11.27288816288748,0.0589635935605159
25.531272,11.287140873111484,0.0587266353747026
25.53366,11.309681525574875,0.058460800350589
25.53604,11.337437084344602,0.0581761793657249
25.53844,11.36798613979366,0.0578903342833271
25.540828,11.394530993749884,0.0576164546509305
25.543212,11.422798409198805,0.0573438457426795
25.545608,11.451345363901448,0.0570650524927135
25.547996,11.475888117111255,0.0567979352967376
25.550376,11.491491301775616,0.0565536525537799
25.552772,11.507374025693698,0.056303511846112
25.55516,11.526981411850894,0.056052203194626
25.557544,11.543655531701893,0.0558065710716206
25.55994,11.561912443418729,0.0555670274704882
25.562324,11.576304923269593,0.0553342023940558
25.564708,11.593490899799791,0.0551003806260264
25.567104,11.61174781151663,0.0548619908706609
25.569492,11.626140291367491,0.0546295623369879
25.571872,11.634526468979104,0.0544122027953272
25.574272,11.642121250657798,0.0541918396952141
25.57666,11.649855801963357,0.0539683167546943
25.579044,11.657730122895767,0.0537414403451548
25.58144,11.659318602335214,0.0535360987656376
25.583828,11.653690074721908,0.0533515978017264
25.586212,11.642986410429128,0.0531799699893022
25.588608,11.631491350203431,0.0530046974510848
25.590996,11.623069325910793,0.0528207685753635
25.593376,11.614507531991292,0.0526406922101098
25.595776,11.607156442885293,0.0524528988023393
25.598164,11.599805353779288,0.0522642083008133
25.600548,11.587239358366956,0.0520914896936798
25.602944,11.565873564036036,0.0519323020876537
25.605332,11.545858244145474,0.051761382771969
