Time,Force,Position
23.664328,8.18551623480209,0.1583494108183847
23.666724,8.240955484360994,0.1581975385089621
23.669108,8.284478468955754,0.1580771062554548
23.671492,8.323441965265976,0.1578460671636476
23.673888,8.355192246239188,0.1575435192129355
23.676276,8.374933714449638,0.1572370490187154
23.678656,8.384294487733532,0.1569808786026137
23.681056,8.383971518367309,0.1568345304760105
23.683444,8.383928088254804,0.1566757243015848
23.685824,8.389099564448632,0.1564308845945543
23.688228,8.395761284709677,0.1561450554724371
23.690616,8.393251118999801,0.1559736432467167
23.692996,8.387435599931392,0.1558300392690333
23.695392,8.384925434221515,0.1556589863285017
23.69778,8.386092708922508,0.1554750558364465
23.700164,8.388563236235617,0.1552939672815211
23.70256,8.396248669855058,0.1550275096694769
23.704948,8.413013441646807,0.1546244728471809
23.707332,8.429730991610313,0.1542599310477056
23.709728,8.453246239745987,0.1538041288873594
23.712116,8.474107760829186,0.1533730562107488
23.714496,8.495807899673546,0.1528994536479812
23.716892,8.516763864413232,0.152400786068353
23.71928,8.53627680691394,0.1519098493041079
23.721664,8.551925317548676,0.1514734676884496
23.72406,8.570507094489606,0.1509981344557318
23.726448,8.585783518072006,0.1505477348052868
23.728828,8.602130876841043,0.1500810229872263
23.731224,8.617127761169721,0.149647652404597
23.733612,8.631425797364098,0.1492486974689464
23.736008,8.650519430984227,0.1487896229128858
23.738404,8.668961438298298,0.1483258755489136
23.740792,8.688334611172147,0.1478528136566738
23.743172,8.706916388113079,0.1473856465569856
23.745572,8.72577770430773,0.1469081134888518
23.747956,8.745058329382962,0.1464131029712302
23.75034,8.764246406659577,0.1458954434401305
23.752736,8.774262597965269,0.1454790817921926
23.755128,8.781392744793008,0.1450684887593323
23.757508,8.782796128635216,0.1447274302300978
23.759908,8.787272548410483,0.1443414990095694
23.762296,8.792959672999247,0.1439321567917779
23.764676,8.795154452774375,0.1435849848007877
23.767076,8.795067592549366,0.1432772615849243
23.769464,8.796703293817052,0.142955609864565
23.771848,8.796057355084603,0.1426732216995745
23.774244,8.799136078591266,0.1423501434279659
23.776632,8.802214802097929,0.1420281141726592
23.779016,8.805433295231452,0.1417009117870354
23.78142,8.810002262805334,0.141347031148306
23.783808,8.816061474446435,0.1409624393705544
23.786188,8.822260455714398,0.1405696553963414
23.788584,8.826085249183604,0.1401879959277166
23.790972,8.83126051709317,0.1397795969138042
23.793356,8.837926029069955,0.1393401003299971
23.795752,8.842170131419742,0.1389432507603951
23.79814,8.845435846381509,0.1385900165719849
23.80052,8.853869245821365,0.1381981041212455
23.80292,8.859322157126782,0.1378714373812463
23.805308,8.86915135697737,0.1375106016344536
23.807692,8.885638485373269,0.1370827167660245
23.810088,8.903848175261864,0.1366440192082282
23.812476,8.922057865150457,0.1362031234165757
23.814856,8.942269655785466,0.1357384300859195
23.817256,8.95954818011428,0.1353072291303489
23.819644,8.974964373323541,0.134892729937128
23.822024,8.9891698617193,0.1345009262228555
23.824424,9.002444184555282,0.1341194235688251
23.826812,9.013576637017986,0.1337683094101409
23.829192,9.01749208242794,0.1335098629644272
23.831592,9.014143298956904,0.1333776394444675
23.833976,9.016753595896873,0.1332059041829701
23.83636,9.021970398061075,0.1330455485637084
23.838756,9.025929273583532,0.1329388976312789
23.841148,9.026348582464117,0.1329212192684714
23.843528,9.033425819890004,0.1328357470472899
23.845928,9.04143422287567,0.1327420730984182
23.848316,9.046509359555142,0.1326807645897204
23.850696,9.058010107354448,0.1325318742845681
23.857864,9.062992696235304,0.132444228572011
23.86026,9.068300150340256,0.1324047493533411
23.862652,9.073188295564622,0.1323826325621814
23.865032,9.08273226858788,0.1323185574883688
23.867428,9.097583695716091,0.1322155828348497
23.869816,9.1129469795235,0.132121652878287
23.8722,9.133757487062717,0.1319854947844183
23.874596,9.158432426467908,0.1318115692612229
23.876988,9.1939092655381,0.1315255489009738
23.879368,9.235811715728127,0.1311557335709621
23.881768,9.276131374052314,0.1307960237377307
23.884156,9.312354283085051,0.1304534159729532
23.88654,9.348903953199754,0.1300695313947197
23.888936,9.38564061476956,0.1296477336211492
23.891324,9.414508642980554,0.1293094479769387
23.893708,9.435647807459604,0.1290454195721496
23.896104,9.45878907268507,0.1287596252578223
23.898492,9.48057986347018,0.1285015528326791
23.900876,9.5073060213079,0.1281929644776128
23.903276,9.533892409518762,0.1278886737118354
23.905664,9.561549732916257,0.1275721740877901
23.908044,9.581478192581809,0.1273318564606882
23.910444,9.60168619150108,0.1270812975340206
23.912832,9.620171628927656,0.1268431281484679
23.915216,9.636143108928616,0.1266189151105752
23.917612,9.653604832996797,0.126366443811561
23.920004,9.658821635160995,0.1262201172016499
23.929556,9.619674939111416,0.1261438977170888
23.931951999999995,9.610272631572885,0.1261095960730443
23.93434,9.602313346273329,0.126076016222047
23.936724,9.596076622466468,0.1260327137548487
23.93912,9.594263409033024,0.1259327638643947
23.941508,9.60045859858525,0.1257510231411694
23.943888,9.604931226644776,0.1255790438724031
23.946288,9.60637804059949,0.1254102571609368
23.948676,9.604519501195671,0.1252554985159676
23.951056,9.604430745112792,0.1250612353976443
23.953452,9.601176405298242,0.1248750729938219
23.955844,9.601554179924186,0.1246343287352069
23.958224,9.598486831564738,0.1244119716378291
23.96062,9.593836691339456,0.1241936477290624
23.963008,9.59011771667395,0.1239682452364718
23.965392,9.582674079769328,0.1237718767636931
23.967788,9.586172112156572,0.1234685854329591
23.97018,9.591392706036514,0.1231558055554317
23.97256,9.606623803648535,0.1227444483972549
23.974956,9.62334514532778,0.1223049008396242
23.977344,9.637924616633748,0.1218886746273861
23.979728,9.647428951260244,0.1215267690874662
23.982124,9.65493118514032,0.1211855525430056
23.984512,9.66164202308748,0.1208469494515922
23.986896,9.666350760288225,0.1205282764254847
23.989292,9.670128331929186,0.1202179975883843
23.991684,9.67404567319701,0.1199021369283958
23.994064,9.676333000770756,0.1196183292694855
23.996464,9.682065451329892,0.1193184217451143
23.998852,9.689660233008588,0.1190062706194907
24.001232,9.699908741739756,0.1186792142976159
24.003632,9.710808876776984,0.118357038367277
24.00602,9.7275755444266,0.1179851673180316
24.008404,9.745925003942055,0.1176112127312647
24.0108,9.762691671591671,0.1172410488536711
24.013188,9.780249735174207,0.1168687529452331
24.015568,9.791801496517497,0.1165532954854808
24.017968,9.8036327971145,0.1162281590324364
24.020356,9.80652452916606,0.1159828783970869
24.022736,9.810067887523676,0.1157420863885807
24.025136,9.81696382106807,0.1154609316046197
24.027524,9.823859754612464,0.115179456699734
24.029908,9.82931266591788,0.1148951456261237
24.032304,9.831832310917102,0.1146347025667033
24.034692,9.834212186289465,0.1143791416641077
24.037076,9.836731831288686,0.1141193048930657
24.039472,9.84311590815388,0.1138300509335508
24.04186,9.856856761698683,0.1134671712389229
24.04424,9.8647310826311,0.1131523628882611
24.04664,9.869252828376744,0.1128772842197688
24.049024,9.872052012629688,0.1126098491944992
24.051408,9.871917930576434,0.1123658390546639
24.053804,9.867639877403484,0.1121618972174547
24.056192,9.860568327551205,0.1119759527392936
24.058576,9.85521933919162,0.1117829659999981
24.060972,9.849870350832036,0.1115896802620276
24.06336,9.846383693592008,0.1113840811616854
24.065744,9.842617497098258,0.1111886304576544
24.06814,9.843786667657122,0.1109526965979114
24.070528,9.840811867096292,0.1107555615299981
24.072908,9.840490793587934,0.1105462970289756
24.075304,9.842171820825996,0.1103203656621774
24.077696,9.844504474370114,0.110098181551924
24.080076,9.851632725339986,0.1098415779868097
24.082476,9.860763077056273,0.1095686121413003
24.084864,9.86775155839928,0.1093178239844259
24.087244,9.869804672689682,0.1091065948119416
24.08964,9.863569844740692,0.1089714426377392
24.092028,9.859197347911262,0.1088243676596771
24.094412,9.85375391589519,0.1086877716272003
24.096808,9.8468202398119,0.1085768078822029
24.0992,9.84081772928839,0.1084597564201681
24.10158,9.83774848507107,0.10832034491152
24.103976,9.839614607906366,0.1081423651819574
24.106364,9.841340961114804,0.1079699221283254
24.108744,9.845860811002572,0.1077808303911621
24.111144,9.85238276163676,0.1075762105728566
24.113532,9.860906813017362,0.1073562849729657
24.115916,9.86714922439783,0.107162521989302
24.118312,9.875673275778432,0.1069420192623067
24.1207,9.881403830479702,0.1067392271554134
24.123084,9.884061349247911,0.1065628001462325
24.125484,9.88965213432232,0.1063654553248378
24.127872,9.89431175383695,0.1061744755646962
24.130256,9.89790043816494,0.1059941963061659
24.132652,9.903351453612489,0.1058034262050632
24.13504,9.909593864992956,0.1056117526242001
24.137424,9.920911413052895,0.105378058633871
24.13982,9.93451060111297,0.1051194043225137
24.142208,9.951322594732964,0.1048300093679122
24.144592,9.97120762428601,0.1045146620092854
24.146992,9.99509685533189,0.1041700215997715
24.14938,10.015121654511798,0.1038521459451039
24.151764,10.030071317012233,0.1035761175688112
24.15416,10.04301887876625,0.1033156986266508
24.156552,10.055175044587353,0.1030569967624829
24.158932,10.064118404848534,0.1028287551706731
24.161332,10.068917793990025,0.1026356450761938
24.16372,10.076138592758513,0.1024132583205896
24.1661,10.086804514512393,0.1021810782004449
24.1685,10.09919299775897,0.1019446461871532
24.170888,10.114794286565465,0.1016790496509286
24.173268,10.128113935371818,0.1014386763801636
24.175664,10.140083109737812,0.1012181211268379
24.178056,10.153914615223366,0.1009886575947986
24.180436,10.164673084775863,0.1007832863769932
24.182832,10.177293885447918,0.1005683226517084
24.18522,10.192708182799308,0.1003407599584967
24.187604,10.206492466456616,0.1001421430323084
24.19,10.21813487974065,0.099962824552185
24.192388,10.227775192278266,0.0997979291925229
24.194772,10.232060828882686,0.0996804946672762
24.197168,10.239931358099362,0.0995490563045961
24.199556,10.249803988062457,0.0994033605480935
24.20194,10.260747553212187,0.099248283005753
24.204336,10.26940947836178,0.099116877558213
24.206724,10.280353043511512,0.098962228171084
24.209108,10.295300810154076,0.0987796955380871
24.211504,10.309549728662338,0.0986212962389917
24.213892,10.322215855304766,0.0984639151716536
24.216276,10.3307380108275,0.0983388478103744
24.218676,10.338421548589071,0.0982420232380572
24.221064,10.348246956723925,0.098127247054539
24.223448,10.359283069672273,0.0979989957340483
24.225844,10.366314981127788,0.0978980728705373
24.228232,10.377351094076136,0.0977700872184736
24.230616,10.38959791183798,0.0976292208593958
24.233012,10.397560988853272,0.0975250962460022
24.2354,10.406874540308923,0.0974030576781967
24.237784,10.417770883630412,0.0972813857309606
24.240184,10.431320954004374,0.0971513743153369
24.242572,10.447944060311391,0.0969989074997896
24.244956,10.461633900312217,0.0968644107867698
24.247352,10.476766762552018,0.0967352995094067
24.24974,10.493901725538231,0.0965937948355041
24.252124,10.511176458151311,0.0964474464881143
24.25452,10.526169550764251,0.0963236200832433
24.256908,10.54237334819069,0.0961878635568594
24.259292,10.558484597818511,0.0960298491367629
24.261704,10.573385142632835,0.095885571495646
24.264092,10.593640363380349,0.0956984396683211
24.266472,10.613663266702384,0.0954934280132147
24.268868,10.631172212598807,0.0952927919623637
24.271256,10.647098366629391,0.095092036322582
24.27364,10.66609755659304,0.0948700057490284
24.276036,10.6853762858104,0.0946408134288675
24.278424,10.700930352788651,0.0944283555201458
24.280804,10.716252102341423,0.0941977856964821
24.283204,10.731853391147917,0.0939594604087215
24.285588,10.747641671409516,0.0936906738898644
24.287972,10.763337403872494,0.093400938843537
24.290368,10.78187385484305,0.0930751696421197
24.292756,10.801109153947907,0.0927274858380464
24.295136,10.81960027894809,0.0923540722002954
24.297532,10.835297907268936,0.0919930363429418
24.29992,10.855558815590056,0.0915928593907977
24.302299999999995,10.873585305739285,0.0911849798733395
24.3047,10.886024802529844,0.0908002243081123
24.307088,10.900466400066817,0.0904057380866706
24.309467999999995,10.913604744991677,0.0900011365776048
24.311868,10.921295866184725,0.0896146327663262
24.314256,10.927543965138796,0.0892223561590489
24.31664,10.930719028159816,0.0888480157113003
24.319036,10.93682735748703,0.0884597328211221
24.321424,10.941492664575264,0.0880660759498308
24.323808,10.942712848678106,0.0876783149784532
24.326204,10.945935133527367,0.0872791484780128
24.328588,10.950228353563269,0.0868725463090993
24.330972,10.949725976173411,0.0864865079628358
24.333368,10.947733354716345,0.086121021024299
24.335756,10.943598862885995,0.0857710342199557
24.33814,10.9298259543759,0.0854882880150267
24.340536,10.91763583773164,0.0852073978983981
24.342928,10.903024311460385,0.084949418681915
24.345308,10.88762138925621,0.0846896951643303
24.347704,10.866724021491986,0.0844712329626492
24.350092,10.851553416713292,0.0842289174911316
24.352476,10.835172107121098,0.0839969600066146
24.354872,10.81129425122243,0.0838163360201738
24.35726,10.791001287936018,0.0836268504555535
24.35964,10.772151346888585,0.0834431236971725
24.362036,10.756466989572818,0.0832636913659207
24.364424,10.746649164869444,0.0830568806137538
24.366804,10.73254759941952,0.0828791785655078
24.3692,10.71923742990251,0.0827023024038223
24.371588,10.705088642624338,0.0825503144303717
24.373968,10.68986892015953,0.0824052183765909
24.376364,10.6731589536275,0.0822797539630196
24.378756,10.660033879707726,0.0821461780495459
24.381136,10.648771136907506,0.08200650737771
24.383536,10.63629768929379,0.0818778569877672
24.385924,10.6319724142926,0.081703896513001
24.388304,10.627647139291414,0.0815302480322572
24.390704,10.62383372096942,0.0813660810167515
24.393088,10.625467526379238,0.0811892287176404
24.395472,10.629382971789193,0.0809937219148391
24.397867999999995,10.630085611639233,0.0808198968316196
24.400256,10.63637524484794,0.0806289169236915
24.40264,10.650952820296038,0.0803897071843418
24.405036,10.663528294997718,0.0801614149061045
24.407424,10.68103913675201,0.0799121213139964
24.409804,10.695756481826969,0.0796716727485725
24.4122,10.70726102134201,0.0794526037210574
24.414588,10.72197836641697,0.0792130402963251
24.416972,10.737626877051705,0.078971773780271
24.419368,10.758490293992775,0.0787012584853996
24.421756,10.77921394130698,0.078434931873426
24.42414,10.801427832688413,0.0781497050068159
24.426536,10.825643824816254,0.0778563685312272
24.428924,10.850930752130736,0.077558186589816
24.431304,10.877288614631858,0.0772530513784834
24.433704,10.903646477132977,0.0769503162963244
24.436092,10.92907317407432,0.0766511864570374
24.438472,10.956129884709744,0.0763293953198757
24.440868,10.97452656605344,0.0760379374212719
24.443256,10.993994182583776,0.0757412373174039
24.44564,11.015883208741108,0.0754243359798343
24.448036,11.036049673405744,0.0751092635466536
24.450424,11.051560310271489,0.0748070981378713
24.452804,11.062135580084622,0.0745234846812053
24.4552,11.067915252472002,0.0742564992935971
24.457588,11.076535643366965,0.0739573679286202
24.459972,11.08771721351578,0.0736341484156522
24.462368,11.101692280343933,0.0733066308152646
24.464756,11.11208245455983,0.0729837791726051
24.467136,11.117537261723117,0.0726801237845905
24.469536,11.130209075939153,0.0723441691199554
24.471924,11.138085292729436,0.0720215766852334
24.474304,11.147032444706358,0.0716949400572728
24.476704,11.154536574444306,0.0713617172309449
24.479092,11.16883840235442,0.0710093999406043
24.481476,11.183419769518258,0.0706514801126368
24.483872,11.19362484813692,0.0702940839977594
24.486264,11.208345984927616,0.0699338875606594
24.488644,11.22548853134531,0.0695525097780498
24.49104,11.238207567389589,0.0691976126850017
24.493428,11.24850519380687,0.0688624950135538
24.495812,11.257220028358317,0.0685230822024016
24.498208,11.269240216268292,0.0681890105254484
24.500592,11.284473209738186,0.0678364414301228
24.502976,11.2975643328348,0.0674942382905736
24.505376,11.309537298916537,0.0671847104445082
24.507764,11.318017920184635,0.0668998691699085
24.510148,11.319980382534288,0.0666270667886269
24.512544,11.323246097496057,0.0663659532382551
24.514932,11.32786228689818,0.0660912165032595
24.517316,11.32353890775486,0.065847039979679
24.519712,11.329318580142242,0.0655903777460908
24.522104,11.329511259170951,0.0653430557625173
24.524488,11.327654615625004,0.0651280121365682
24.526883999999995,11.317929338720244,0.0649367822454338
24.529272,11.3028493858823,0.0647715502311918
24.531656,11.295590844574914,0.0646087757517748
24.534052,11.278880878042886,0.0644635050613882
24.53644,11.269340696735364,0.064315017490005
24.538824,11.264503565054977,0.0641342741282013
24.541224,11.258595498187953,0.0639582526482666
24.543612,11.256132554306316,0.063784684439743
24.545996,11.25115565299907,0.0636075555958974
24.548392,11.254699011356688,0.0634163000004834
24.55078,11.26373681527436,0.0631964952638146
24.55316,11.269981122512691,0.0629802368857037
24.555556,11.282371501617138,0.062742483237399
24.557944,11.293411406281226,0.0625161405748666
24.560328,11.308315742811288,0.0622819366957192
24.562724,11.32294054008763,0.0620554785143392
24.565112,11.33807719404317,0.0618384392145182
24.567492,11.346555919453396,0.0616343561331871
24.569892,11.355826040796549,0.0614324286237257
24.572276,11.364724075087356,0.0612160873434113
24.57466,11.37311025269897,0.0609889402311096
24.57706,11.384429696616776,0.060754315530244
24.579448,11.388579355310078,0.0605209790424921
24.581828,11.399526712175543,0.0602724342689062
24.584228,11.404887075682346,0.0600313206275039
24.586612,11.409408821427984,0.0598135467197982
24.588996,11.419936869412874,0.0595792288498144
24.591392,11.429673521464844,0.0593431764010275
24.593779999999995,11.440992965382652,0.0591130743895444
24.59616,11.445654480755152,0.0588948820854078
24.59856,11.44589248575424,0.058698962315376
24.600944,11.450554001126738,0.0584814336722646
24.603328,11.450559688700348,0.0582688953645677
24.605724,11.45578028258029,0.058037356488268
24.608112,11.45676435754192,0.0577992036902568
24.610492,11.460821468436604,0.0575519646897394
24.612892,11.467299988958285,0.0572884150298111
24.615276,11.474058048733689,0.0570174429356561
24.61766,11.482678439628646,0.0567449372267766
24.620056,11.4942320968298,0.0564669167239599
24.622444,11.510301812202984,0.0561896285518868
24.624824,11.524788735710334,0.0559063832731266
24.627224,11.544350795897156,0.0556090855349263
24.629612,11.55976888496428,0.0553258110802182
24.632008,11.578120240337604,0.0550379792291762
24.634408,11.59717044384523,0.0547331738903574
24.636796,11.61370668992724,0.0544249733613399
24.63918,11.627309669703054,0.0541222411012873
24.641576,11.637467526493474,0.0538142421675949
24.643964,11.6446921169777,0.0535109654212536
24.646344,11.654198347462067,0.0531959264376263
24.648744,11.65662734052054,0.0528980218248286
24.651132,11.6558435280191,0.0526112491366854
24.653512,11.649844809211327,0.0523403514909527
24.655912,11.64528911264253,0.0520792081384242
24.6583,11.636729214580896,0.0518267827212356
