Time,Force,Position
7.358959999999996,0.1339636029984803,0.0
7.363087999999998,0.13923617934861637,0.0
7.367224,0.14540597257376428,0.0
7.371364,0.15348092444887065,0.0
7.375500000000002,0.15965071767401853,0.0
7.379635999999998,0.1633503100740007,0.0
7.383772,0.16558764342376384,0.0
7.387907999999996,0.16524405104842638,0.0
7.3920439999999985,0.16579767554810074,0.0
7.396127999999997,0.1693751253726152,0.0
7.400211999999996,0.18068393469689858,0.0
7.404296000000002,0.18605581827143666,0.0
7.408380000000001,0.19456225207074973,0.0
7.412460000000003,0.19713176012031744,0.0
7.416536000000001,0.2016064268198437,0.0
7.420616000000002,0.19902550109474307,0.0
7.424692,0.19913622599467798,0.0
7.428828000000003,0.1994684006944826,0.0
7.432963999999998,0.19890335851927535,0.0
7.437047999999997,0.19575739061896755,0.0
7.441127999999999,0.19238997291879006,0.0
7.445203999999997,0.18689594676878424,0.0
7.449288000000003,0.18106974591897382,0.0
7.453375999999999,0.17096060158544457,0.0
7.457464000000002,0.15995424037690356,0.0
7.461551999999997,0.15110421420225306,0.0
7.465635999999996,0.14167083694386595,0.0
7.469723999999999,0.13122951791053217,0.0
7.473812000000002,0.11989098200218656,0.0
7.477904000000002,0.10754450431889426,0.0
7.481991999999998,0.08948255068572636,0.0
7.486080000000001,0.0753416392524104,0.0
7.490172000000001,0.05918484426920104,0.0
7.494251999999996,0.04683836658590872,0.0
7.498336000000002,0.0354998306775631,0.0
7.502420000000001,0.029090278744016068,0.0
7.506500000000003,0.021783509935457218,0.0
7.510576,0.017641017935735567,0.0
7.514659999999999,0.016522351260854003,0.0
7.518732,0.018095335211007903,0.0
7.522820000000003,0.02481875293583015,0.0
7.526904000000002,0.03243938753566422,0.0
7.53098,0.03758982131033256,0.0
7.535063999999998,0.04377792344400984,0.0
7.539147999999997,0.049290258502545044,0.0
7.543227999999999,0.05724306780218373,0.0
7.547263999999998,0.06757366193558265,0.0
7.551355999999998,0.07779353116904672,0.0
7.555492000000001,0.08711618352749896,0.0
7.559587999999998,0.09554161901093938,0.0
7.563684000000002,0.10318056251930283,0.0
7.567779999999999,0.11283538957755966,0.0
7.571916000000002,0.12260094153575139,0.0
7.576048,0.13516886901891345,0.0
7.580131999999999,0.1514363889020577,0.0
7.584167999999998,0.16456935856042695,0.0
7.588259999999998,0.17770232821879622,0.0
7.592388,0.18744957126845857,0.0
7.596519999999998,0.19529165566816237,0.0
7.6006,0.2021257982929195,0.0
7.60474,0.20492817381788983,0.0
7.608876000000002,0.20604684049277136,0.0
7.613008000000001,0.20974643289275352,0.0
7.617148,0.21467541686755212,0.0
7.621284000000003,0.22308254344246314,0.0
7.625416000000001,0.22656068604257557,0.0
7.629491999999999,0.22611778644283606,0.0
7.633567999999997,0.2257856117430315,0.0
7.637703999999999,0.22915302944320906,0.0
7.641840000000002,0.23442560579334515,0.0
7.645972,0.24037394921862332,0.0
7.650107999999996,0.24430640909400808,0.0
7.654187999999998,0.24611226051956456,0.0
7.658324,0.24623440309503228,0.0
7.662464,0.23794941909558898,0.0
7.666600000000002,0.23783869419565412,0.0
7.670732000000001,0.2367200275207725,0.0
7.674860000000002,0.23750651949584947,0.0
7.678992000000001,0.2380715616710567,0.0
7.683135999999997,0.23896877854606854,0.0
7.687232000000002,0.23885805364613363,0.0
7.691327999999999,0.24154970427116915,0.0
7.695408,0.2433441380211928,0.0
7.699495999999996,0.2433441380211928,0.0
7.703583999999999,0.2367314451963054,0.0
7.707664000000001,0.23123741904629963,0.0
7.711756000000001,0.22405968404620502,0.0
7.715843999999997,0.21497679039615195,0.0
7.719932,0.20287007142125876,0.0
7.724015999999999,0.1891720595876823,0.0
7.728104000000002,0.1755847726540407,0.0
7.732236,0.16199748572039904,0.0
7.736319999999999,0.152128100095269,0.0
7.740451999999998,0.13943803003663918,0.0
7.744543999999998,0.13584916253659188,0.0
7.748623999999999,0.12282691777815749,0.0
7.752707999999998,0.11081261479466978,0.0
7.756796000000001,0.09790109493617025,0.0
7.760888000000001,0.0851002999776056,0.0
7.764975999999997,0.0720780552191712,0.0
7.769055999999999,0.06006375223568348,0.0
7.773147999999999,0.04704150747724908,0.0
7.777243999999996,0.035027204493761364,0.0
7.781343999999997,0.023910118385285478,0.0
7.785440000000001,0.017518875360267847,0.0
7.789532000000001,0.01594589141011394,0.0
7.793632000000002,0.022669309134936186,0.0
7.797724000000002,0.03129788550971695,0.0
7.801823999999996,0.04126657835924903,0.0
7.805908000000002,0.051818622292517706,0.0
7.809995999999998,0.0632678831007982,0.0
7.814087999999998,0.07550363588415565,0.0
7.818171999999997,0.0861480958088298,0.0
7.822304000000003,0.09939179036713396,0.0
7.8263880000000015,0.10543944101681411,0.0
7.830475999999997,0.11577003515021304,0.0
7.834567999999997,0.13058671365867108,0.0
7.838651999999996,0.14641133394207584,0.0
7.842736000000002,0.16033079557552204,0.0
7.846828000000002,0.1734637652338913,0.0
7.8509559999999965,0.18469157624230206,0.0
7.855040000000002,0.1986110378757483,0.0
7.859167999999997,0.2132062665843366,0.0
7.863264000000001,0.22892016196780646,0.0
7.867356000000001,0.2445050235428121,0.0
7.871456000000002,0.2532557424930606,0.0
7.875548000000002,0.25841759394326175,0.0
7.879675999999996,0.2644766622684748,0.0
7.883767999999996,0.2663932385939662,0.0
7.887808,0.26920703179446936,0.0
7.891891999999999,0.26921844947000223,0.0
7.896028000000001,0.26664894142043444,0.0
7.90016,0.263857983570997,0.0
7.904248000000003,0.25994835904667796,0.0
7.9083320000000015,0.2616434855722996,0.0
7.912460000000003,0.2653544956478146,0.0
7.916592000000001,0.2636822044732587,0.0
7.920724,0.2618991883987679,0.0
7.924860000000002,0.26179988117436587,0.0
7.929003999999999,0.2631628330001829,0.0
7.933143999999999,0.26844682702585176,0.0
7.937235999999999,0.27114989532642014,0.0
7.941324000000002,0.270374821026876,0.0
7.945411999999997,0.270275513802474,0.0
7.949551999999997,0.2665873390780247,0.0
7.953691999999997,0.2657015398785457,0.0
7.957827999999999,0.25999748160420305,0.0
7.961967999999999,0.25149104780489,0.0
7.966115999999999,0.24500049755547032,0.0
7.970247999999998,0.2358182966810152,0.0
7.974384000000001,0.23123290508155409,0.0
7.978459999999998,0.22732328055723497,0.0
7.982543999999997,0.22262716405783897,0.0
7.986623999999999,0.21837394715818245,0.0
7.990712000000002,0.2114290796334905,0.0
7.994852000000002,0.1974286196841716,0.0
7.998931999999996,0.18428423235026953,0.0
8.003064000000002,0.17024262814135555,0.0
8.007199999999997,0.15642247373231133,0.0
8.011336,0.14379638328434233,0.0
8.015472000000003,0.13209034506245088,0.0
8.019559999999998,0.12287734301679085,0.0
8.023699999999998,0.12524027079741534,0.0
8.027783999999997,0.1312263191046857,0.0
8.031868000000003,0.15059414866379708,0.0
8.035964,0.18312230967487972,0.009691452340241179
8.040047999999999,0.2374507961882473,0.01833387036733001
8.044131999999998,0.3074326503298176,0.02707976160058125
8.048212,0.40047847457508784,0.035479810597044636
8.052295999999998,0.5209864637502478,0.04375463992000822
8.056376,0.6657227604061209,0.052074782073002375
8.060456000000002,0.8488328024185589,0.060228771334519315
8.064535999999997,1.0713473669135745,0.06835738524528617
8.068672,1.335870214967334,0.07650269271833703
8.072755999999998,1.6473417482301689,0.08460406684272646
8.076836,2.0185330350765813,0.09254067667247332
8.080967999999999,2.4440026112916935,0.10037348953062057
8.085051999999997,2.920784814515473,0.10813326020307347
8.089128000000002,3.4503304861226054,0.11580015224588575
8.093212000000001,4.025042901451464,0.12342521371490567
8.097291999999996,4.645982564212124,0.13098712031397605
8.101368,5.311576490454434,0.13851271331089832
8.105448000000003,6.015987061653048,0.1459958429004732
8.109527999999997,6.763578219607557,0.15343242927640505
8.113611999999996,7.545931420067518,0.1608406021987547
8.117747999999999,8.357319769407527,0.1585438361539375
8.121823999999997,9.187973189226849,0.15729956933114939
8.12596,10.04738321974868,0.1558938372061037
8.130040000000001,10.920274338746756,0.15479523952671706
8.134175999999997,11.796177865394137,0.15379697795026648
8.138311999999999,12.672700070738998,0.1527073957708369
8.142339999999997,13.530854422479557,0.15175872956626812
8.146423999999996,14.3671285249891,0.1507981958907117
8.150455999999998,15.175196189440411,0.149764037101096
8.154592000000001,15.94360362858268,0.14873758786054947
8.158727999999996,16.661694964815695,0.14784616382823493
8.162863999999999,17.326102780439275,0.14704673695070763
8.166995999999997,17.940316635729076,0.14631179119493895
8.171140000000001,18.506253107010583,0.14565059606409983
8.175275999999997,19.02751247945937,0.14502684284877002
8.179408000000002,19.50398402817551,0.14444965822515415
8.18354,19.937340044333563,0.14388217156379823
8.187620000000003,20.322762268858654,0.14334929930152468
8.191760000000002,20.656994008950544,0.1428570268043075
8.195895999999998,20.945086391159506,0.14237973543016544
8.199979999999996,21.187383007860877,0.14191831216824646
8.204115999999999,21.394318286854983,0.14142876409256666
8.208255999999999,21.558515878692937,0.140986981568394
8.212392000000001,21.690532353750537,0.14055893502343486
8.216524,21.793635822503557,0.14014556701603195
8.220647999999997,21.867284078127867,0.13977300988418
8.224780000000003,21.922476590598997,0.13940157915294285
8.228907999999997,21.959346920167956,0.1390575055671413
8.233047999999997,21.978593669260952,0.13877006529252722
8.237184,21.992113524728538,0.138498965823949
8.241323999999999,22.003838946446102,0.13823648262277927
8.245463999999998,22.018145293888765,0.1379657908356303
8.249600000000001,22.035696916456143,0.13767334269690987
8.253743999999998,22.048418862273117,0.13739211906677457
8.25788,22.06314527396445,0.13708522615158214
8.262023999999997,22.076741601305375,0.13677309736594215
8.266163999999996,22.087989870396605,0.1364806500354451
8.270299999999999,22.10529720781304,0.13616863136853272
8.274436000000001,22.129461523205308,0.13584999295527672
8.278515999999996,22.160925716173132,0.1355166757672949
8.282656000000003,22.203389379116505,0.13515207978134305
8.286732,22.24945332723545,0.13479016310311637
8.290819999999997,22.303260052529698,0.13440586185353287
8.294947999999998,22.35651315332428,0.1340346837127172
8.299084,22.416501089519212,0.1336470042227953
8.303227999999997,22.48188374463974,0.13325399772233096
8.307364,22.551210277311192,0.13287149988111008
8.311495999999998,22.62884462933315,0.13247066245249745
8.315632,22.71579474248057,0.13204527593389234
8.319767999999996,22.803985664878333,0.13162638561343473
8.323908000000003,22.89554400497628,0.13120204071519068
8.328055999999997,22.993149995723904,0.13075002830528268
8.332188000000002,23.089858769596514,0.13030503071130306
8.336323999999998,23.191275077644057,0.12984186723358138
8.340451999999999,23.29100767684151,0.12938657752633248
8.344583999999998,23.388491525013663,0.12893469289823217
8.348708000000002,23.488090563960114,0.12845877251695054
8.352843999999997,23.582970651056105,0.1279919699830073
8.356940000000002,23.675922744151066,0.12750855959867036
8.361080000000001,23.763701568120304,0.12702898181868208
8.365215999999997,23.848544456313558,0.12653983125967613
8.369352,23.927538308305948,0.12605197270129068
8.373488000000002,23.999564457422576,0.12557332932929852
8.377631999999998,24.06843322096336,0.12508583645779892
8.381771999999998,24.132682339878087,0.12459102085835182
8.385916000000002,24.19914595679151,0.1240583789330268
8.390008000000002,24.264800246378794,0.12350247882684154
8.394148000000001,24.327518600190103,0.12293618888792321
8.39828,24.38696884352564,0.12236473794610561
8.402411999999998,24.446506976410046,0.12176701916851433
8.406551999999998,24.502211956643464,0.121160798367517
8.41068,24.545012308251387,0.12058767882846111
8.414819999999999,24.585331041358607,0.12000717092106487
8.418959999999998,24.622270939090114,0.11942208993329065
8.423096000000001,24.657404985396067,0.11883053671193503
8.427231999999997,24.69241688912655,0.11822878429858318
8.431311999999998,24.72450427475659,0.11762749574251644
8.435392,24.75669096761104,0.1170121263548113
8.439528000000003,24.78943128496517,0.11638906277872552
8.443663999999998,24.822503777019097,0.11576155397069597
8.447739999999996,24.849074301148068,0.11515659712974236
8.451875999999999,24.8795658674769,0.11453733047795059
8.456015999999998,24.911176100480606,0.11391291143252885
8.460160000000002,24.945699433909233,0.11327856187445244
8.464188,24.97776398418821,0.1126617063676207
8.468220000000002,25.004567375792593,0.11207262859045176
8.472352,25.02644178342217,0.11150408367914623
8.476492,25.043952249252154,0.11095946582204151
8.480640000000001,25.062359931957154,0.11041423842392833
8.484775999999997,25.078763148787793,0.10989172510112453
8.488908000000002,25.094280566418952,0.10938549969118241
8.493028000000002,25.116532819450466,0.10886914900023219
8.497160000000001,25.13778854838257,0.1083705528660376
8.501252000000001,25.15726126124018,0.10788980644988852
8.505344000000001,25.176966841573194,0.10741903451071036
8.509467999999998,25.19589734760666,0.10696207977914825
8.513607999999998,25.213155562465577,0.10652094834703679
8.517707999999999,25.230314470100087,0.10609542979345929
8.521803999999996,25.241880044360187,0.10569972788384366
8.5259,25.24930312662057,0.10532193427326507
8.53004,25.261101568356075,0.10493572488830809
8.534171999999998,25.266963084341835,0.10457176204984452
8.538263999999998,25.270697991877768,0.1042178305556809
8.542352000000001,25.270622582113788,0.10387604382871685
8.546492,25.273681722574576,0.10352097790711522
8.550627999999996,25.275843646160357,0.10316795518574239
8.554763999999999,25.281705162146118,0.10280529423040918
8.558860000000003,25.2891282444065,0.10242957257460396
8.562944000000002,25.291843792491957,0.10206777257505742
8.567031999999998,25.290516155802088,0.10170795636756709
8.571123999999998,25.28615327611185,0.10134639046956963
8.575212,25.27763648674636,0.1009889827965984
8.579304,25.27101343835529,0.10061307296253232
8.583452000000001,25.266959898013784,0.10022045229856665
8.587539999999997,25.260879056446857,0.0998222571734731
8.591636000000001,25.255794738979343,0.0994074827615717
8.595728000000001,25.253058479761528,0.09897988361507973
8.599820000000001,25.251208019743192,0.09853796700630782
8.603907999999997,25.254729443299397,0.09807229318641769
8.607996,25.262614808655194,0.09758654998892105
8.612088,25.268362147885625,0.09709751466724682
8.616176000000003,25.27814125421585,0.09659409376655581
8.620260000000002,25.28623665169598,0.09609193115432195
8.624344,25.292537615426085,0.09559248192322503
8.628436,25.296257653431095,0.09509696077608212
8.632579999999997,25.301428532810792,0.09459076647306286
8.636668,25.30636654471508,0.09407629676846702
8.640751999999999,25.310296614844425,0.09356554763224438
8.644896000000003,25.316574743223462,0.09304242798166924
8.648983999999999,25.32890052225218,0.0924988330905856
8.653080000000003,25.34402867680587,0.091948635690466
8.657179999999997,25.36218065668441,0.09138872317713818
8.661268,25.380443361462873,0.0908283097125619
8.665356000000003,25.39993545781615,0.09026247431474799
8.6695,25.423237871469354,0.08968789051686703
8.673592,25.447105327297763,0.08911835407328414
8.677687999999996,25.472202174700985,0.08854356994924188
8.681776,25.49819623897922,0.08796900494757931
8.685912000000002,25.52441175305733,0.08739277605238208
8.689999999999998,25.551413759110513,0.08681856092609104
8.694088,25.57931298203871,0.0862438042591194
8.698231999999997,25.607544379666706,0.08566520818595103
8.702371999999997,25.64114766086924,0.08506674706363146
8.706508,25.683490243346498,0.08444729746811856
8.710636000000001,25.72661931779882,0.08382931621703196
8.714776,25.769748392251152,0.08321276014063832
8.718911999999996,25.809742916478708,0.08260813023997209
8.723056,25.850634657581274,0.0820031674793473
8.727196,25.891415673783907,0.08140125189754073
8.731327999999998,25.931864515286737,0.08080685136148459
8.735464,25.972202631889623,0.08021535876052796
8.739595999999999,26.01153280671757,0.07962824054086444
8.743724,26.047506981520865,0.07905573599075302
8.747864,26.07922793942451,0.078499120052461
8.752000000000002,26.110616722628347,0.07794952920435615
8.756135999999998,26.14121901385711,0.0774004615596304
8.760264,26.170702638410994,0.07685752559412143
8.764387999999997,26.19424933721513,0.07632972699358302
8.768515999999998,26.214440035994617,0.07581610026143716
8.772644,26.23160690944927,0.07531137142374604
8.776780000000002,26.249117375279262,0.07481488372420803
8.780920000000002,26.264169057959613,0.07433106150384941
8.785060000000001,26.27811349164062,0.07386536811940644
8.789195999999997,26.287693983522036,0.07341661001599226
8.793335999999996,26.297950242478596,0.07297083902893307
8.79748,26.30832864401062,0.0725363919405914
8.80162,26.321963738342887,0.07210383353615947
8.805763999999996,26.337171816625307,0.0716736439129166
8.809903999999996,26.352723487283065,0.07125150798751242
8.814036000000002,26.366824316566134,0.07083935611278157
8.818168,26.384292563549387,0.07042830970961568
8.822308,26.402890894883047,0.07002629471751372
8.826444000000002,26.42687252746678,0.0696203159042
8.830579999999998,26.45781044525074,0.06921258843334537
8.834719999999997,26.48819473853503,0.06881422420095225
8.838847999999999,26.521724999719623,0.06842073778692473
8.842984000000001,26.554480186604668,0.06803955242016203
8.847116,26.59542105026476,0.06765120812101987
8.851252000000002,26.640061506324834,0.067259524593328
8.855392000000002,26.689188046759966,0.06686575286173073
8.859532000000002,26.741116962720067,0.06646997947679817
8.863667999999997,26.79865062973011,0.06606867071116185
8.867792000000001,26.85730296341503,0.06566519163581563
8.871924,26.916963238874903,0.06526093404831158
8.876052000000001,26.97830722318486,0.06485866628746274
8.880187999999997,27.04210999064445,0.06444735536362702
8.884287999999998,27.107928641653935,0.06403374712756434
8.888384000000002,27.17374729266342,0.06362187348617462
8.892479999999999,27.240008843272644,0.06320512286128202
8.896624000000003,27.304586685031783,0.06278882221388823
8.900716000000003,27.36658360106582,0.062374393293674585
8.90486,27.427450432749442,0.06195292435260567
8.908999999999999,27.483155412982864,0.061532574138529514
8.913139999999999,27.53302277469094,0.061110972143891676
8.917291999999996,27.57873622672377,0.060687582789280575
8.92138,27.61917710240646,0.06026636561727861
8.925472,27.66117954436377,0.05983652568480081
8.929567999999996,27.700601060595975,0.05940821863591172
8.933659999999996,27.738560317777964,0.05897751888323418
8.937756,27.775057315909734,0.058544675893072946
8.941848,27.805273795916417,0.05811523730551847
8.945988,27.829996249773096,0.05769064046791694
8.950083999999997,27.854042936554638,0.05726461501249071
8.954216000000002,27.877524581160973,0.05683537603875994
8.958368,27.897860257866995,0.05640215488209769
8.962499999999999,27.913377675498154,0.055975610873383805
8.966636000000001,27.927322109179165,0.05554792707173682
8.970776,27.937677675360124,0.055121662419658164
8.974911999999996,27.94411219934123,0.05470096429463208
8.978996000000002,27.9478550726973,0.05428052229111947
8.983080000000001,27.946890411878442,0.05386403398320053
8.987215999999997,27.941783259059864,0.0534555400899936
8.991295999999998,27.931636397366553,0.053054453846953634
8.995435999999998,27.914655393048484,0.05266109663290236
8.999575999999998,27.895769230080454,0.05226850960913217
9.003712,27.87195408313763,0.05188155424167224
9.007848000000005,27.835810767420043,0.05150445704815652
9.011983999999998,27.78363969052771,0.05113862884864024
9.016123999999998,27.718697545260873,0.0507879996000189
9.020255999999996,27.635268855669654,0.0504573917536575
9.024392,27.54321158970366,0.050133037267494296
9.028528,27.43770748828802,0.04982000775888479
9.03266,27.311025191922965,0.04952659646742498
9.036788,27.16754006008362,0.04925390585514471
9.040908000000002,27.005346934120034,0.04900314724833279
