Time,Force,Position
5.027256,0.049920806985417135,0.0
5.031283999999999,0.04272361273019994,0.0
5.035364,0.039035438005750635,0.0
5.039444,0.03948975528102297,0.0
5.043519999999999,0.04465160673122416,0.0
5.047599999999999,0.05104284975624179,0.0
5.051684,0.05970230306167803,0.0
5.055776,0.06395551996133454,0.0
5.059872,0.06820873686099106,0.0
5.063967999999999,0.07989201549126737,0.0
5.068059999999999,0.09086865011574614,0.0
5.072148,0.1043463624960461,0.0
5.076243999999999,0.11733888067041827,0.0
5.080332,0.12864768999470164,0.0
5.084415999999999,0.1379406157690916,0.0
5.088495999999999,0.14353394914349946,0.0
5.09258,0.14991377449298426,0.0
5.096663999999999,0.15360194921743356,0.0
5.100747999999999,0.1591952825918414,0.0
5.104832,0.17199722789699926,0.0
5.108912,0.18479917320215714,0.0
5.112995999999999,0.19950627715727354,0.0
5.11708,0.21440395398160422,0.0
5.121164,0.22347542995612446,0.0
5.125247999999999,0.22974453040567436,0.0
5.129332,0.23467351438047293,0.0
5.133364,0.23758661480537815,0.0
5.137447999999999,0.243080640955384,0.0
5.14152,0.24566156668048458,0.0
5.1456,0.2405111329058163,0.0
5.149623999999999,0.23277977340604733,0.0
5.153699999999999,0.22493768900634353,0.0
5.157772,0.216087662831693,0.0
5.161852,0.20903207040706617,0.0
5.165884,0.20488957840734448,0.0
5.169908,0.20343873703265827,0.0
5.173924,0.19850975305785967,0.0
5.177956,0.1980668534581202,0.0
5.181975999999999,0.1967267369833689,0.0
5.18594,0.19157630320870056,0.0
5.189964,0.18631514453409737,0.0
5.194051999999999,0.1782516103345238,0.0
5.198084,0.16469404998494444,0.0
5.202107999999999,0.15416031496020516,0.0
5.206135999999999,0.14057187767997034,0.0
5.210163999999999,0.12958382537995874,0.0
5.214188,0.12128742370498258,0.0
5.218211999999999,0.11612557225478136,0.0
5.222244,0.11208238747946173,0.0
5.2262640000000005,0.11005508625403547,0.0
5.230295999999999,0.1127353192035381,0.0
5.234316,0.11171595975305856,0.0
5.238348,0.11573630917731248,0.0
5.242384,0.11763005015173814,0.0
5.246416,0.11582419872618162,0.0
5.250439999999999,0.11132669667558966,0.0
5.254472,0.11030733722511013,0.0
5.258516,0.10950942757450034,0.0
5.26254,0.10971945969883722,0.0
5.266624,0.10981876692323925,0.0
5.270652,0.1111474657224577,0.0
5.27468,0.11034955607184789,0.0
5.278708,0.11504567257124389,0.0
5.282676,0.12164694772059843,0.0
5.286712,0.13399457575048396,0.0
5.290732,0.14363109390021142,0.0
5.294756,0.1505759614249034,0.0
5.298831999999999,0.1528132947746665,0.0
5.302859999999999,0.1539319614495481,0.0
5.306892,0.15774227874946514,0.0
5.310924,0.1584180458246072,0.0
5.314952,0.1620069133246545,0.0
5.31898,0.15472987110015793,0.0
5.323008,0.1487929453504126,0.0
5.32704,0.1445397284507561,0.0
5.331068,0.13970201012076977,0.0
5.335148,0.13306985804075974,0.0
5.339176,0.12442182241085642,0.0
5.3432,0.11591538861154335,0.0
5.347223999999999,0.11032205523713552,0.0
5.35126,0.10641243071281647,0.0
5.355283999999999,0.10843973193824273,0.0
5.359308,0.10788610743856837,0.0
5.363336,0.10509514958913087,0.0
5.367355999999999,0.09860459933971122,0.0
5.371432,0.09356489046497772,0.0
5.375468,0.08830373179037451,0.0
5.379552,0.09033103301580077,0.0
5.383632,0.09146111736621518,0.0
5.38766,0.09079676796660595,0.0
5.391688,0.09136181014181316,0.0
5.395776,0.089910968767127,0.0
5.399856,0.09719942866715645,0.0
5.403888,0.10505293074239311,0.0
5.407919999999999,0.11581953324253498,0.0
5.411951999999999,0.12997301269797704,0.0
5.415979999999999,0.14121339172851385,0.0
5.419995999999999,0.15514542138408616,0.0
5.424019999999999,0.1660227487841629,0.0
5.428051999999999,0.17297903398438771,0.0
5.432076,0.17702221875970733,0.0
5.436152,0.1790495199851336,0.0
5.440223999999999,0.18074464651075522,0.0
5.444248,0.18355843971125843,0.0
5.448328,0.18626150801182678,0.0
5.452351999999999,0.19042683536261412,0.0
5.456432,0.19772671293817642,0.0
5.460464,0.19751668081383955,0.0
5.4644960000000005,0.20391934151439006,0.0
5.468524,0.21211643596496418,0.0
5.472555999999999,0.22278373124070405,0.0
5.476644,0.23535618516640242,0.0
5.480672,0.2459127555422074,0.0
5.484696,0.2571450929931544,0.0
5.488724,0.26670513926954553,0.0
5.492747999999999,0.2750472116466531,0.0
5.496767999999999,0.2936022620242282,0.0
5.500795999999999,0.3108286136025848,0.0
5.504823999999999,0.33457976845695964,0.0
5.508848,0.36676088523731126,0.005933795928112697
5.512872,0.4021108052690363,0.012592624059162158
5.516943999999999,0.4402973538523303,0.01989895211775665
5.520975999999999,0.4904034246372463,0.02713348165575327
5.525003999999999,0.5480650758241928,0.03463932909121379
5.529088,0.617879116688164,0.04220556602992242
5.533116,0.697276039179592,0.049941018367922016
5.537148,0.7893025039743825,0.057826105084833615
5.541179999999999,0.9064088224227664,0.06556943327397603
5.545207999999999,1.0393134864258866,0.07348258540095216
5.549239999999999,1.19924883343469,0.08141827831876548
5.553315999999999,1.3883528895745374,0.08935061807288422
5.55734,1.6113446066958914,0.0972530039017455
5.56142,1.8764096615737924,0.10499342902034707
5.565496,2.179405562208519,0.11269975546175583
5.569576,2.519877991324799,0.1203852788352997
5.573656,2.9011829489472767,0.1280054967884434
5.577679999999999,3.314470408901302,0.13561744137553616
5.581752,3.7666852387115672,0.14320726378994644
5.585784,4.257705295802603,0.15074056022024018
5.589803999999999,4.781925829124472,0.15232568507058136
5.59388,5.345837388926591,0.1531332334181092
5.5979600000000005,5.948764208133818,0.15324763822870496
5.601984,6.581169075820829,0.15340584702031423
5.606016,7.244945732962048,0.15325971165335533
5.609983999999999,7.934710878307408,0.15304439947193346
5.614011999999999,8.64809361825614,0.15265239540727696
5.618039999999999,9.378901324232036,0.15210348635040924
5.622119999999999,10.117020325459025,0.15168315452809147
5.626199999999999,10.86005689298528,0.15107559285672797
5.630239999999999,11.59360988610848,0.1504214290508836
5.634216,12.30992510997779,0.14976209049480602
5.638244,13.0056237292175,0.14911529927324976
5.642268,13.672176474677231,0.1486118885699167
5.646284,14.308220394531169,0.148133731441706
5.650364,14.916447139404347,0.1476560280321594
5.654439999999999,15.492370624921705,0.14722729925178393
5.658519999999999,16.037552417357865,0.1467899604203672
5.662547999999999,16.548846548812524,0.14635815801328692
5.666568,17.02502362771085,0.14595964382114535
5.670648,17.46753449542755,0.1455534019309418
5.674731999999999,17.869766459137722,0.14519213378784893
5.678751999999999,18.23474334416621,0.14484879623897018
5.682827999999999,18.559441325188168,0.14453345322967576
5.686848,18.84240956082892,0.14426203470240928
5.690883999999999,19.09249807726311,0.1439700627944212
5.694912,19.309939741966147,0.1436672057682777
5.698943999999999,19.494745972613554,0.14336817817283473
5.70298,19.65051705438092,0.14307225219795552
5.707068,19.78152903951897,0.14277862902191632
5.711155999999999,19.890618556579266,0.14251885643994813
5.715244,19.984520440962157,0.14226667752689467
5.719332,20.063689009942927,0.14202844385718447
5.723424,20.125665480371943,0.1418269101733569
5.727508,20.1781926294245,0.1416307515330711
5.731603999999999,20.21700582252541,0.14145629525827996
5.735631999999999,20.244575260499843,0.14129536130378337
5.739659999999999,20.261798160222806,0.14114337874455996
5.743691999999999,20.272385531769814,0.14099681209525142
5.747715999999999,20.27499725866612,0.1408699735475598
5.75174,20.270763425262135,0.14076939830472504
5.755768,20.26664031675808,0.14066648677110194
5.759848,20.259604107829126,0.14058143209291396
5.763871999999999,20.2572754330751,0.14047078594207352
5.767944,20.261670176045897,0.1403213725796674
5.772024,20.261025210141963,0.14020534259360062
5.776107999999999,20.261056011313162,0.14009055148063648
5.780128,20.266691563534312,0.13994672641258427
5.784155999999999,20.272105665955586,0.13980799883214987
5.788183999999999,20.28055501137724,0.13966608471912906
5.792211999999999,20.295284874923972,0.13949622269618853
5.796239999999999,20.317192473470797,0.1392952157367291
5.800272,20.343364706592812,0.13907986714963816
5.804307999999999,20.377611891589932,0.1388287216010034
5.808335999999999,20.41432927741222,0.13857104251323227
5.812363999999999,20.454757673310024,0.1383106538467045
5.816404,20.498786354383405,0.13805036661523593
5.820428,20.547201812607444,0.13778914358434016
5.824508,20.600336222681946,0.13752040856542877
5.828583999999999,20.655940833581614,0.1372453613055038
5.832659999999999,20.71557721158107,0.13694552569274435
5.836739999999999,20.772178346580155,0.13664973564708033
5.840816,20.825068471503723,0.13635683559768186
5.844892,20.874701903627045,0.13607394538694192
5.848972,20.920857193150255,0.1358057617183723
5.853043999999999,20.972162916448134,0.13550483618896508
5.857123999999999,21.02077698912098,0.13521630529213785
5.861203999999999,21.06658868626885,0.13494364060763905
5.865283999999999,21.117107917591646,0.13464878894188473
5.869368,21.166275614764164,0.13435348264002525
5.87344,21.21431322758627,0.13405301449174228
5.877516,21.257742613457847,0.13376022978116775
5.881596,21.30116058165389,0.1334540870418562
5.885667999999999,21.346361565924425,0.1331279173183058
5.889752,21.397045158669435,0.132765510905619
5.893832,21.451416926138894,0.13237314245782453
5.897907999999999,21.510595535007685,0.13194371194894702
5.90198,21.56976272620094,0.1315010365887035
5.906051999999999,21.626226849093623,0.13105597264066626
5.910136,21.682679554310777,0.1305975004949235
5.91422,21.73957515912767,0.13013248011770154
5.918296,21.79938386436947,0.12965382592803168
5.922376,21.865362362836418,0.1291557273231038
5.926451999999999,21.932127353278446,0.12865832741645786
5.930536,22.00248121122052,0.1281502118812203
5.934616,22.072613619362716,0.1276501054666133
5.938704,22.145769852829755,0.12713498013293764
5.942796,22.21791814452185,0.12662702724135314
5.946892,22.290066436213944,0.12612296132706338
5.950975999999999,22.3646849287312,0.1256166928162639
5.955067999999999,22.44054423049881,0.12511796406933412
5.959159999999999,22.52011454234194,0.12462226935345035
5.963248,22.601601430510552,0.12413657889456993
5.967336,22.678613651979646,0.12368368526377393
5.971423999999999,22.74834883122424,0.1232749308718894
5.975508,22.819435544619118,0.12287241681253583
5.979592,22.887498432689156,0.12248890190958814
5.983672,22.95702357980941,0.1221082717550573
5.987755999999999,23.028686753055027,0.12173167740549569
5.991783999999999,23.10148001065106,0.12136406859234074
5.995868,23.17102799312238,0.12101746929835966
5.999948,23.243378351118672,0.12066272916141865
6.004035999999999,23.30955891588982,0.12032741571428723
6.008063999999999,23.371253396285898,0.12000672300377213
6.012039999999999,23.426323766181568,0.11969938749848962
6.016067999999999,23.478469617976792,0.11939225529136106
6.020147999999999,23.528477443646654,0.11908442139362188
6.024111999999999,23.579371068516007,0.11876099161638749
6.028076,23.62274336600992,0.11845281598363494
6.03204,23.660831669478164,0.11814625153405253
6.036076,23.69385742872061,0.11783663174087645
6.040096,23.71812105133727,0.11753663710001136
6.044063999999999,23.73082016180318,0.11725572478472253
6.0480920000000005,23.741480553368135,0.11695657433717788
6.052064,23.75268315175723,0.11663332982857992
6.056092,23.75691804727056,0.11631401800187764
6.06012,23.754528832283476,0.11600546231612642
6.064143999999999,23.747077073070592,0.11569282419487244
6.068111999999999,23.73276833588189,0.11538089977320141
6.072144,23.71249983759237,0.11506681705105438
6.076108,23.69367076300201,0.11472595648613482
6.080136,23.665747377086063,0.11439864024085926
6.084156,23.637923298394508,0.11405472723902056
6.088187999999999,23.613443802052075,0.11367644955696021
6.092215999999999,23.59243103063422,0.11327585101945782
6.09624,23.565469915791088,0.11288571279144413
6.100275999999999,23.5372679916976,0.11248992820294167
6.104303999999999,23.50692804147876,0.11209102254423546
6.108336,23.476465948684442,0.11167896294994556
6.112368,23.44554953861486,0.11126032788647591
6.116327999999999,23.41564107032022,0.11083638896668759
6.1203520000000005,23.385732602025584,0.11041098976861131
6.124383999999999,23.361539609680822,0.10996344617751505
6.128404,23.336903717736316,0.10952323899659194
6.132427999999999,23.308346783591965,0.10909788873119936
6.136455999999999,23.281584283197635,0.1086671105868813
6.140535999999999,23.25863210010322,0.10822185617930728
6.14456,23.23512629250914,0.10778600913150312
6.148596,23.21566366969037,0.1073459527626012
6.152683999999999,23.20203866539695,0.10689746889732737
6.156656,23.18516838597882,0.10646593003842413
6.160624,23.177159550410867,0.10601342884286924
6.164655999999999,23.174312566293118,0.10555184304934062
6.168683999999999,23.174390100275804,0.10509446207655543
6.172768,23.17481122663383,0.10464577539857942
6.176852,23.185888230592063,0.10417303577617837
6.18094,23.20022192735054,0.10369855027517301
6.185027999999999,23.217590867109386,0.1032265020307886
6.189112,23.24337835111868,0.10274429378996255
6.193196,23.27007446967852,0.10227418834717629
6.197272,23.30204316458849,0.1017952132866157
6.201352,23.34230826117344,0.10129476147956538
6.205432,23.388853875883473,0.10078234892187138
6.209508,23.440107024768437,0.10025715529570471
6.213531999999999,23.498980808253233,0.09970929356350701
6.217611999999999,23.557633141938155,0.09916683299086979
6.221696,23.616285475623087,0.09862580039208338
6.22578,23.67908030130773,0.09806845501329783
6.229863999999999,23.742428751492053,0.0975032098944774
6.233952,23.80386062535087,0.09693230322116857
6.2380320000000005,23.8722373667344,0.09633892128751663
6.242111999999999,23.93545225666772,0.09575564431478162
6.2462,23.994181062225984,0.09518382360452166
6.250276,24.049542450084065,0.09461778252998765
6.254356,24.102544362016918,0.09405280347029367
6.258431999999999,24.151613814074388,0.09349019458837456
6.262511999999999,24.19541068978172,0.09293720865542265
6.266587999999999,24.234156438938786,0.09238979125044824
6.270664,24.267175294470437,0.09184683704109656
6.274744,24.29917479055162,0.09129411834026152
6.278824,24.32690965205761,0.09074793830645206
6.282895999999999,24.35217431273843,0.09020533288618629
6.286975999999999,24.374182280619014,0.08966609866210098
6.291064,24.395735931224323,0.08912279469288852
6.295147999999999,24.414708656104533,0.08858413788524196
6.299232,24.433902830784607,0.0880423375481048
6.303308,24.45522361391451,0.08749309410937772
6.307383999999999,24.47407419621925,0.08694564700676904
6.311468,24.493146228323855,0.08639574103484662
6.315555999999999,24.512783302603673,0.08585095971792274
6.31964,24.528720784483507,0.08531574020374404
6.323724,24.546452700113363,0.08477843838573945
6.327752,24.56631122419305,0.08423359186176037
6.331835999999999,24.588517806522436,0.08367822773210655
6.335915999999999,24.613748214176667,0.08311451810139062
6.339995999999999,24.63774923025607,0.08255870117898881
6.344075999999999,24.666789955210213,0.08198810989680286
6.34816,24.700870389039085,0.08140306285967253
6.352243999999999,24.737863923292867,0.08081221226676609
6.356328,24.782699541946346,0.08020329008770744
6.360412,24.825851451749745,0.07959582519937451
6.364495999999999,24.86631171092811,0.07899348030071189
6.368587999999999,24.904080319481434,0.07839622650062218
6.372627999999999,24.9399437693848,0.0778047645163774
6.376655999999999,24.974910002413154,0.07721583077398253
6.380739999999999,25.011437801716127,0.07661667146604134
6.384815999999999,25.048408500618844,0.07601277968760663
6.388847999999999,25.088181575046523,0.07540566154079478
6.392871999999999,25.12716815749913,0.07479946817996375
6.396951999999999,25.16659763955148,0.07418798148304899
6.400971999999999,25.20311402117892,0.07358382154673994
6.404995999999999,25.240638344581306,0.07297881259091973
6.40902,25.27816266798369,0.07237548467420968
6.413039999999999,25.31333893313638,0.07178436465061429
6.417064,25.34728580671425,0.07120108820300274
6.421099999999999,25.382351346967006,0.07061474106886675
6.42512,25.418989871169916,0.07003272057010744
6.429152,25.454742596173347,0.06946634999591941
6.433235999999999,25.489155204702026,0.06890937295604885
6.437263999999999,25.519203871431117,0.06837023944264053
6.441343999999999,25.55172273898537,0.06783295893232909
6.445428,25.585703865589842,0.067300200705998
6.449503999999999,25.620028584569646,0.06677591733385883
6.453588,25.656934229274555,0.06625282918560702
6.457671999999999,25.69462636595454,0.06573200428305116
6.4617,25.73232992031006,0.06522564079182576
6.465728,25.769147675466105,0.06473450337166585
6.469811999999999,25.807206239872492,0.06425256627896853
6.473891999999999,25.84549767175429,0.0637811757320809
6.477979999999999,25.886259304461248,0.06331339731667249
6.482063999999999,25.930720529568188,0.06284271641320527
6.486148,25.969466278725253,0.06238096698888248
6.490231999999999,26.010006461632344,0.061919918348046485
6.494316,26.053349020064406,0.061457184843883975
6.4984,26.09601581142132,0.06099290866509825
6.502483999999999,26.139469094753313,0.06053139778963404
6.506572,26.178214843910375,0.060076974338221574
6.51066,26.21571978381709,0.05961648135506491
6.514744,26.253335448623744,0.05915560645757113
6.518827999999999,26.28725152103041,0.058698797411560075
6.522903999999999,26.32138904323695,0.05823996789362358
6.526983999999999,26.353056364618325,0.057779682800906305
6.531063999999999,26.380348326524572,0.05731943051666426
6.53514,26.401249045405805,0.05686376399749381
6.53922,26.420244605637077,0.056410970576875094
6.543296,26.434975531293162,0.05595686729217698
6.547376,26.44443388059911,0.05550303864309622
6.551451999999999,26.447500986880037,0.055053274731748265
6.555527999999999,26.44619273368584,0.05460302291548282
6.559612,26.436255904116866,0.054163092783979086
6.563699999999999,26.419706381723,0.05372923084697779
6.567784,26.40405407620415,0.053294030139747366
6.571807999999999,26.380781136085467,0.052866571190530856
6.575884,26.343164143642124,0.052453406182615056
6.579964,26.300396717424114,0.052049647496275935
6.584043999999999,26.24306378908158,0.05166260859794242
6.588123999999999,26.17609434258932,0.051284619506886106
6.592196,26.09836971127245,0.05091892683529291
6.596276,26.006190302730985,0.0505673566703015
6.600351999999999,25.901350550714955,0.05022914872840029
6.604428,25.783629005424487,0.04990786938784764
6.608504,25.656725259259566,0.04960109201564201
6.612527999999999,25.526465513069994,0.049301536942320166
6.616564,25.386912841106035,0.04901780724502424
6.620652,25.23055733366779,0.048755620238020894
6.624736,25.061995800030246,0.04851290928263469
6.628764,24.87954453134332,0.04828793931908265
6.632847999999999,24.68252776053187,0.048077457901288145
6.636927999999999,24.47162125467103,0.04788473404568978
6.640964,24.24603852178574,0.04770838011806383
6.644992,24.007352545826134,0.04755203990736771
6.649023999999999,23.750966517517224,0.04741758691772653
6.653108,23.476658987059146,0.047309415320987216
6.657192,23.196525255751265,0.047205297631566195
6.66122,22.89902364679388,0.04711863138304846
6.665303999999999,22.59479862011167,0.04703695841514635
6.669395999999999,22.282399334329956,0.04696965748948703
6.67342,21.96103929747366,0.04691477627981262
6.677496,21.632734393092665,0.04686910814249984
6.681512,21.301516388286775,0.04682491240563712
6.685587999999999,20.960772590231084,0.046788479689270905
6.689667999999999,20.60770062340064,0.04676231405963481
6.693752,20.238268720695633,0.0467550462949256
6.697771999999999,19.85953247454071,0.046752708270767045
6.701736,19.478436752460556,0.04674235367114271
6.705807999999999,19.08926607850529,0.04673060630632718
6.709887999999999,18.695609320174967,0.046717382293372564
6.713975999999999,18.29545059391969,0.04670715039494215
6.718,17.888789899739464,0.04670106052121755
6.722031999999999,17.47954827983414,0.04669142679427963
6.726127999999999,17.063239649828652,0.04667906098171855
6.730216,16.64726319452297,0.04665758092880804
6.734295999999999,16.230045929966938,0.046623556872372046
