Time,Force,Position
8.055579999999996,0.09358831453202954,0.0
8.059712000000001,0.09841799128242612,0.0
8.063796,0.10980088385495905,0.0
8.067936,0.11844087790527266,0.0
8.072016000000001,0.1327368709027108,0.0
8.0761,0.14893802255010746,0.0
8.080235999999996,0.1681629995223442,0.0
8.08438,0.18453435307242677,0.0
8.088515999999995,0.20034066444730209,0.0
8.092643999999996,0.21625770072211237,0.0
8.096775999999995,0.22825369479707064,0.0
8.100908,0.23722586354718891,0.0
8.105039999999999,0.24742742387212355,0.0
8.109128000000002,0.2577397090969931,0.0
8.113255999999996,0.2681627192217975,0.0
8.117395999999996,0.2771234702963829,0.0
8.12154,0.28104451249623474,0.0
8.125675999999995,0.288554422196134,0.0
8.129767999999995,0.2980802154459266,0.0
8.133903999999998,0.30211198254571336,0.0
8.138043999999997,0.3089461251704705,0.0
8.142135999999997,0.3197013099950795,0.0
8.146227999999997,0.32664617751977143,0.0
8.150375999999998,0.335496203694422,0.0
8.154471999999995,0.3366148703693035,0.0
8.158567999999999,0.3350418864191496,0.0
8.162600000000001,0.3292156855693392,0.0
8.166692000000001,0.32472960119428007,0.0
8.170784000000001,0.32002206701935126,0.0
8.174876000000001,0.3158795750196296,0.0
8.178828,0.3118478079198428,0.0
8.182923999999996,0.3106184163450264,0.0
8.187031999999999,0.3064759243453048,0.0
8.191127999999996,0.30233343234558313,0.0
8.195267999999995,0.2974044483707845,0.0
8.199319999999997,0.29214328969618125,0.0
8.203456,0.2888980145714715,0.0
8.207551999999996,0.27735633777178553,0.0
8.211643999999996,0.2657039360721647,0.0
8.215735999999996,0.257751126772526,0.0
8.219883999999997,0.24620944997284,0.0
8.224023999999996,0.22917374702314816,0.0
8.228168,0.21684557824838527,0.0
8.232311999999997,0.20350946769867567,0.0
8.236451999999996,0.1962210077986462,0.0
8.240604000000001,0.18960831497375885,0.0
8.244739999999997,0.18332779684867606,0.0
8.248876,0.17850953777381237,0.0
8.253012000000002,0.1717861200489901,0.0
8.257144,0.16618136899904942,0.0
8.261272000000002,0.1656163268238422,0.0
8.265359999999998,0.16706716819852838,0.0
8.269496,0.16762079269820274,0.0
8.273636,0.1673879252228001,0.0
8.277771999999995,0.16502844929756924,0.0
8.281907999999998,0.1636769151472851,0.0
8.286031999999995,0.16232538099700092,0.0
8.290159999999997,0.16938097342162778,0.0
8.294243999999996,0.17553934897124285,0.0
8.298383999999995,0.1816977245208579,0.0
8.302531999999996,0.18763465027060316,0.0
8.306667999999998,0.19917632707028915,0.0
8.310796,0.20421603594502258,0.0
8.314927999999998,0.2082478030448094,0.0
8.319016000000001,0.2082478030448094,0.0
8.323148,0.20746131106973242,0.0
8.327279999999998,0.2084692528446791,0.0
8.331416,0.20969864441949554,0.0
8.335515999999995,0.2128331946442705,0.0
8.339651999999997,0.2151812528939685,0.0
8.343743999999997,0.2122681524690633,0.0
8.34788,0.20464751786922925,0.0
8.35202,0.19601894149444848,0.0
8.356155999999995,0.18627169844478617,0.0
8.360296000000002,0.1786510638449521,0.0
8.364431999999997,0.16850898052276847,0.0
8.368579999999998,0.15836689720058483,0.0
8.372719999999997,0.149062553750662,0.0
8.376851999999996,0.1396474854008043,0.0
8.380984000000002,0.12843798330092288,0.0
8.385124000000001,0.11622053942609482,0.0
8.389208,0.1019872120013734,0.0
8.393339999999998,0.09324791072665775,0.0
8.397471999999997,0.08921614362687098,0.0
8.401608,0.08809747695198941,0.0
8.405743999999995,0.0877653022521848,0.0
8.409876,0.08463075202740984,0.0
8.414011999999996,0.08048826002768819,0.0
8.418147999999999,0.07903741865300203,0.0
8.422287999999998,0.08016750300341643,0.0
8.426435999999999,0.08252697892864728,0.0
8.430572000000002,0.08556222192902022,0.0
8.434699999999996,0.09139984045436347,0.0
8.438827999999997,0.09992910960474223,0.0
8.442955999999999,0.10845837875512097,0.0
8.447087999999997,0.11670672110287897,0.0
8.451219999999996,0.12585228032564877,0.0
8.455359999999995,0.12833389882634733,0.0
8.459499999999995,0.13002902535196895,0.0
8.463640000000002,0.13452652740256094,0.0
8.467780000000001,0.1439530134279515,0.0
8.47192,0.1546088910281585,0.0
8.47606,0.16246239310339516,0.0
8.480208000000001,0.16291671037866748,0.0
8.48434,0.16135514410404642,0.0
8.48848,0.15889636095441356,0.0
8.492611999999998,0.15867491115454382,0.0
8.496743999999996,0.1574455195797274,0.0
8.500876000000002,0.14982488497989335,0.0
8.505011999999997,0.1394499341823071,0.0
8.509148,0.1299722002597327,0.0
8.513283999999995,0.12161313301203983,0.0
8.517411999999997,0.11235684888933517,0.0
8.521539999999998,0.10231407279155355,0.0
8.525623999999997,0.09216057179383706,0.0
8.529763999999997,0.0839122294460791,0.0
8.533855999999997,0.0747666702233093,0.0
8.537939999999995,0.06864493632537959,0.0
8.542064,0.0634204193024617,0.0
8.546199999999995,0.05629074362958529,0.0
8.550287999999998,0.04624796753180368,0.0
8.554371999999997,0.035086524759140494,0.0
8.558511999999997,0.024933023761424,0.0
8.5626,0.018479115163689674,0.0
8.566735999999995,0.01303314834090204,0.0
8.570871999999998,0.008595123293061101,0.0
8.575003999999996,0.003998314018067114,0.0
8.579131999999998,0.0005201714179546924,0.0
8.58326,0.0006308963178895625,0.0
8.587383999999997,0.0015907787656180795,0.0
8.591515999999995,0.007147470488340582,0.0
8.595656000000002,0.013601379086074904,0.0
8.599799999999998,0.01994456278387436,0.0
8.603943999999995,0.027295688256620508,0.0
8.608035999999995,0.03565475550431335,0.0
8.612171999999997,0.0450217645269529,0.0
8.616263999999997,0.054388773549592435,0.0
8.620352,0.06196134882220832,0.0
8.624439999999996,0.06673154856985387,0.0
8.628579999999996,0.07340690696745794,0.0
8.632724,0.07716916494015678,0.0
8.636875999999997,0.08003420603784382,0.0
8.641012,0.08390718891047755,0.0
8.645147999999995,0.08878811355805798,0.0
8.649280000000001,0.09456625508065022,0.0
8.653415999999996,0.09832851305334907,0.0
8.657547999999995,0.10001222190343786,0.0
8.661691999999999,0.10248242272860358,0.0
8.665828000000001,0.10718995690353246,0.0
8.669963999999997,0.10830862357841403,0.0
8.6741,0.10483048097830162,0.0
8.678180000000001,0.1010201636783846,0.0
8.68232,0.10226097292873387,0.0
8.686404,0.10228380827979958,0.0
8.690484000000001,0.10658269588158749,0.0
8.694619999999997,0.11561195300937,0.0
8.698699999999999,0.13127673831310555,0.0
8.702783999999998,0.15582580281809016,0.0
8.706911999999999,0.1918400722494245,0.006273688763556546
8.710995999999998,0.2304695204324579,0.013243638283345386
8.715076,0.2821371574919949,0.020185070532240258
8.719156000000002,0.3446056500782725,0.02718511274095375
8.72324,0.4145189981666456,0.03445963325324883
8.727319999999995,0.4939045029825408,0.041974732302307444
8.731404000000001,0.5836593814009697,0.04965464085508114
8.735491999999997,0.6908506435220922,0.05731581914450586
8.739571999999999,0.8143596226710265,0.0650217682552745
8.743659999999995,0.9510517686229979,0.0728202488008669
8.747751999999995,1.1003734568783319,0.08069671925135762
8.751836,1.2669214967120226,0.08868508047963901
8.755923999999997,1.4513716551992122,0.09667188076743581
8.76002,1.651696631114474,0.1046676270088374
8.764155999999996,1.8617266312326604,0.11271756409535777
8.768244,2.0916517982031735,0.12064963013089998
8.772331999999995,2.331492021500947,0.128579216773216
8.776467999999998,2.5792199999005567,0.1365241231033354
8.780596,2.8330412996519776,0.14450089059453697
8.784679999999998,3.0921580111046003,0.1524781659304713
8.788816,3.3582424254329806,0.15408929912961358
8.792895999999995,3.632634659111871,0.15497485167486663
8.796975999999997,3.906927585566358,0.1559146186927567
8.801059999999996,4.182461321271195,0.15678969365282008
8.805139999999998,4.460232390325797,0.1573683664596841
8.809231999999998,4.73618619027931,0.15768247530430396
8.813312,5.010089853656329,0.1577729644019014
8.817404,5.27453277798136,0.15785633781564154
8.821491999999996,5.530522905029349,0.15786990229177034
8.825527999999995,5.776708700650012,0.15778466607646427
8.829615999999998,6.013533064443088,0.15758949473880152
8.833699999999997,6.24199252050799,0.15721148041419394
8.837844,6.4523284081195245,0.15684830434506947
8.841979999999996,6.6489160867528145,0.1564406819610846
8.846067999999999,6.831866281307796,0.1559605733712461
8.850155999999995,6.996250007809668,0.1555735894752286
8.854288,7.145656133758481,0.15517601011028728
8.858428,7.280084659154233,0.15476008514983353
8.862556000000001,7.3987490920218475,0.15432599569764874
8.866584,7.506589834011654,0.15384023451521833
8.870667999999998,7.596440567799094,0.15346196081459623
8.874708000000002,7.672333060483952,0.15309659415447366
8.878787999999997,7.73897484624116,0.1526592361390175
8.882871999999995,7.792334157970927,0.15222953144777512
8.886959999999998,7.832976037848461,0.15181666745730832
8.890987999999997,7.862030570224178,0.15143436461453677
8.895076,7.878722680798533,0.15113110385408032
8.899103999999998,7.887992771221859,0.1508571181952507
8.903139999999997,7.887824957944261,0.15064947318272168
8.907183999999997,7.881697383565851,0.150465572780298
8.911239999999996,7.86938859828676,0.15031894572970667
8.915291999999997,7.851917961557468,0.15023102607186023
8.919343999999999,7.835455266603123,0.1501245388481059
8.923391999999996,7.8158580214240025,0.1500811794660335
8.927443999999998,7.798398802370243,0.15003492031837673
8.931499999999996,7.78084027609208,0.15003709402272974
8.935548,7.763858209664659,0.1500895702087456
8.939599999999995,7.752503729638244,0.15014034403987117
8.943699999999996,7.7490255870381315,0.1501809360757311
8.947680000000002,7.746811089039434,0.1503130461408995
8.951815999999997,7.749781277842002,0.1504699057540569
8.955947999999996,7.758501195621049,0.1506586640728908
8.959979999999998,7.7721843504014885,0.1508842721352294
8.964068000000001,7.797443435008215,0.15104743290290393
8.968104,7.8327168831666025,0.15119912556332102
8.972244,7.879688403726743,0.1513235886363699
8.976384,7.940484605138464,0.15138123087424046
8.980512000000001,8.007927752401672,0.15145786676104722
8.984644,8.08515239574114,0.15149343230033993
8.988775999999998,8.172269260056805,0.15148614377651975
8.992864,8.266475969823693,0.1514740873403434
8.997004,8.36631026599159,0.15146387117457868
9.001147999999997,8.469866989910534,0.1514787472261191
9.005287999999997,8.581510083380117,0.15143558978901295
9.009435999999996,8.696188419850074,0.15138681708797103
9.01358,8.815242115795154,0.15129208926537865
9.017732,8.93698746236527,0.15116147881353564
9.02188,9.060072925410138,0.15100372590522915
9.026031999999995,9.17922592857962,0.1508654824042331
9.030163999999996,9.302399281173356,0.1506317078492299
9.034299999999998,9.428806491216267,0.1503079531545401
9.038436,9.555866632983257,0.14992310329297515
9.042571999999996,9.677532055824644,0.14956380747059314
9.046711999999996,9.786735749640265,0.14930538259213985
9.050851999999995,9.890754756654621,0.14903330318063301
9.054991999999997,9.989024034692502,0.14874226332339052
9.059127999999998,10.074709441129153,0.1485192884711871
9.063259999999996,10.158233986089376,0.1482344616353016
9.067396,10.236573844248333,0.14793152427918516
9.071527999999995,10.308942523630945,0.1476184315947025
9.075664,10.374221357562332,0.1473080597582675
9.079799999999995,10.43319683801757,0.14699846970772767
9.083927999999997,10.492813832521351,0.14660047819707028
9.088055999999998,10.54411158999909,0.14623128104652683
9.092179999999995,10.58732297792619,0.14590951655458423
9.096307999999995,10.626147588702633,0.1455973087230746
9.100444,10.666300898278298,0.14523031916755372
9.104579999999997,10.701624531103562,0.14489215093869015
9.108720000000002,10.738841904903254,0.1445031467585134
9.112863999999998,10.77011093527767,0.1441616670034758
9.117003999999998,10.796107389301946,0.14386741398224345
9.121092,10.816720542076155,0.14362343001641792
9.125184,10.840468245075137,0.14333762540388087
9.129327999999996,10.870607191099134,0.14299102833919025
9.133459999999996,10.897722311798292,0.14268382943468258
9.137607999999997,10.92237864934782,0.14242254951710492
9.141687999999998,10.950623854397392,0.14212944830276283
9.145732,10.978426159847224,0.14185809689154952
9.149832,11.010382374972313,0.14156524124280653
9.153927999999995,11.043579399347749,0.14128355846346488
9.158019999999995,11.081151783198312,0.14097008798876434
9.162119999999998,11.12467251047415,0.14062158214786077
9.166215999999997,11.164505063025542,0.14034095129176993
9.170312,11.209278017227264,0.14003626533427666
9.174404,11.257418389129162,0.13971030514663096
9.178499999999996,11.306688845381476,0.13939823954241234
9.182596,11.354397735359168,0.13912545849261432
9.186691999999995,11.404798275961898,0.13883321748328883
9.190788,11.45677180051478,0.13853996248005412
9.194887999999995,11.511215525892828,0.13823662755094962
9.198924000000002,11.56723223522103,0.13792935075168952
9.203059999999995,11.628521520899369,0.13758720621499418
9.207156,11.690597298552785,0.13724735181675274
9.211243999999995,11.75357029308121,0.13690519538101384
9.21534,11.822148038659577,0.1365168737091366
9.21948,11.894646826437796,0.1360919180349408
9.223567999999997,11.970734481716065,0.1356454298010706
9.227664,12.047608628969405,0.13520090033177673
9.231759999999998,12.121901850497649,0.134778202749511
9.235856000000002,12.19698156400097,0.13435870041373765
9.239952,12.271950552604354,0.13394865680049656
9.244044,12.342433456832682,0.13357574664512728
9.24818,12.414035027735888,0.13319043176836556
9.252332,12.482158456038984,0.13282897944876057
9.256468000000002,12.553637884366722,0.13242886329923292
9.260603999999995,12.6279082705439,0.13198506277812797
9.264732,12.699143413720705,0.13154790754868573
9.268863999999995,12.768694848047419,0.13112244737992598
9.273008,12.838799906873811,0.13068419584121624
9.277143999999996,12.905648272899958,0.1302599712747714
9.28128,12.973160988325715,0.1298157893975464
9.285416,13.033717418551246,0.12941230815131202
9.289548,13.088436230251434,0.12903538492394243
9.293679999999998,13.143819391351231,0.12864065913063102
9.297811999999997,13.196621626725927,0.12826376199149864
9.301956,13.244040560850554,0.12792233852291018
9.306091999999996,13.289997235924963,0.12758502751007525
9.310219999999996,13.33359443507414,0.12725473064505177
9.314356,13.377191634223314,0.12692684305143215
9.318479999999996,13.41540553212242,0.1266323886620107
9.322608,13.451824996271501,0.12635051268264916
9.326747999999998,13.485442084895611,0.12608842800410802
9.330884,13.521075057069616,0.12581077387674885
9.335019999999997,13.56119411361868,0.12550880582895063
9.339167999999995,13.604459138068052,0.12520595536663226
9.343307999999997,13.644257437592843,0.12494652079580032
9.347460000000002,13.687201705017943,0.12468246704327321
9.3516,13.733845564843024,0.12439743704220828
9.355747999999997,13.778030641518473,0.12414690532746334
9.359835999999998,13.825583135894103,0.12388496204750753
9.363972,13.874487164420014,0.12363034645188067
9.368099999999997,13.932252636796107,0.12333244315834178
9.37224,13.997871611247438,0.12300031243861076
9.376372,14.057553659949026,0.1227168233950187
9.380507999999995,14.113314666450758,0.12246357646320156
9.384647999999997,14.176474857752456,0.12216776491260437
9.388783999999998,14.236943398429116,0.12188877423452858
9.39292,14.299095647955868,0.12160553050416946
9.397052,14.357659029982573,0.12134173762700594
9.401188,14.421372845783946,0.12103543435520593
9.405315999999996,14.486426778060068,0.12071313099545894
9.409451999999998,14.559322794735897,0.12033646441517426
9.413591999999998,14.62952716078669,0.11997706324849607
9.417731999999996,14.697704225612055,0.11961558008248907
9.421868,14.75757347108691,0.11928240891663161
9.425999999999998,14.817320573986299,0.11893157185374231
9.430136,14.876048317435208,0.11856902273877819
9.434223999999997,14.929503484533981,0.1182319366107239
9.438312,14.981828567282342,0.11788538439886263
9.442443999999998,15.029323973280302,0.11754919312322737
9.446539999999995,15.071989702527869,0.11722383605454663
9.450631999999995,15.107244829299935,0.11691939609125847
9.454731999999996,15.134081411821558,0.11664198672579967
9.458868,15.163376777492818,0.11633710966846549
9.463004000000002,15.197257534763539,0.11598749078754766
9.467147999999998,15.223395514858954,0.11566724956399277
9.471284,15.247849786104283,0.11535234874393631
9.475416,15.272071189874211,0.11502395793024689
9.479511999999996,15.299759318568714,0.11466185862041674
9.483651999999996,15.323072087788097,0.11431814972665169
9.487748,15.34503332285719,0.11397141825249599
9.491843999999997,15.358919606051181,0.11366172758643643
9.49594,15.371786529794692,0.11333860717086751
9.500039999999997,15.378262210513187,0.11304590866764742
9.504136,15.382722007681787,0.11276677466276468
9.508231999999996,15.386506037775243,0.11248564585999929
9.512328,15.386590475468719,0.11222318561423945
9.51642,15.385323379011908,0.11195560444142655
9.520515999999995,15.383380515479958,0.11168584775804308
9.524612,15.385923736323065,0.11139755472905327
9.528707999999998,15.391380057591082,0.11109222600068133
9.532803999999995,15.400646696159011,0.11076661704160543
9.5369,15.417091069727038,0.11041242855537546
9.540995999999996,15.432195326820311,0.11007491720523312
9.545135999999996,15.446070192338768,0.10975204121327119
9.549227999999996,15.464320417332349,0.10941494394200327
9.553319999999996,15.486270234725914,0.10906136361766648
9.557408,15.507101385444598,0.10871890195073289
9.561551999999995,15.529284070313564,0.10838375066483455
9.565636,15.554944897782642,0.10803883092879407
9.56972,15.58094931762706,0.10770705641133312
9.573871999999998,15.612337038721549,0.10735582948539207
9.577963999999998,15.645862785941395,0.10701124509146628
9.582055999999998,15.686455543261403,0.10664326688950972
9.586147999999998,15.73321809380656,0.10625553671202811
9.590236,15.783237337151958,0.10586576889196075
9.594371999999996,15.838639881747426,0.10545772305329494
9.598455999999995,15.900998711543123,0.10503205463150694
9.602588,15.963701133714155,0.10461939673276535
9.606728,16.025395614110238,0.10421574930568944
9.61086,16.087765861581467,0.10381796324966365
9.614991999999996,16.147001558827917,0.10344390724615407
9.619136,16.206347980974307,0.10307160765489694
9.623271999999996,16.268939678245403,0.1026773540627324
9.627408,16.331642100416435,0.10228278643540908
9.631536,16.395241739462477,0.10188862328433047
9.635671999999996,16.457157669658432,0.1015001505259727
9.639808,16.520978758504345,0.10110538093153817
9.643944,16.584345530074987,0.10070581057389136
9.648084,16.646704359870682,0.10031456035607227
9.652219999999996,16.71130052301614,0.09990925132069599
9.656311999999996,16.776450310661268,0.09949429507268732
9.660439999999998,16.841035056131194,0.0990766283543348
9.664568,16.90606270120086,0.0986518223449242
9.668691999999997,16.969960261920114,0.09821919800271393
9.672819999999998,17.031387621814197,0.09779184690673111
9.676956,17.092028489733206,0.09736779895260904
9.681099999999995,17.1491912150521,0.09695513611754901
9.685239999999997,17.210607157270648,0.09651861475822365
9.689379999999996,17.275157649713975,0.09606711453890363
9.693516,17.342621242582208,0.09560693659423833
9.697655999999998,17.415800311400314,0.09512700790533238
9.701792,17.48315317936861,0.09467505434579315
9.705940000000002,17.551403264211917,0.09422450436536448
9.710083999999998,17.622234274780325,0.09377280991702078
9.71422,17.693065285348737,0.09332477366677347
9.718352,17.765580004767234,0.09287711615306603
9.722487999999997,17.83921339086061,0.09242580234276919
9.726623999999996,17.910609443604226,0.09199202853045745
9.73076,17.983234887922663,0.09155097495663694
9.734844,18.05686827401604,0.09110962219911552
9.738984,18.126924210284905,0.09069808804352504
9.743072000000002,18.195640030079016,0.09030073987036738
9.747215999999998,18.26323718319825,0.08991397051860958
9.751352,18.330391436717743,0.08953973930998368
9.755487999999996,18.397545690237234,0.08916718052409714
9.759624,18.466605102406685,0.08879129769901202
9.763763999999998,18.5375696732261,0.08841166894182201
