Time,Force,Position
16.308072,0.012420915027659789,0.0
16.31216,0.009286364802884835,0.0
16.316196,0.013539581702541355,0.0
16.320344,0.019608571627476954,0.0
16.32448,0.02587767207702686,0.0
16.328568,0.034051931176535294,0.0
16.332704,0.04536074050081867,0.0
16.336784,0.05644810002523232,0.0
16.340912,0.07024844944993686,0.0
16.34504,0.08326230689956444,0.0
16.349124,0.0969519314243341,0.0
16.353252,0.11534909012403263,0.0
16.35738,0.13486491549861274,0.0
16.36152,0.1543807408731928,0.0
16.365652,0.17490450802271956,0.0
16.369784,0.19161795787232935,0.0
16.37392,0.20743419084692727,0.0
16.378008,0.22064815882116917,0.0
16.382148,0.2344271689706183,0.0
16.386292,0.2500219521453465,0.0
16.390436,0.26257157071997916,0.0
16.394528,0.27242953866957637,0.0
16.398668,0.2733267555445882,0.0
16.40282,0.27411324751966515,0.0
16.406952,0.27108942219482507,0.0
16.411092,0.263468787594991,0.0
16.415172,0.251927110795305,0.0
16.419312,0.24014264492049384,0.0
16.423448,0.2263422954957893,0.0
16.427588,0.21332843804616172,0.0
16.431724,0.19963881352139204,0.0
16.435816,0.18124165482169352,0.0
16.439951999999998,0.16172582944711342,0.0
16.444036,0.14221000407253334,0.0
16.448124,0.12168623692300656,0.0
16.452216,0.10497278707339683,0.0
16.4563,0.08915655409879888,0.0
16.460392,0.0741268130992779,0.0
16.464528,0.059318521899626664,0.0
16.468664,0.04372373872489847,0.0
16.472748,0.031152780875010375,0.0
16.476831999999998,0.020376256775145922,0.0
16.48092,0.01441799175014519,0.0
16.485008,0.007562509850132641,0.0
16.48914,0.002612186600078608,0.0
16.493272,0.0003535139750600453,0.0
16.497408,0.0,0.0
16.501484,0.0,0.0
16.505564,0.0046067308747165655,0.0
16.5097,0.007308303099474613,0.0
16.513832,0.008891208649351095,0.0
16.517976,0.010474114199227579,0.0
16.522112,0.010474114199227577,0.0
16.526248,0.010474114199227577,0.0
16.530376,0.010474114199227577,0.0
16.534504,0.010474114199227577,0.0
16.538636,0.010474114199227577,0.0
16.542768,0.013286411323920496,0.0
16.546864,0.019011808873518627,0.0
16.551008,0.02955546549798049,0.0
16.555148,0.03886973054762591,0.0
16.559288,0.04717605382232464,0.0
16.56338,0.05346649354712998,0.0
16.567472,0.06065415014694714,0.0
16.571612,0.06773108184682944,0.0
16.575768,0.07772111397161692,0.0
16.579864,0.08289288702154071,0.0
16.583892,0.08705671829651779,0.0
16.587984,0.08358999337193823,0.0
16.592071999999998,0.08505225242215725,0.0
16.596216,0.08763317814725785,0.0
16.600356,0.09122204564730514,0.0
16.604448,0.09897474442232951,0.0
16.608544,0.10392506767238355,0.0
16.61264,0.107756724247556,0.0
16.616736,0.11259632259767516,0.0
16.620828,0.11822241292287129,0.0
16.624924,0.11722588882345744,0.0
16.62902,0.1115004912738593,0.0
16.633116,0.10095683464939745,0.0
16.637211999999998,0.09164256959975203,0.0
16.641303999999998,0.08333624632505332,0.0
16.6454,0.07704580660024797,0.0
16.649496,0.07077670615069807,0.0
16.653532,0.06383183862600608,0.0
16.657684,0.053841806501218566,0.0
16.661828,0.0486700334512948,0.0
16.665976,0.04450620217631771,0.0
16.670064,0.04371971020124076,0.0
16.674152,0.039555878926263686,0.0
16.67824,0.036753503401293346,0.0
16.682376,0.03294318610137631,0.0
16.686464,0.02519048732635193,0.0
16.6906,0.022609561601251334,0.0
16.694636,0.021036577651097427,0.0
16.69866,0.016550493276038313,0.0
16.702748,0.010924402950842202,0.0
16.706888,0.009108629925563123,0.0
16.711044,0.010580810575504735,0.0
16.71518,0.012163716125381217,0.0
16.719264,0.01643827230029317,0.0
16.723348,0.02261798712516364,0.0
16.727436,0.026892543300075587,0.0
16.731572,0.027446167799749944,0.0
16.735716,0.029683501149513077,0.0
16.739743999999998,0.03205289867446651,0.0
16.743832,0.03374652912427786,0.0
16.747916,0.03723459332411287,0.0
16.752052,0.04025841864895296,0.0
16.756196,0.04385720774872283,0.0
16.760332,0.04497587442360439,0.0
16.76442,0.04361441867359764,0.0
16.768496,0.04361441867359764,0.0
16.772632,0.04124502114864421,0.0
16.776772,0.03967203719849031,0.0
16.780916,0.04101215367324162,0.0
16.785048,0.04550815964802331,0.0
16.789136,0.05112283229768658,0.0
16.793224,0.05246294877243788,0.0
16.797311999999998,0.0508800432225614,0.0
16.801448,0.046605487047649455,0.0
16.80558,0.04042577222277898,0.0
16.80972,0.03615121604786703,0.0
16.813796,0.03467903539792542,0.0
16.817876,0.03230963787297198,0.0
16.822016,0.02994024034801855,0.0
16.826148,0.028246609898207195,0.0
16.830296,0.024758545698372193,0.0
16.834428,0.021381206398472068,0.0
16.838516,0.01778241729870219,0.0
16.842604,0.015302294873813885,0.0
16.846688,0.015302294873813887,0.0
16.850828,0.017328100023429854,0.0
16.854956,0.019353905173045825,0.0
16.859084,0.02259918029775565,0.0
16.863212,0.025733730522530605,0.0
16.867296,0.023263529697364876,0.0
16.871427999999998,0.01934248749751297,0.0
16.875564,0.020472571847927386,0.0
16.879704,0.028458138098354353,0.0
16.883848,0.03947894734915426,0.0
16.887988,0.04950323250054032,0.0
16.892128,0.06604090325241174,0.0
16.896212,0.08394152583010017,0.0
16.900356,0.10488880908369438,0.0
16.904495999999998,0.13045573696334828,0.0
16.908584,0.16142880144413885,0.0
16.912676,0.19769727762613115,0.0
16.916716,0.24162064143455608,0.007837772892424088
16.920748,0.28905640086969203,0.01635127796004429
16.924884,0.34908744958159205,0.024393032402492028
16.928971999999998,0.41824706264567657,0.03260408958688088
16.93312,0.49697963573749526,0.04081267259062507
16.937216,0.5888839579568182,0.04896509397172546
16.941247999999998,0.6913905212540775,0.057226804757928795
16.945392,0.8093290023796698,0.0654885402064482
16.949532,0.9486477447588733,0.07371438996682418
16.953676,1.1035205475418772,0.08211662877047127
16.957828,1.277081960953457,0.0904298798410651
16.96192,1.4655216676936957,0.0987542609085361
16.96606,1.6698476095375396,0.1070878160948305
16.970196,1.8970046540096803,0.11533821676381467
16.974332,2.1355618492103674,0.12363319472331136
16.978468,2.3939149040389793,0.13185950098561666
16.982604,2.67217454339545,0.13999204093109463
16.986692,2.9623765403046085,0.14816601099831025
16.990828,3.266082461041076,0.1563055214270157
16.994964,3.58239508872984,0.16443653153877646
16.999092,3.9083899052704636,0.16471425611850632
17.003228,4.249660244037353,0.16425426900847906
17.007364,4.590056201280298,0.164304240832563
17.01144,4.937408443723467,0.1641259528495892
17.015576,5.285547178141714,0.16394886673345047
17.019656,5.631547886434602,0.16382551710366677
17.0238,5.973604717176571,0.16361266328411397
17.027936,6.308892459491587,0.16336606677119336
17.032064,6.632127119353981,0.16313770110074782
17.036196,6.95024214661291,0.16263878285730027
17.040324,7.251241547193417,0.1622102675858138
17.044448,7.535457495795308,0.16176737236067001
17.048576,7.8075975265935105,0.16125031275118035
17.052708,8.063064830313031,0.1607675044096934
17.056852,8.30208085675374,0.16023656001252953
17.060988,8.523416214340818,0.15974059531832893
17.065124,8.720790384949185,0.1593534434531644
17.069268,8.90731802932868,0.15885125340763095
17.073412,9.077405814104894,0.1583656313531985
17.077548,9.233291072627594,0.15784590973827803
17.081692,9.372736471547015,0.1573324400644561
17.085832,9.496982820113502,0.15684423107315998
17.089968,9.612986403527284,0.15628668940743876
17.094096,9.712794412488723,0.1557931912178725
17.098232,9.802798090022831,0.1552791296392772
17.102368,9.883451753404888,0.1547547357075188
17.106507999999998,9.957447053259925,0.15418784650860495
17.110644,10.019977148188612,0.15367738539256443
17.114784,10.079571307341329,0.15314931285393094
17.11892,10.129849705368589,0.15271164979593582
17.123056,10.176871410595608,0.15229879286408743
17.127192,10.225454682097247,0.1518495292895956
17.131336,10.264279292873692,0.1515011644840896
17.135472,10.2952504015749,0.1512279927254853
17.139612,10.326885859675714,0.15092587384802833
17.143743999999998,10.35504317517642,0.15065744696479952
17.147872,10.38678935817717,0.15035290535459417
17.152003999999998,10.41159067365323,0.15014551919344954
17.156144,10.436834888729027,0.1499201900006567
17.16028,10.458158061604975,0.14974733071677088
17.16442,10.479481234480922,0.1495751357791125
17.16856,10.498002031831899,0.14943601020142377
17.172648,10.516744278982744,0.14928910905323498
17.17678,10.535486526133592,0.1491419993378812
17.180932,10.553553006209295,0.14899502678614315
17.185068,10.571730211184933,0.14884410307664758
17.189216,10.59091535793552,0.1486814213789438
17.193352,10.61491876376097,0.14846193034110414
17.197488,10.635333302086373,0.14827770557152575
17.201624,10.654961348436698,0.14809723485103998
17.20576,10.676937453036722,0.14787680634282507
17.209896,10.697008398986787,0.14768003499410814
17.214032,10.720889662236768,0.14743939455816768
17.218168,10.752845877361857,0.14712524076542174
17.222296,10.78256475913718,0.14684825026347884
17.226436,10.811497148937429,0.14657440929282564
17.230576,10.83818078771238,0.14630764820682984
17.234716,10.867323209636965,0.1459956156199618
17.238796,10.89197954718649,0.145725624559071
17.24294,10.91607084256081,0.14544888011043372
17.247072,10.94217802148502,0.14514820480690166
17.251208,10.967720158234025,0.14484191040380245
17.2553,10.989784152382917,0.14456525473184703
17.259428,11.01465052205678,0.1442608547530428
17.263552,11.036714516205672,0.1439857510014429
17.267648,11.05698407660454,0.14372735589705254
17.271776,11.078040128978486,0.14346860885885895
17.275908,11.095961631127658,0.14325311214065148
17.280044,11.117693450576743,0.14299863727620454
17.28418,11.144022079300825,0.1427029107333055
17.288276,11.165310999150174,0.1424690786311449
17.292364,11.184694760349565,0.14225576348651925
17.29646,11.20677017217399,0.14202113268250594
17.300556,11.222343616073463,0.1418499992032107
17.304648,11.242403144347996,0.14164238359626538
17.308744,11.26482214854776,0.1414261299942315
17.31284,11.289157729073013,0.14122011191991599
17.316936,11.317536494373588,0.14099771418709986
17.321068,11.349847719549546,0.14076120580804205
17.325208,11.386423579300693,0.14049814763240076
17.329296,11.422777989251973,0.14024699290104212
17.333388,11.461381150228547,0.13999323619080173
17.337528,11.500327903580459,0.13975479291392473
17.341664,11.540282598707318,0.1395079289765364
17.345807999999998,11.583936886234156,0.13922919762255204
17.349904,11.630282824386034,0.13893062370065373
17.354044,11.67281844523799,0.1386710737960371
17.35808,11.71837789141479,0.13837850191684864
17.36218,11.761024237166684,0.13811839118557628
17.366319999999998,11.797168614993623,0.1379167746113235
17.370408,11.837455484820287,0.1376655845570296
17.37456,11.87964751329691,0.13739691504015483
17.3787,11.918250674273484,0.1371575217664279
17.382828,11.962790760999802,0.1368574226545598
17.386912,12.002058271375986,0.13659550414167812
17.391048,12.04457105687688,0.1362952192874285
17.395184,12.085953758027356,0.13598429239686544
17.39932,12.121953157927765,0.1357155444108463
17.40346,12.15727679075303,0.1354463445946179
17.407595999999998,12.190916714728207,0.13518821720323607
17.411732,12.224556638703385,0.1349323051860846
17.415864,12.25841801247843,0.13467001275900325
17.420004,12.296311153353264,0.13436762014842552
17.424136,12.32826736847835,0.1341244378325469
17.428276,12.359780684003697,0.13389944603485762
17.432416,12.390961824829244,0.13368826266122752
17.436556,12.425510383354966,0.13346095985327355
17.440684,12.460623984055896,0.1332418175076289
17.444816,12.496191902032098,0.13303311510698573
17.448944,12.538937555008394,0.1327761846444008
17.453088,12.582026800360026,0.13253499959851037
17.457232,12.625902537686734,0.1322934684055622
17.461376,12.673145692713623,0.1320368991532206
17.46552,12.717143572615798,0.13182110615030543
17.469612,12.766524753768048,0.1315709982202481
17.473755999999998,12.813336426870729,0.1313631918831304
17.477847999999998,12.863404792773654,0.13114603316865928
17.481991999999998,12.91717275107656,0.13090305424095527
17.486136,12.970043492504454,0.1306667365850839
17.490276,13.02470866768237,0.1304212986833764
17.494416,13.078365901085343,0.13018728609790756
17.498552,13.12911003406341,0.12997887297092278
17.502692,13.175933124841624,0.12980652583672733
17.506828,13.230709024919477,0.129563627675465
17.510964,13.284133390847044,0.1293179588713739
17.515044,13.337214164399274,0.12906070211162693
17.519184,13.389054128701154,0.12879784136526756
17.523272,13.440329050827831,0.12853176761336463
17.527411999999998,13.494173481004072,0.12823084335898197
17.531496,13.544539768580202,0.12795089133755003
17.535632,13.596246172631083,0.12765320974394923
17.539768,13.650079185131792,0.12733730716125957
17.543904,13.705473763907124,0.126998393293921
17.547984,13.762994951132281,0.12664065034639302
17.552072,13.819840371282298,0.12628518816613835
17.556204,13.877460865731859,0.12590708826820474
17.560284,13.930927450506164,0.12554592640242807
17.564367999999998,13.982821051330317,0.12519051805320067
17.568456,14.038070652179114,0.1248017181666207
17.572536,14.090063560227671,0.12442430250978508
17.576616,14.143618034550846,0.12402368853462449
17.580756,14.201536450673611,0.12358143006261575
17.584832,14.259111274421041,0.1231271959034048
17.588968,14.311302796918401,0.12270564090477126
17.593104,14.364834435890511,0.12226774833435342
17.59724,14.415220106962312,0.12183626315167206
17.601376,14.462459810133806,0.12141104833057322
17.605512,14.50397261967989,0.12100205710373882
17.6096,14.540545027575645,0.1206093380581266
17.613692,14.575422308945777,0.12020102511215516
17.617828,14.606588580240397,0.11979382567828424
17.621956,14.63113074103459,0.11940761884641053
17.626048,14.649835283303448,0.11904132352685069
17.630176,14.662247889771683,0.11868440829469147
17.634268,14.664226068439588,0.11837035356471652
17.63836,14.664066220982127,0.11805359338221867
17.642452,14.666254431774364,0.11771178443817935
17.646536,14.667312558216189,0.1173592700020886
17.650624,14.666797700707859,0.11701034046010993
17.65466,14.669638843224174,0.11662960904520484
17.658748,14.670685551990465,0.11625861634587156
17.662836,14.670270001706536,0.11588780733426671
17.66692,14.671083842997422,0.11550347762799243
17.671056,14.674024292738139,0.11510186872536099
17.675144,14.680885784678708,0.11467686147854855
17.679275999999998,14.693019852969414,0.1142321899977998
17.683364,14.710315772710318,0.1137713904803467
17.687492,14.736583861201341,0.11327276830437365
17.691624,14.767116584267555,0.11276254656590476
17.695716,14.801581767209152,0.11225152238776459
17.6998,14.840311584725942,0.11173049965097792
17.703892,14.889132237667727,0.11116559662377748
17.707984,14.94210680028477,0.11059381138276449
17.712068,15.002602690277245,0.11000686018534056
17.716196,15.076778283194765,0.109359586058542
17.720323999999998,15.151740368087363,0.10871537162947904
17.72446,15.228718336529855,0.10806420800915069
17.728596,15.310293114247338,0.10739838707956666
17.732736,15.391867891964822,0.10673784108775111
17.736876,15.47131606123248,0.10609892863325203
17.741016,15.549412696349851,0.10545741717082352
17.7451,15.6257148977172,0.1048269933375894
17.749244,15.70357866535917,0.10417997497155451
17.753276,15.783003999275763,0.10351766532320979
17.757368,15.858164698617166,0.10287288075011043
17.7614,15.932195313608153,0.10222258761320274
17.765492,16.007222452698553,0.1015527601357639
17.769628,16.08111950743854,0.1008798746906827
17.773712,16.157475345328162,0.10019044923281324
17.777804,16.23270109886737,0.0994951834358382
17.781896,16.308480476906247,0.09879271011171276
17.786036,16.37686067014516,0.09812571150148498
17.790176,16.446802429658696,0.09744482700310793
17.79432,16.517629988371713,0.09674884491816185
17.79846,16.588113954709392,0.09605104654453252
17.802608,16.661511021471973,0.09534488226480553
17.806696,16.73412159625948,0.09464514125608894
17.810832,16.805834954171974,0.0939551949138054
17.814968,16.87788048678427,0.09326167182400232
17.819108,16.95137686077126,0.09255624834319405
17.823236,17.029359319133302,0.09184315995342092
17.827372,17.111373544595132,0.09111513569389756
17.831516,17.196976637557007,0.09038599560248141
17.835656,17.28146106384401,0.08967085060007673
17.839792,17.36415105638098,0.08896368965901867
17.843928,17.446841048917953,0.08826218308701965
17.848064,17.525499274355138,0.0875853716113251
17.852204,17.599449965617396,0.08692918854486514
17.856292,17.669025297404534,0.08628629455758248
17.860436,17.737138370141444,0.08564378283577757
17.864572,17.798970924753274,0.08501864078951775
17.868704,17.859451945214822,0.08438867474852178
17.872792,17.911747288901324,0.08378093006781119
17.876928,17.95507046383771,0.08319482241519105
17.881052,17.990207961999054,0.0826312012257417
17.885144,18.018389174960173,0.08207874391120724
17.889228,18.041408536471096,0.0815335659783545
17.893264,18.056685120806712,0.08099769510988776
17.8973,18.068815737242023,0.08045994211382389
17.901388,18.081167803477204,0.07991951318747728
17.905524,18.092279060462033,0.07937275684931114
17.909616,18.097785566396922,0.07884223093932616
17.913752,18.094995670656836,0.07833244421021071
17.917888,18.08962484919165,0.07782563195831095
17.922016,18.086269911276357,0.07731141389115469
17.926104,18.08324714806087,0.07679154229390443
17.930191999999998,18.076967692045137,0.07626969588469044
17.934283999999998,18.072814844479236,0.07573824526095348
17.938368,18.066646113363436,0.07521451385579982
17.94246,18.062382540897598,0.07468679605942556
17.946559999999998,18.062937227506627,0.07414560961831276
17.950644,18.065507797665543,0.07359727758440197
17.954732,18.07939859482428,0.0730231970574406
17.958824,18.101585793657993,0.07243426441355089
17.962903999999998,18.127804759591488,0.07183199828335832
17.966992,18.162873751699642,0.0712048282116276
17.971072,18.19984790245775,0.07057374236684526
17.975108,18.243434746040744,0.06992898852383532
17.979192,18.289602515348843,0.06928555275563619
17.98328,18.332292142056826,0.06864664365549808
17.987364,18.367582583964843,0.06802177995218141
17.991444,18.408355634347334,0.06737351195438263
17.995524,18.45158746787946,0.06671023282264836
17.999556,18.495372925911262,0.06603710832281792
18.00364,18.539712008442734,0.06535579171419015
18.00772,18.580351498574228,0.06468288746716479
18.0118,18.627825131330475,0.06399482130414298
18.015888,18.673725780136568,0.06330655135748017
18.019976,18.72129872011722,0.06260294761268896
18.02406,18.760685983322826,0.06190931968417382
18.028148,18.79300623642828,0.061220326304220515
18.032232,18.81937814610845,0.06052915704130229
18.036364,18.824106125888402,0.05985463620371709
18.0405,18.81268420191814,0.05918925051615663
18.044636,18.7848909243978,0.05853467922449571
18.048768,18.73277348402773,0.057910721281633354
18.0529,18.665514081682403,0.057287093329815235
18.057044,18.573586924112018,0.056678561783807535
18.061176,18.459007894866463,0.056078298072053875
18.065312,18.318974618420775,0.05548625375685852
18.069436,18.160997004474847,0.054890323510011815
18.073564,17.971185317979298,0.05432548110749233
18.077696,17.753682050933858,0.05377531478396586
18.081836,17.50176378561369,0.0532508347849803
18.085932,17.209715046068926,0.05276109726490564
18.090068,16.882686266074234,0.05228801415666296
18.094208,16.51474051987987,0.051845232226071625
18.098344,16.105988532385762,0.05142915292178915
18.10248,15.661813604841988,0.051034456113234226
18.106568,15.189725646948448,0.05065181453533147
18.110712,14.684906399630274,0.05028910362487377
18.114852,14.149826063712634,0.049951482099773216
18.118988,13.595140516795734,0.04964669597897298
18.12314,13.019276774929423,0.04936558738728489
18.127276,12.427728864263702,0.04910477037268002
18.131412,11.827552377223201,0.04883174586478027
18.135548,11.212146038658563,0.04860220506366399
18.139676,10.593727292444623,0.04839378700901683
18.14382,9.97139892170636,0.04820783708679349
18.14796,9.355030312068905,0.048044354652940255
18.152096,8.737222278732299,0.04792099736524645
18.156232,8.125816906096244,0.04781418950143473
18.160364,7.51868758571091,0.04774920799948401
18.1645,6.930743412076164,0.0476995361450797
