Time,Force,Position
12.395536,0.005564795423449293,0.0
12.399616000000002,0.00787118904800925,0.0
12.403704,0.011074799547581029,0.0
12.407836,0.014389134947087679,0.0
12.411972000000002,0.020616570771499546,0.0
12.416104,0.030089281720621232,0.0
12.42024,0.03945126776980805,0.0
12.424384,0.04982119559394156,0.0
12.428468000000002,0.05929390654306325,0.0
12.432608000000002,0.06764795081730338,0.0
12.43674,0.07488332841666193,0.0
12.440872000000002,0.08200798111608562,0.0
12.445012000000002,0.08633025829053896,0.0
12.449144,0.0906525354649923,0.0
12.453284,0.09266841901488569,0.0
12.457420000000004,0.0996823468143745,0.0
12.461552,0.10651648943913161,0.0
12.465680000000004,0.11335063206388873,0.0
12.469808,0.11928755781363402,0.0
12.473936000000002,0.1252244835633793,0.0
12.478080000000002,0.13205862618813644,0.0
12.482216,0.13844986921315408,0.0
12.486352,0.1439438953631599,0.0
12.490492,0.1521295721382012,0.0
12.494580000000004,0.15448904806343206,0.0
12.498668000000002,0.15517623281410697,0.0
12.502808000000002,0.15406898381475825,0.0
12.506948,0.1491514175154925,0.0
12.51104,0.14714695164113198,0.0
12.515128,0.1482770359915464,0.0
12.519216,0.14973929504176545,0.0
12.52336,0.15052578701684238,0.0
12.5275,0.15613053806678306,0.0
12.531644,0.16364044776668227,0.0
12.535724000000002,0.17237974904139788,0.0
12.539812,0.1756250241661077,0.0
12.543960000000002,0.17976751616582937,0.0
12.548096,0.1849179499404977,0.0
12.552184,0.18995765881523116,0.0
12.55632,0.1930922090400061,0.0
12.5604,0.19320293393994098,0.0
12.56448,0.19454305041469228,0.0
12.568616000000002,0.19588316688944354,0.0
12.572696,0.19352369096421274,0.0
12.576836,0.19620392391371536,0.0
12.580972000000004,0.19641395603805223,0.0
12.585,0.19953708858729433,0.0
12.589080000000004,0.20635981353651864,0.0
12.593220000000002,0.20915077138595614,0.0
12.597296,0.21082306256051206,0.0
12.601376000000002,0.21317112081021003,0.0
12.60546,0.21709216301006196,0.0
12.609496,0.2198945385350323,0.0
12.613628000000002,0.21967308873516253,0.0
12.617764,0.22225401446026316,0.0
12.621844000000005,0.22450276548555914,0.0
12.625988,0.22675151651085512,0.0
12.630064,0.22530067513616892,0.0
12.6342,0.229786759511228,0.0
12.638336000000002,0.23427284388628716,0.0
12.642476000000002,0.2378617113863345,0.0
12.646564,0.2394346953364884,0.0
12.650644,0.24201562106158894,0.0
12.654728000000002,0.24358860501174284,0.0
12.658812,0.24112982186211002,0.0
12.662948,0.2376630969375304,0.0
12.667084000000004,0.2322912133629923,0.0
12.671224000000002,0.2279272715634009,0.0
12.675312000000002,0.22557921331370293,0.0
12.679444,0.21942083776408788,0.0
12.683580000000005,0.20956286981449068,0.0
12.687712,0.1980211930148047,0.0
12.691856,0.1864795162151187,0.0
12.69594,0.17504856431536764,0.0
12.700088,0.16160172886572313,0.0
12.704220000000005,0.15297315249094237,0.0
12.708356000000002,0.1434473592411498,0.0
12.712480000000005,0.13560527484144597,0.0
12.716572000000005,0.12103977271691997,0.0
12.720660000000002,0.10748221236734061,0.0
12.724784,0.09672702754273156,0.0
12.728876,0.08798772626801594,0.0
12.733004,0.07622459966846021,0.0
12.737096,0.06916900724383333,0.0
12.741176000000005,0.0668209489941353,0.0
12.745308,0.06537010761944914,0.0
12.749436000000005,0.06470575821983991,0.0
12.753584,0.0604525413201834,0.0
12.757720000000004,0.05619932442052688,0.0
12.761804,0.0547484830458407,0.0
12.765944,0.0589023927210952,0.0
12.770076,0.06193763572146815,0.0
12.77422,0.06074990877178975,0.0
12.778364,0.06057012359705805,0.0
12.782504,0.05949312154731453,0.0
12.786644000000004,0.055613743972600674,0.0
12.790776,0.05173436639788681,0.0
12.794912,0.047965713723107824,0.0
12.799048000000004,0.04699943657329918,0.0
12.80318,0.04603315942349053,0.0
12.807316,0.04416966539867006,0.0
12.81146,0.04129822959890289,0.0
12.815596000000005,0.040442677349029114,0.0
12.819736000000002,0.03678474957418499,0.0
12.823868,0.030324446274370538,0.0
12.828000000000005,0.024872084749502775,0.0
12.832144,0.01953044812456988,0.0
12.836288,0.01587252034972576,0.0
12.840424000000002,0.012214592574881644,0.0
12.844552,0.008667389699972397,0.0
12.848676,0.0033257530750395044,0.0
12.852804000000004,0.0,0.0
12.856932,0.0,0.0
12.861068,0.002084943824690214,0.0
12.865204000000002,0.003272670774368604,0.0
12.869344000000002,0.004349672824112123,0.0
12.873476,0.005315949973920772,0.0
12.877568,0.005315949973920772,0.0
12.881708,0.005315949973920772,0.0
12.885848000000005,0.005495735148652468,0.0
12.889992,0.005495735148652468,0.0
12.894084,0.005495735148652468,0.0
12.898116000000002,0.005495735148652468,0.0
12.902264000000002,0.005495735148652468,0.0
12.906360000000005,0.005495735148652468,0.0
12.910508,0.005495735148652468,0.0
12.91466,0.005495735148652468,0.0
12.918756000000002,0.005495735148652468,0.0
12.922888,0.005495735148652469,0.0
12.927020000000002,0.005495735148652469,0.0
12.931152,0.005495735148652469,0.0
12.935292,0.005495735148652469,0.0
12.939372000000002,0.005495735148652469,0.0
12.943452,0.003410791323962255,0.0
12.947584000000004,0.0022230643742838637,0.0
12.951724000000002,0.0011460623245403445,0.0
12.95586,0.00017978517473169622,0.0
12.96,0.00017978517473169622,0.0
12.964136,0.00017978517473169622,0.0
12.968272000000002,0.0,0.0
12.972412000000002,6.9060274796825e-05,0.0
12.976548,0.0018218293996824246,0.0
12.980688,0.0037960483244377672,0.0
12.984824,0.004873050374181286,0.0
12.988916,0.004873050374181286,0.0
12.993008,0.004873050374181286,0.0
12.997136,0.00550715282418532,0.0
13.001272,0.005507152824185321,0.0
13.005400000000002,0.005507152824185321,0.0
13.009536,0.00658415487392884,0.0
13.013672,0.008558373798684182,0.0
13.017812000000005,0.008738158973415878,0.0
13.021948000000002,0.008738158973415878,0.0
13.026036,0.011720319673117915,0.0
13.030124,0.015488972347896902,0.0
13.03426,0.016233799697835807,0.0
13.038404,0.016233799697835807,0.0
13.042552,0.01686790214783984,0.0
13.046648,0.016867902147839845,0.0
13.050788,0.016867902147839845,0.0
13.054936,0.01679884187304302,0.0
13.059064000000005,0.015046072748157419,0.0
13.063192,0.013071853823402075,0.0
13.067324000000005,0.011994851773658556,0.0
13.071456,0.011994851773658556,0.0
13.075584000000005,0.011994851773658556,0.0
13.079724000000002,0.011360749323654523,0.0
13.08386,0.011360749323654523,0.0
13.087996,0.011360749323654523,0.0
13.092132,0.010283747273911004,0.0
13.096268000000002,0.008309528349155661,0.0
13.100404,0.008129743174423965,0.0
13.104480000000002,0.008129743174423965,0.0
13.108616,0.005147582474721928,0.0
13.112692000000004,0.0013789297999429397,0.0
13.116832000000002,0.0006341024500040341,0.0
13.120968,0.0006341024500040341,0.0
13.125108,0.0,0.0
13.129248,0.0,0.0
13.13334,0.0,0.0
13.137428,0.0,0.0
13.141564000000002,0.0,0.0
13.145696,0.0,0.0
13.149836,0.0,0.0
13.153976,0.0,0.0
13.158124,0.0038029057013775442,0.0
13.16222,0.007174329478548456,0.0
13.166368000000002,0.014711080606506721,0.0
13.170516000000005,0.026302434185317473,0.0
13.174660000000005,0.04509435811528851,0.0
13.178792,0.06896024394659156,0.0
13.182940000000002,0.10059174230426213,0.0
13.187068,0.14134038733858434,0.009099872955343645
13.191156,0.19065255454988386,0.018193737811090117
13.195240000000002,0.25066627006352177,0.027214418818958103
13.199368,0.3210493591796935,0.03630278039594468
13.203504000000002,0.40516923959857665,0.045218639290591806
13.20764,0.4996699112955264,0.0543693808386131
13.211772,0.6099346755206136,0.06336747694118278
13.215856000000002,0.7345126908991524,0.07240954360423904
13.219984,0.8808031422311069,0.0811184087958484
13.224124,1.042647653966862,0.08990139051574692
13.228264000000005,1.2241887181061395,0.09854086089510254
13.232392,1.4263235515239514,0.10703752517308071
13.23648,1.6468034031950014,0.1154420177462061
13.24052,1.876442066167841,0.123906231129128
13.244652000000002,2.1254108538177996,0.1322381918941577
13.248688,2.3861998564449785,0.1405352951198487
13.252776,2.6591412487491817,0.14878243103125036
13.256868,2.9386188620049363,0.15701965924764702
13.261008,3.2277672464370166,0.16522237852818675
13.265140000000002,3.5194086670453286,0.1734744231800423
13.269224,3.8155475897042326,0.17257711090607478
13.273316,4.117069813613208,0.17161712050542088
13.277344000000005,4.418912794546456,0.17067904645389667
13.281376000000002,4.719835723253629,0.16963806373462798
13.285404,5.016127589659207,0.16871423739043998
13.289484000000002,5.310468626712696,0.16750191900786507
13.293564,5.595226782138729,0.1664016261054705
13.297648000000002,5.871066405336913,0.16522368009783714
13.301732,6.126999444007239,0.1643950217780534
13.305828000000002,6.370745839973941,0.16345648600532206
13.309856,6.600178984787192,0.16258954092365693
13.313948,6.809694127397051,0.16186647927538422
13.318092,7.002437235703825,0.1612248930777063
13.32218,7.187491203357568,0.16046034276798213
13.326272,7.355895279283695,0.1598189875306681
13.330304000000002,7.509665347032097,0.1592148534778939
13.334400000000002,7.648690681702843,0.15865679280768227
13.338532,7.776338700996108,0.15809354191896702
13.34268,7.891712188036881,0.15754370567313336
13.346812,8.00332899430001,0.1568558793057192
13.350944000000002,8.102904135786043,0.15620816479166058
13.35508,8.188311004045161,0.1556411871880024
13.359212,8.266062984677845,0.15509488337353855
13.363344,8.336725119859302,0.15457007362664466
13.367484,8.39862511841498,0.15411979842415188
13.371624,8.456359789619869,0.15368278277223668
13.375704000000002,8.509940551149503,0.15329057806437713
13.379840000000002,8.560375344778832,0.15292457117377856
13.383976,8.611363762907832,0.15252928358243992
13.388056000000002,8.664035889886923,0.15212663798690068
13.392132,8.712565524866292,0.15180450913710258
13.396268000000005,8.764573302445772,0.15144892406288296
13.400404000000002,8.817256847100396,0.15109721507655594
13.404532,8.86691656643018,0.15080199474649744
13.408672000000005,8.91478185200994,0.1505284563744779
13.412760000000002,8.965670962914539,0.15021005665648082
13.416896,9.01533068224432,0.14991910572360817
13.421032,9.066109068248984,0.1496107538282308
13.425160000000002,9.114982295603689,0.14933046516881335
13.429288,9.158705089183726,0.1491418238136881
13.433376000000004,9.201419940988819,0.14896948391012493
13.437472,9.245032009668922,0.14878656678460206
13.441604000000002,9.286849644599002,0.1486263354766554
13.44574,9.32608635380398,0.14849068060075638
13.449872000000004,9.364868745733684,0.14834126243131535
13.454008000000002,9.39636267776336,0.1482769435394842
13.458096,9.426837250342558,0.14819345442167878
13.462236,9.45596028877147,0.14810797594754993
13.466376,9.483621068150166,0.14802625322761684
13.470524,9.502420403678677,0.1480365840414622
13.474664,9.51919243798176,0.1480424280038845
13.478764000000002,9.532818504384537,0.14806557484906765
13.4829,9.545093036637029,0.14808599647094847
13.487052000000002,9.555118817864223,0.14811317273881047
13.491192000000002,9.567492657341118,0.14809387220294085
13.495328,9.573585978692929,0.14814141212253118
13.499460000000004,9.583478199669123,0.14810610524222548
13.503592,9.589781553145274,0.14810869525914483
13.507728,9.60033812352108,0.14804216526737835
13.511868,9.607638001096644,0.14799629356133703
13.516004000000002,9.614483561396934,0.1479381356273575
13.52014,9.62345573014705,0.14784580989347001
13.524224,9.630854914947015,0.1477613920515608
13.528360000000005,9.643183083721778,0.14761071479423607
13.532444000000002,9.65831362802151,0.14742812926741655
13.53658,9.679946140246194,0.14717110284561002
13.540656000000002,9.700238535996128,0.146944597262553
13.544784,9.723111857471164,0.14669815794265798
13.548868000000002,9.744866512271319,0.14647144517187508
13.553004,9.772901685196556,0.14618034013256329
13.557144,9.803861376222232,0.14588509676328687
13.561284,9.834045992948361,0.14562699247036082
13.56542,9.862779768299804,0.14540395399746953
13.569552000000002,9.89454878665162,0.14517214570153256
13.573648000000002,9.925874905403695,0.14496389122093267
13.577728,9.964943801331076,0.1446926596733926
13.581816,10.001332464308954,0.1444840447105764
13.585904000000005,10.042096486761954,0.1442387838279928
13.590048,10.078385842515429,0.14407212959869023
13.59414,10.120844991494051,0.1438509785545484
13.598268,10.166339383473048,0.14362248932906096
13.602396000000002,10.211390875852304,0.1434172713207592
13.606484000000002,10.260707002806749,0.14318217734105684
13.610624,10.30857228838651,0.14298558600335456
13.614720000000002,10.358010557916419,0.14278637951599538
13.618856,10.404646451921362,0.14261861870983147
13.622952000000002,10.455092663226223,0.14240958022392325
13.627044,10.502736499006113,0.14223171999033865
13.631140000000002,10.553071985411037,0.1420302928093218
13.635276,10.603407471815963,0.14183116227711298
13.639364,10.652502148970541,0.14162462924367306
13.6435,10.704277059074617,0.14136472781504408
13.647596,10.762321069628243,0.14102218030078992
13.651692,10.817329837181498,0.14068840260958135
13.655828,10.871662837659612,0.14035513852546333
13.659960000000002,10.920268944512317,0.14005600741095894
13.664104000000002,10.970215167839772,0.1397322910123877
13.668244,11.01679397346705,0.13943278022450153
13.672328,11.064823620469017,0.1391027955350224
13.676468,11.109485849770804,0.1387966905869912
13.680612,11.154812428472201,0.1384667789606298
13.68474,11.198566023223446,0.13814383654004528
13.688876,11.240746634024532,0.13783031728180808
13.693016,11.280457044000455,0.13753130417148582
13.697148000000002,11.314562702926436,0.13728569111393862
13.701292000000002,11.352367954252399,0.13700879779145203
13.705432000000002,11.388046597128536,0.1367615494970674
13.709568,11.426527615529642,0.13649011778753012
13.713700000000005,11.468818951230663,0.13618593068617804
13.717840000000002,11.514134112256528,0.13585200735666272
13.721972,11.562927415882505,0.135498003548703
13.726112,11.612175036783754,0.13515855072966088
13.730248,11.659861091410379,0.1348575952046191
13.734384000000002,11.712708997487207,0.13452809922526887
13.738512,11.767240612414126,0.13419232249720478
13.742640000000002,11.825028920141287,0.13384515464133925
13.746768,11.883492994943591,0.13350352542056412
13.750896,11.94622170432108,0.13314170765641822
13.75504,12.00850751409883,0.13279809893580705
13.759176,12.07606590022672,0.13242506675030624
13.763268,12.14105477830504,0.13209664763991447
13.767412,12.21052974075842,0.13174058088968318
13.7715,12.27787809476197,0.13141093823590236
13.775636000000002,12.346799432715674,0.13107844168551622
13.779732000000005,12.42434934704416,0.13067356622152015
13.783872000000002,12.500326277422493,0.13027809998708664
13.788016000000002,12.578651266050523,0.12985341746189794
13.792152000000002,12.655968312903607,0.12944262508307344
13.796296000000002,12.72958576735671,0.129065685707917
13.800432,12.804100438684822,0.12869131167798928
13.804516,12.87682067626291,0.12833262938248538
13.808652000000002,12.947746480090974,0.1279877424149054
13.812736,13.013621157368775,0.12766662096288509
13.816868,13.07545264987125,0.12736159661254012
13.820948,13.138734983748416,0.12703634428786129
13.82508,13.199768566600286,0.1267147283628237
13.829212000000002,13.257656181551848,0.1264016118954218
13.833348,13.309706177978068,0.12611350396750443
13.837428000000005,13.362863423403635,0.12578963445880106
13.841572000000005,13.40906438362898,0.1255035139414777
13.845656000000002,13.458277751503628,0.1251681371389679
13.849796,13.504455876377905,0.12483892263952885
13.853884,13.551409075551726,0.12448473149808553
13.858024,13.596777873099862,0.12411101053591748
13.86216,13.633728126397552,0.12377361873781215
13.866292,13.670224062419969,0.12342924461484014
13.870376,13.702787538567001,0.12309371034621779
13.874516,13.7327586713134,0.12274669844466375
13.878600000000002,13.758797344184414,0.12240706474338202
13.882728,13.773504372380081,0.12212164348667848
13.886808000000002,13.784389665600298,0.12183965257806097
13.890948000000002,13.796382207819862,0.12152289232705674
13.895032,13.813414458914158,0.12116498841485902
13.899116000000005,13.832462593558352,0.12079192983947616
13.903256000000004,13.84612742695247,0.12044918086706935
13.907344000000002,13.862705360771496,0.12008690556096223
13.911428,13.882085670115492,0.11970825450186605
13.915508000000004,13.908078672284374,0.11928864647132967
13.91964,13.936431150378489,0.11886912552483456
13.923776,13.969712612447402,0.11841462347007004
13.927872,13.999970249191476,0.1179870451596534
13.932012,14.029109219260667,0.11757258137292778
13.9361,14.058137464429922,0.11716299041581117
13.940228,14.088517243749465,0.11676004995607592
13.94432,14.121035049194369,0.11636148786043467
13.948448000000004,14.151426246189441,0.11598338199338032
13.95258,14.187987236409665,0.1155813054753151
13.956716,14.225899760780168,0.1151854446748496
13.960852000000004,14.268409094425667,0.11476634553771746
13.964944000000004,14.318993379946274,0.1143088131801047
13.969036000000004,14.374174474741872,0.1138288741552134
13.973136,14.42499162773788,0.11339098918218724
13.97728,14.47233063813378,0.11296973321601958
13.981416,14.513389130404592,0.11257820633110278
13.98556,14.554669072475276,0.11218022984563364
13.989652,14.593478813720791,0.11179087994896376
13.993792000000004,14.629929079041078,0.11140576517182595
13.99794,14.65751790051118,0.11105926463084415
14.002044,14.678039711881123,0.11074242317122897
14.006140000000002,14.69429688867588,0.11044020631424505
14.010280000000002,14.709202531320349,0.11013319715650809
14.01442,14.722978089614404,0.10981475435298271
14.018508,14.7371965475082,0.10948419157291277
14.022596,14.750739238326851,0.10915206952798452
14.026736,14.766740712295137,0.10879422627974747
14.030868000000002,14.78419302763811,0.10841718337375095
14.035012000000002,14.796372766630949,0.10806147653938299
14.03914,14.809671172298662,0.10769681637874351
14.043276000000002,14.820499377141214,0.10733804847528523
14.047408,14.828746656258666,0.10698804032176568
14.051548,14.835199501626093,0.10664657462779549
14.055680000000002,14.846913505668123,0.10626579040864315
14.059816,14.85661162616026,0.10589841177653399
14.063952,14.873819656352296,0.10549410317539618
14.068032000000002,14.891138411444267,0.10508678668169331
14.072172000000002,14.906441282986345,0.10469338736288217
14.076308,14.921633429628487,0.10430382692786977
14.080448,14.94019299397081,0.10390642842112467
14.084588,14.96346009248806,0.10348604725376079
14.088668000000002,14.983592640780532,0.10308786134310939
14.0928,15.003393014373202,0.10269941186003377
14.096892,15.02656080566605,0.10230540000735207
14.100984,15.049507147159026,0.10191919785424274
14.105116000000002,15.07424792240203,0.10152831006414137
14.109248,15.093273221695156,0.10116727653524599
14.113376000000002,15.11095840451353,0.10082289391989507
14.117516000000002,15.129319354407047,0.10048239722288291
14.121612000000002,15.14868824607551,0.10013751925058072
14.125756000000004,15.17052733856914,0.09979092866806227
14.129848000000004,15.193263647937782,0.09944217287059058
14.133940000000004,15.21465984083167,0.09910964661662651
14.138080000000002,15.232921483500785,0.09880007426336798
14.142120000000002,15.257685094094851,0.09846446437359874
14.146256,15.281440762913972,0.09813752732007641
14.15034,15.309461066308282,0.097803332005011
14.15448,15.340394470127498,0.09745536167184828
14.158616000000002,15.370098482371896,0.09711970330906239
14.162708000000002,15.402604870141268,0.09677386670161338
14.166848000000002,15.437016416560592,0.0964220485219669
14.170940000000002,15.479724364654897,0.09603982499928539
14.175088000000002,15.527926338899206,0.09564000239174396
14.179224,15.571199329168717,0.09526724718565974
14.183376000000004,15.612677885688203,0.09490109534035279
14.187512000000002,15.652583458257535,0.09453685519483564
14.191648,15.70089615740178,0.09414146516285464
14.195732,15.752343406770798,0.09372841971228729
14.199816000000002,15.802217672189665,0.09331605819272304
14.203948,15.851194720733519,0.09290934667085166
14.208032000000005,15.896582901777325,0.09251479363593766
