Time,Force,Position
21.51138,0.0053059579279761005,0.0
21.515476,0.004752333428301742,0.0
21.519612,0.007019393362127117,0.0
21.5237,0.007019393362127118,0.0
21.527784,0.007019393362127118,0.0
21.531868,0.008499961320875542,0.0
21.535956,0.013790846579541001,0.0
21.540044,0.01919245673814133,0.0
21.544132,0.026720675346569918,0.0
21.54822,0.031335793530093296,0.0
21.552304,0.03581046022961956,0.0
21.556396,0.041544245088024505,0.0
21.560483999999995,0.047499479746299186,0.0
21.564575999999995,0.053092813120707016,0.0
21.568716,0.05857542159517997,0.0
21.572804,0.06441993135351978,0.0
21.576892,0.07194814996194838,0.0
21.58098,0.07846842679543027,0.0
21.585072,0.0848779787289773,0.0
21.589164,0.0889097458287641,0.0
21.593304,0.09215502095347392,0.0
21.597396,0.09461380410310678,0.0
21.601488,0.0969618623528048,0.0
21.605572,0.10247419741133999,0.0
21.609608,0.10798653246987519,0.0
21.613696,0.11381273331968561,0.0
21.617788,0.11302624134460866,0.0
21.62188,0.10932664894462649,0.0
21.625972,0.10461911476969764,0.0
21.630068,0.10271395611973912,0.0
21.634156,0.10069807256984573,0.0
21.638252,0.09496428771144078,0.0
21.64234,0.08948167923696783,0.0
21.646436,0.08511773743737644,0.0
21.650532,0.08344544626282052,0.0
21.654624,0.08367831373822313,0.0
21.658719999999995,0.07931437193863174,0.0
21.662808,0.07887147233889226,0.0
21.666903999999995,0.07663413898912913,0.0
21.670996,0.07540474741431268,0.0
21.675084,0.07507257271450807,0.0
21.679184,0.07743204863973892,0.0
21.683276,0.07698914903999941,0.0
21.687372,0.07564903256524812,0.0
21.691468,0.07240375744053829,0.0
21.695568,0.06545888991584631,0.0
21.69966,0.0609544966322578,0.0
21.70376,0.05961438015750649,0.0
21.707856,0.05679369572400676,0.0
21.711948,0.0540837361904419,0.0
21.716044,0.051373776656877035,0.0
21.72014,0.05137377665687704,0.0
21.72424,0.050901150473075314,0.0
21.728332,0.049420582514326884,0.0
21.732432,0.04524836393054299,0.0
21.736524,0.03917098669680058,0.0
21.74062,0.03600670988796338,0.0
21.74472,0.029929332654220972,0.0
21.748812,0.025757114070437077,0.0
21.752908,0.021584895486653186,0.0
21.757004,0.01741267690286929,0.0
21.761104,0.011335299669126879,0.0
21.765196,0.007163081085342984,0.0
21.769296,0.00299086250155909,0.0
21.773388,0.0007238025677337154,0.0
21.777484,0.0003619012838668577,0.0
21.78158,0.0003619012838668577,0.0
21.78568,0.0,0.0
21.789776,0.0,0.0
21.793872,0.0,0.0
21.797968,0.0,0.0
21.802064,0.0,0.0
21.80616,0.0,0.0
21.810252,0.0,0.0
21.814347999999995,0.0,0.0
21.818444,0.0,0.0
21.82254,0.0,0.0
21.826636,0.0,0.0
21.830732,0.0,0.0
21.834832,0.0,0.0
21.838924,0.0,0.0
21.843024,0.0,0.0
21.847116,0.0,0.0
21.851212,0.0,0.0
21.855312,0.0,0.0
21.859408,0.0,0.0
21.863504,0.0,0.0
21.867596,0.0,0.0
21.871692,0.0,0.0
21.875788,0.0,0.0
21.879888,0.0,0.0
21.883984,0.0,0.0
21.888076,0.0,0.0
21.892224,0.0,0.0
21.896308,0.0,0.0
21.900404,0.0,0.0
21.9045,0.0,0.0
21.908643999999995,0.0,0.0
21.912784,0.0,0.0
21.916928,0.0,0.0
21.92102,0.0,0.0
21.925112,0.0011483932589438093,0.0
21.9292,0.004988437142923088,0.0
21.933292,0.007931264151890542,0.0
21.93738,0.012214207635609306,0.0
21.941468,0.01649715111932807,0.0
21.94556,0.017080502203064674,0.0
21.949652,0.018561070161813097,0.0
21.953748,0.021946796770520038,0.0
21.957844,0.02611901535430393,0.0
21.961936,0.031188450813099646,0.0
21.966024,0.03715510314690718,0.0
21.970164,0.04312175548071472,0.0
21.974256,0.04808046603957557,0.0
21.978344,0.05314990149837129,0.0
21.982432,0.055306236532261785,0.0
21.986524,0.058470513341098984,0.0
21.990612,0.06264273192488287,0.0
21.994708,0.06591773363365494,0.0
21.998804,0.07210583576733222,0.0
22.0029,0.07638877925105098,0.0
22.006992,0.07582373707584378,0.0
22.01108,0.0719836931918645,0.0
22.015164,0.06904086618289705,0.0
22.019256,0.0647579226991783,0.0
22.023344,0.06047497921545952,0.0
22.027436,0.05989162813172293,0.0
22.031476,0.05841106017297451,0.0
22.035564,0.05502533356426757,0.0
22.039656,0.05085311498048367,0.0
22.043748,0.04578367952168795,0.0
22.04784,0.03981702718788041,0.0
22.051932,0.03385037485407287,0.0
22.056024,0.02889166429521203,0.0
22.060112,0.023822228836416312,0.0
22.064208,0.021665893802525808,0.0
22.068304,0.01850161699368861,0.0
22.072396,0.014329398409904718,0.0
22.076492,0.011054396701132648,0.0
22.080592,0.004866294567455365,0.0
22.084688,0.0005833510837366004,0.0
22.08878,0.0,0.0
22.092876,0.0,0.0
22.096972,0.0,0.0
22.101072,0.0,0.0
22.105164,0.0,0.0
22.10926,0.0,0.0
22.113356,0.0,0.0
22.117456,0.0,0.0
22.121552,0.0,0.0
22.125692,0.0,0.0
22.12978,0.0,0.0
22.133876,0.0,0.0
22.137972,0.0,0.0
22.142064,0.0,0.0
22.14616,0.0,0.0
22.150256,0.0,0.0
22.154348,0.0,0.0
22.158496,0.0,0.0
22.162583999999995,0.0,0.0
22.166728,0.0,0.0
22.17082,0.0,0.0
22.174964,0.0006940759836714719,0.0
22.179048,0.0025068186422245093,0.0
22.1832,0.0043195613007775465,0.0
22.187292,0.008934679484300925,0.0
22.191432,0.010636697242919092,0.0
22.195524,0.014354598551430647,0.0
22.199668,0.018072499859942203,0.0
22.203752,0.0220118509683235,0.0
22.207908,0.024156768326681153,0.0
22.212,0.02742035235992037,0.0
22.216136,0.030008169318017506,0.0
22.220216,0.032595986276114645,0.0
22.2243,0.033389369484188136,0.0
22.228432,0.03418275269226163,0.0
22.23256,0.03418275269226163,0.0
22.236644,0.03418275269226163,0.0
22.24078,0.03418275269226163,0.0
22.244868,0.03418275269226163,0.0
22.248948,0.03418275269226163,0.0
22.253032,0.03418275269226163,0.0
22.257176,0.033488676708590154,0.0
22.26126,0.031675934050037116,0.0
22.265396,0.02986319139148408,0.0
22.26948,0.0252480732079607,0.0
22.273564,0.023546055449342535,0.0
22.277648,0.01982815414083098,0.0
22.281732,0.016110252832319427,0.0
22.285816,0.012170901723938128,0.0
22.289952,0.010025984365580476,0.0
22.294039999999995,0.006762400332341256,0.0
22.298124,0.004174583374244118,0.0
22.30226,0.001586766416146981,0.0
22.306391999999995,0.0007933832080734904,0.0
22.310536,0.0,0.0
22.314672,0.0022670599338253748,0.0
22.318796,0.003636902992638927,0.0
22.322932,0.006801179801476124,0.0
22.327016,0.007838848160485062,0.0
22.331152,0.007838848160485062,0.0
22.335236,0.007838848160485062,0.0
22.339316,0.007838848160485062,0.0
22.343399999999995,0.007838848160485062,0.0
22.34748,0.007838848160485062,0.0
22.35156,0.007838848160485062,0.0
22.35564,0.007838848160485062,0.0
22.359728,0.007838848160485062,0.0
22.36382,0.007838848160485062,0.0
22.367904,0.007838848160485062,0.0
22.371996,0.007838848160485062,0.0
22.376084,0.007838848160485062,0.0
22.380172,0.007838848160485063,0.0
22.384264,0.007838848160485063,0.0
22.388356,0.007838848160485063,0.0
22.392444,0.007838848160485063,0.0
22.396532,0.005571788226659689,0.0
22.40062,0.004201945167846137,0.0
22.404708,0.001037668359008938,0.0
22.408788,0.0,0.0
22.412868,0.0,0.0
22.416952,0.0,0.0
22.421092,0.0,0.0
22.425172,0.0,0.0
22.429256,0.0,0.0
22.433336,0.0,0.0
22.43742,0.0,0.0
22.4415,0.0,0.0
22.445584,0.0,0.0
22.449668,0.0,0.0
22.453748,0.0,0.0
22.457832,0.0,0.0
22.461912,0.00025117638393198623,0.0
22.465996,0.0013995696428757954,0.0
22.470076,0.0017614709267426531,0.0
22.47416,0.0030205890856213335,0.0
22.478248,0.004168982344565143,0.0
22.48234,0.006325317378455647,0.0
22.486436,0.009378869287357972,0.0
22.490532,0.011535204321248476,0.0
22.494628,0.01850979843000271,0.0
22.498724,0.023689958788733298,0.0
22.502816,0.0258462938226238,0.0
22.506904,0.028899845731526128,0.0
22.511032,0.03105618076541663,0.0
22.515116,0.03231529892429531,0.0
22.519204,0.03659824240801408,0.0
22.5233,0.0396517943169164,0.0
22.527396,0.041586679550937165,0.0
22.531492,0.04341083988502305,0.0
22.535588,0.04624294199405563,0.0
22.53972,0.05568773692797561,0.0
22.543804,0.0647706305780287,0.0
22.547936,0.07205909047805814,0.0
22.55202,0.08013404235316456,0.0
22.556163999999995,0.08630383557831245,0.0
22.560248,0.09359229547834193,0.0
22.564376,0.09886487182847799,0.0
22.568512,0.10503466505362587,0.0
22.572652,0.11120445827877376,0.0
22.576792,0.10975361690408758,0.0
22.58088,0.11289958480439538,0.0
22.584968,0.12209320335438334,0.0
22.5891,0.12657928772944246,0.0
22.593236,0.13386774762947193,0.0
22.597364,0.14115620752950137,0.0
22.601496,0.14419145052987428,0.0
22.605624,0.1486775349049334,0.0
22.609764,0.15159063532983863,0.0
22.613904,0.15382796867960175,0.0
22.618036,0.1531522016044597,0.0
22.622164,0.14370740667053977,0.0
22.6263,0.13437333663655468,0.0
22.630432,0.12730632653639495,0.0
22.634524,0.12304169196120557,0.0
22.638668,0.1181012903108741,0.0
22.642812,0.11114500511064927,0.0
22.646956,0.10900697898528813,0.0
22.6511,0.10328008535987974,0.0
22.655252,0.09755319173447136,0.0
22.659396,0.09462867363403327,0.0
22.663548,0.08630254537499489,0.0
22.667684,0.07495259179111641,0.0
22.671816,0.06754198931561925,0.0
22.675951999999995,0.05811550329022867,0.0
22.680088,0.052388609664820264,0.0
22.684172,0.050693483139198636,0.0
22.68826,0.050017716064056555,0.0
22.692288,0.05495811771438801,0.0
22.696376,0.06327735474042986,0.0
22.700508,0.07688058579214063,0.0
22.704592,0.0966947543285944,0.0
22.708676,0.1183261919661375,0.0
22.71276,0.14219948939598004,0.0
22.716792,0.16946303987706587,0.0
22.720876,0.20438147798458428,0.0
22.724968,0.24616831174345838,0.008174048773406216
22.729056,0.28709218165391925,0.016954040898914294
22.733208,0.33735464804090154,0.02563405373671654
22.737304,0.39684498600447027,0.034192574812454045
22.7414,0.4645552537696789,0.04269716816973403
22.745496,0.5458870614951277,0.05092342436353927
22.749588,0.6325256985973111,0.05938227560572441
22.753676,0.7274766814925397,0.06775246942371232
22.757764,0.8262722347142841,0.07637309603778322
22.761856,0.928912358262544,0.08500747334075988
22.765948,1.0362942690123313,0.09360400950829202
22.770032,1.1514303746129535,0.1020094717081916
22.774116,1.2700560404892207,0.1103524316403186
22.778203999999995,1.3936221080158195,0.11855982134143374
22.782248,1.5198798261674535,0.12666153657753476
22.786344,1.6456832270438153,0.1347339080346037
22.79044,1.772483152019591,0.14279467563943155
22.794536,1.8959042416196565,0.15092934658108775
22.798632,2.015492178568739,0.1590144766992891
22.802728,2.130571195791697,0.16708503008488115
22.806824,2.239789759138245,0.166981534697067
22.810916,2.346958185908302,0.1662386560279348
22.815012,2.447479666826873,0.16556270565676912
22.819112,2.5387732761688575,0.16504129803740758
22.823208,2.621060463734125,0.16458965870338385
22.8273,2.6897444202476817,0.16450072327402543
22.831396,2.7560346478094093,0.16404218087742825
22.835488,2.811867612219734,0.16377492358783477
22.839628,2.8687849902783413,0.16303981754002173
22.843716,2.9178260309106463,0.1623748333160776
22.847812,2.9584256919414416,0.16178049106148396
22.85196,2.9909275657460648,0.16134442194061688
22.856044,3.019031244724498,0.16087230058664476
22.860192,3.035681136452115,0.1607178649087859
22.864288,3.045252600404038,0.16072053883308382
22.86842,3.052796763130536,0.16072030135308674
22.872504,3.0582028997316724,0.1607332344305774
22.87664,3.0678622532324655,0.1605101927211635
22.88078,3.075948622783105,0.1603221200003939
22.884912,3.0843671670335486,0.16008680524481872
22.88906,3.09615312898417,0.15976411780603514
22.893196,3.108725582909869,0.15943251361889577
22.897332,3.120290095060621,0.15914991017207467
22.901468,3.134546257836408,0.15877680013761458
22.9056,3.1522805632123077,0.15830393599048292
22.909732,3.1723743445134382,0.15777764161317837
22.91386,3.192357400914633,0.15729128542284673
22.918008,3.2181666581656394,0.15656781437541897
22.922144,3.2381497145668345,0.15610226908901043
22.926272,3.260370104317793,0.15551234149094456
22.9304,3.285282144693788,0.15483909601803283
22.934536,3.307281084644877,0.15427873297681732
22.938664,3.325137532596244,0.15391388981091397
22.9428,3.350836064947315,0.15321908849093635
22.946944,3.3775425390733327,0.15247285203381614
22.951088,3.4056998545740367,0.15164145338657437
22.955228,3.4340786198746107,0.1507844254401355
22.959364,3.459876459450084,0.15002800368008157
22.963452,3.4839905901754684,0.14930966516216926
22.967596,3.5063102871508285,0.14865314541167185
22.971736,3.527278449975906,0.14800932973527264
22.975884,3.546452179050958,0.14742179931270352
22.980024,3.564950141050869,0.14682751030627283
22.984156,3.5836695528506493,0.1462170141216785
22.988236,3.597116388300294,0.14574526314125383
22.992372,3.6107846735498077,0.14524257564981144
22.996456,3.6198561495243275,0.1448838431743576
23.000592,3.6232121495489724,0.14472179303379384
23.004676,3.6284733082235756,0.14449512113458052
23.008808,3.632837250023167,0.14429466489531256
23.012888,3.6328258323476343,0.14420299151453525
23.017024,3.6341545311468533,0.14402670866942457
23.0211,3.638728505070781,0.143700019799395
23.025236,3.6385949448197805,0.14353095441720373
23.029316,3.6403665432187386,0.14329933160666558
23.0334,3.6355254487928095,0.1432821837081708
23.037484,3.6301193121916726,0.1432451220050802
23.041568,3.617424715690507,0.14342106850622255
23.045648,3.6058487858642216,0.14354316557898716
23.049732,3.592699872087784,0.14368687809004027
23.053816,3.5776457996613864,0.14388996554069747
23.057896,3.566734219234711,0.14391736713722345
23.061976,3.556609130783113,0.1439355775670322
23.06606,3.5417765081565857,0.14410264121543276
23.070136,3.5322164618801946,0.1441396827629263
23.074224,3.52668818270359,0.14402228450027874
23.07826,3.522167845301932,0.1438669894235714
23.082344,3.517979682600079,0.14366770917054308
23.086432,3.5130050279231493,0.14347794392363952
23.090524,3.5079196483462844,0.1433024728156733
23.094616,3.5082175700194904,0.1429843817104364
23.098704,3.509977750742916,0.14266225464116614
23.102792,3.5121922487416137,0.14237666363316678
23.106884,3.518449931515631,0.14203451216424548
23.111036,3.524043264890038,0.14178016884412298
23.115124,3.5370472007399436,0.14140263278710613
23.119208,3.551635538215535,0.14109916069688247
23.123296,3.575993954091855,0.14063717544437881
23.127332,3.6050827394941685,0.14021684866269685
23.131428,3.64238003702259,0.1397587396851065
23.13556,3.685083471152148,0.1393436650366191
23.139652,3.7281533330081094,0.13915907981190723
23.143804,3.7801074740653196,0.13894781224763625
23.147943999999995,3.8439811373241524,0.13867363814680556
23.152072,3.9134938046595233,0.13850295946676502
23.156156,3.9896648355219138,0.13849425955741623
23.160288,4.080004139611223,0.13843691706457462
23.164372,4.1888870764025725,0.1382681036656267
23.168516,4.307120027345977,0.13816467323699969
23.1726,4.435932384016253,0.13807853698938355
23.176732,4.572521770888429,0.13809288888390658
23.180816,4.722038621737174,0.13806218092677322
23.184948,4.879099635312415,0.1380659563317224
23.18908,5.040337393913978,0.13814944241903487
23.193224,5.210791606416594,0.13818280212681133
23.19736,5.388778563970176,0.13820778442836448
23.201488,5.577211366999628,0.13815293045209917
23.205616,5.772046830729631,0.13806572685805726
23.209748,5.970249712159812,0.13794689445187092
23.213832,6.16946053536494,0.13782194687559443
23.217964,6.36642260754477,0.13768937927650182
23.222048,6.56337326204907,0.1374860203842794
23.22618,6.75828519765241,0.13725237858344846
23.230328,6.945431520729384,0.13700598424868793
23.234464,7.1278360566048296,0.13669468206162877
23.238592,7.300558403628417,0.13636086607156042
23.24272,7.4590017525251495,0.13607574796896899
23.246852,7.599577235794982,0.13589296869866693
23.250976,7.732818588462655,0.13562354336493695
23.255116,7.859180127803441,0.13529536696576913
23.259264,7.976978144967248,0.134921870212773
23.263396,8.080951481279474,0.13460781212708411
23.267532,8.17861004644002,0.13424438631454758
23.271671999999995,8.270629607524027,0.13383089100720907
23.275763999999995,8.352081180556693,0.13344801581720303
23.279855999999995,8.421170331788,0.13311398019855525
23.283996,8.478794278092955,0.13282111368886776
23.288092,8.525518061646766,0.13257331729510374
23.292228,8.565827766824496,0.13232302493488105
23.296376,8.599280494026402,0.13209224830074162
23.30046,8.630140877827676,0.13184429536600167
23.304548,8.65919541020339,0.13157882519026015
23.308636,8.681747974654158,0.1313902493971526
23.312728,8.704411264004856,0.1311966722388074
23.316816,8.72595588668067,0.13102595498136813
23.320908,8.747168334656683,0.13087313069676001
23.324996,8.770064491482785,0.1307085841216524
23.329092,8.79284992340895,0.13054884959647517
23.333184,8.814295238860364,0.13042227164327758
23.337276,8.831254469936718,0.13033985404927645
23.341408,8.847992251213205,0.13027005974810152
23.3455,8.866856640939519,0.13016691667551597
23.34964,8.886839697340713,0.13004671284820107
23.353728,8.907044203541778,0.12991680702306235
23.35782,8.92937531819267,0.12975455154917614
23.361892,8.95461953326847,0.1295569952674954
23.365984,8.978069314594247,0.1293757771054885
23.370072,9.003756429269785,0.12915716900917495
23.37416,9.027649110195297,0.12895598615434786
23.378252,9.051873965820617,0.12873919392709254
23.38234,9.07945482147058,0.1284680207083289
23.386436,9.104676201195314,0.12820582459426486
23.39058,9.131902046794409,0.12788257479119253
23.394664,9.161586675543134,0.12751494913685943
23.398756,9.191935653691472,0.12711907188184315
23.402848,9.223735473214495,0.12669087419270617
23.406936,9.259567059837304,0.12621576717523675
23.411024,9.300438355334844,0.12567977125320445
23.415112,9.345562867732044,0.12508880884793958
23.419204,9.395505639204107,0.12444984727632755
23.4233,9.445780585375974,0.12380019835703915
23.427436,9.49605553154784,0.12315591338290269
23.43152,9.542520160419793,0.12255562824135807
23.435612,9.586968905741848,0.12198218359213245
23.439704,9.631417651063906,0.12141337577139585
23.443856,9.675079904410884,0.12084981180134582
23.447992,9.7237818666326,0.1202305330637001
23.452128,9.773270320829388,0.11961570625714071
23.456216,9.825561150551147,0.11897937812769371
23.460356,9.87942496422306,0.11834417820426948
23.464488,9.934185994769987,0.11771359427631627
23.468624,9.994551776366853,0.1170422175846654
23.472764,10.051561557939076,0.11642197282738743
23.476904,10.10924710658644,0.11581545188901753
23.48104,10.162679438334147,0.11526534022181187
23.48512,10.216787537156996,0.1147240414424188
23.489204,10.266974593779995,0.11422701610384609
23.493344,10.315932258828175,0.1137566768476909
23.49748,10.357945056351666,0.11335901981046954
23.501616,10.397720520525391,0.11299611031629628
23.505696,10.436266593124303,0.11265520354396738
23.509832,10.474812665723213,0.11231714789534325
23.513908,10.517058330722106,0.11195452787562105
23.518048,10.566138138345753,0.11153490998505934
23.52218,10.617012379719426,0.11110900314945522
23.526316,10.667886621093102,0.11068539113728866
23.530444,10.716412804217073,0.1103000952750889
23.534572,10.76695487089094,0.10990124186741147
23.5387,10.816599720689798,0.10951148702050208
23.542828,10.866908919888264,0.10910001344863923
23.54696,10.911502643136853,0.10873575047481523
23.551096,10.950270165535633,0.10842287954821808
23.555236,10.993069455034199,0.10807388852109136
23.55938,11.032169152132784,0.10775237666592086
23.563476,11.077427224780983,0.10737368900337585
23.567616,11.12111231347903,0.10699894987898254
23.571704,11.167145460426772,0.1065962496824637
23.575796,11.211605623424362,0.10619745469221428
23.579884,11.262002712171697,0.10575075642722716
23.584024,11.313850642293716,0.1052822613409748
23.588164,11.366141472015476,0.10479903991087723
23.59226,11.419550968412118,0.10430727233080717
23.5964,11.468363655533768,0.10384495200991174
23.600544,11.511571591605472,0.10342382603903216
23.604676,11.55219860195208,0.10301521906814831
23.60876,11.594952220748514,0.10258881441855294
23.612844,11.63814873914469,0.10214882643559958
23.616932,11.674843289615911,0.1017494235868397
23.621064,11.708956914362032,0.1013599290012796
23.625148,11.740943930658323,0.10099394227150428
23.629232,11.772144454979541,0.10062734351653768
23.633316,11.80389860380043,0.10024129026478382
23.637412,11.834866260646244,0.09985838513626571
23.6415,11.864482383341775,0.09946847315929638
23.645636,11.885691379462392,0.09912835021189555
23.64972,11.907011100482944,0.09878563470719338
