Time,Force,Position
27.588391999999995,0.10392529828315057,0.0
27.59252,0.09943921390809148,0.0
27.596651999999995,0.09764478015806781,0.0
27.600732,0.09293724598313895,0.0
27.604812,0.08901620378328703,0.0
27.608892,0.09103208733318043,0.0
27.612976,0.09293724598313893,0.0
27.61712,0.09416663755795536,0.0
27.621195999999998,0.09618252110784875,0.0
27.625332,0.09920634643268884,0.0
27.62946,0.1039138806076177,0.0
27.633603999999995,0.11063729833243995,0.0
27.6377,0.11937659960715558,0.0
27.641792,0.13181549328185338,0.0
27.645879999999995,0.14469728655629063,0.0
27.650016,0.16060290515556802,0.0
27.654156,0.17438191530501715,0.0
27.658287999999995,0.1880502005545314,0.0
27.662376,0.20250497777912257,0.0
27.6665,0.21314943770379674,0.0
27.670631999999998,0.22760421492838792,0.0
27.674772,0.24026455840295546,0.0
27.678919999999994,0.2513519179273691,0.0
27.683052,0.26513092807681815,0.0
27.6872,0.2801393298010837,0.0
27.691352,0.2866298800505034,0.0
27.695495999999995,0.29401764717493495,0.0
27.699592,0.3033105729493249,0.0
27.703732,0.3072201974736439,0.0
27.707884,0.31213776377290964,0.0
27.712012,0.31515017142221685,0.0
27.716144,0.3181625790715241,0.0
27.720275999999995,0.31826188629592617,0.0
27.724408,0.3175747015452513,0.0
27.72854,0.31252357499498495,0.0
27.73268,0.3036621311448015,0.0
27.736816,0.2940141953195412,0.0
27.740943999999995,0.2776428417694587,0.0
27.74508,0.2649710806193583,0.0
27.749216,0.25308581144433484,0.0
27.753352,0.239184658719418,0.0
27.757488,0.22707793974452478,0.0
27.761628,0.21385255409475004,0.0
27.765764,0.20354026886988053,0.0
27.7699,0.19099065029524787,0.0
27.774031999999995,0.18505372454550256,0.0
27.77816,0.17821958192074544,0.0
27.782296,0.17026677262110676,0.0
27.786436,0.16668932279659232,0.0
27.790576,0.15908010587229107,0.0
27.794719999999995,0.15035222227310835,0.0
27.798872,0.13971918002396702,0.0
27.80302,0.13088057152484936,0.0
27.80716,0.11801019592594493,0.0
27.811312,0.10596295395380274,0.0
27.815452,0.09633785347960815,0.0
27.8196,0.08861791165537207,0.0
27.823736,0.08862932933090492,0.0
27.827868,0.08964868878138449,0.0
27.832008,0.09167599000681073,0.0
27.836148,0.09471123300718365,0.0
27.840276,0.09954090975758023,0.0
27.844408,0.11008606245785237,0.0
27.8485,0.11704234765807721,0.0
27.85264,0.12803039995808885,0.0
27.856783999999998,0.13700256870820707,0.0
27.860868,0.1459747374583253,0.0
27.864952,0.15326319735835475,0.0
27.869092,0.15965444038337237,0.0
27.873228,0.16795084205834854,0.0
27.877364,0.17747663530814112,0.0
27.881456,0.186780978758064,0.0
27.885587999999995,0.1972039888828684,0.0
27.88972,0.20392740660769063,0.0
27.893856,0.2158753413554308,0.0
27.897996,0.22540113460522337,0.0
27.902096,0.23291104430512258,0.0
27.906196,0.23851579535506326,0.0
27.9103,0.23952373713000996,0.0
27.914436,0.2358241447300278,0.0
27.918523999999994,0.23111661055509894,0.0
27.922663999999997,0.2247253675300813,0.0
27.926755999999997,0.21272937345512297,0.0
27.930892,0.20040120468036007,0.0
27.93498,0.184532227732768,0.0
27.939072,0.16877397568511085,0.0
27.943159999999995,0.15301572363745367,0.0
27.947299999999995,0.13905190533982015,0.0
27.95134,0.12519881194212149,0.0
27.955427999999998,0.1114564434443577,0.0
27.959516,0.09760335004665904,0.0
27.963604,0.08584022344710332,0.0
27.967696,0.0757608056976364,0.0
27.971788,0.07767738202312775,0.0
27.975876,0.07623795832397443,0.0
27.979968,0.07514212700015856,0.0
27.98412,0.07596287200183408,0.0
27.98826,0.07646285997923781,0.0
27.992396,0.07933374155740526,0.0
27.996488,0.09208542643623562,0.0
28.000632,0.10867026396604872,0.0
28.004728,0.1265187460972768,0.0
28.008824,0.1505598568047185,0.0
28.01292,0.17989637921336193,0.0
28.017015999999995,0.2177369467962317,0.0
28.021107999999995,0.2622244602305873,0.009638554413166578
28.025204,0.31605057014146437,0.018814065306614364
28.029296,0.3789938267289931,0.027751524435318593
28.033439999999995,0.452959388643132,0.03631842133680053
28.037592,0.5358206474340528,0.044837602257560595
28.041732,0.6244430528769805,0.053627670569466046
28.045816,0.7216770398241038,0.0625212392942048
28.049948,0.8281617336988791,0.07141390028953407
28.054032,0.942335568226686,0.08029826634791941
28.058115999999995,1.0737357543328494,0.08908710738563311
28.062204,1.2290857097421914,0.09761124861806234
28.066296,1.403334307904446,0.10600670855448353
28.070384,1.5986195749449745,0.11431300287373844
28.074524,1.8198704948385749,0.12239872647031932
28.078603999999995,2.0558775654853663,0.13045885186307105
28.082743999999995,2.3163880299350113,0.13835088008382285
28.086876,2.5990424122622784,0.14618583031875781
28.091012,2.899698220467446,0.15400308972086238
28.095151999999995,3.22002774572507,0.1617530671889708
28.099288,3.5497187028102823,0.1695571272731911
28.10338,3.8953723668724356,0.16765405757437193
28.107516,4.248470886436685,0.16624932384397612
28.111648,4.614053970377763,0.16503949636239862
28.115783999999994,4.988089851595885,0.16420029545038006
28.11992,5.3744995722909,0.16338832035743867
28.12406,5.776639132487456,0.16227597236177627
28.128204,6.188880945784544,0.16101968183831203
28.132344,6.603703684806733,0.15977062239836348
28.136476,7.0182821386779874,0.15850939156438074
28.140563999999998,7.425759329422484,0.15733455961263138
28.1447,7.823210738939784,0.15637443872497864
28.148788,8.211987901380171,0.15551699043080514
28.15292,8.591281489417504,0.15467884752062291
28.157052,8.947755392502073,0.15408123261719234
28.161196,9.290481086608397,0.15347923068821615
28.165292,9.611715794561176,0.15300945397917137
28.16944,9.916609950135076,0.1525370124690117
28.173583999999995,10.207290161779925,0.15201249960619173
28.177728,10.478273821021254,0.15153215845205129
28.181876,10.73807877933391,0.15095679996846734
28.18602,10.981000978443543,0.15042212921811368
28.190168,11.214096010774783,0.14980589928788968
28.194308,11.426830141302892,0.14923953034382137
28.198444,11.622780819852382,0.1486530025892544
28.202576,11.79880207852295,0.14806429920975986
28.206707999999995,11.957696292839561,0.1474509588255658
28.210844,12.098356213802868,0.14685180166755551
28.214976,12.228635343488106,0.14620104424968697
28.219116,12.347094258196126,0.1455541807433949
28.223244,12.458673359577258,0.14488358514575977
28.227384,12.556771372482146,0.14427698069785108
28.231524,12.648665339135288,0.14364990098362174
28.235664,12.72753253458746,0.14309498799524453
28.239812,12.807041244088174,0.14246884948670563
28.243948,12.880700917388012,0.14185522245306456
28.248072,12.946949988212353,0.14128189615610232
28.2522,13.008258657386364,0.14074105778704687
28.256328,13.061603099585204,0.14026238296435217
28.260455999999994,13.113706732533693,0.13978142662199736
28.264592,13.161767180706864,0.13932208991136844
28.268732,13.209140444129359,0.13884285383885384
28.272872,13.249103105076356,0.138400728144954
28.277008,13.293196840347543,0.1378937641551208
28.28114,13.337057708143327,0.13737361580715868
28.285291999999995,13.384728893239025,0.13682664504347314
28.289436,13.426352427685046,0.1363411002433453
28.293588,13.468541004306273,0.13586360806599035
28.297724,13.510508131127631,0.13539890242448402
28.301856,13.554036824223608,0.13490961013881064
28.306,13.592292940969452,0.13445301281101013
28.310132,13.635134449314755,0.13394157528478717
28.314267999999995,13.67281410620986,0.13346044586539593
28.318407999999994,13.710936662704704,0.13296438709989072
28.322552,13.744806002299889,0.13251603283356733
28.326688,13.780691225444968,0.13205192871217636
28.330764,13.821173257865043,0.13155751908423496
28.334899999999998,13.858410015160405,0.13109896531182252
28.339032,13.896433264430845,0.13063940918203598
28.343167999999995,13.933670021726208,0.13018460681401853
28.347307999999995,13.971914720796518,0.12972362665194828
28.351396,14.006238377666975,0.12929850074353086
28.355532,14.045502436187764,0.1288579403859395
28.359672,14.083094203533996,0.12845261363684854
28.363799999999998,14.121705330330713,0.12806474139551205
28.367928,14.154723123753017,0.12774003351124888
28.372059999999998,14.193799985500537,0.12738751091538988
28.376188,14.235236323173286,0.12703292761210708
28.380319999999998,14.27544326927122,0.12669677388004
28.384464,14.316448125019763,0.12638524531519665
28.3886,14.366203699718554,0.1260339505979224
28.392744,14.414741300518061,0.12572310291509084
28.396836,14.46777640336816,0.12541252018447108
28.400928,14.525530458068722,0.1250955803368641
28.405072,14.584857496719437,0.12477661665937778
28.409219999999998,14.645425344620504,0.12446896956410124
28.413352,14.707455451571786,0.12416554725507394
28.4175,14.77743836782271,0.12380465673916477
28.421632,14.848429225848577,0.12343766521695217
28.425767999999994,14.92211173449948,0.12306113720050452
28.429907999999998,14.994897026275373,0.12269252750654701
28.43404,15.066563651376384,0.12233585055746495
28.438172,15.135981525452097,0.12198318099749782
28.442308,15.205731574227618,0.12162490912895373
28.446452,15.277153914177694,0.1212441935010276
28.450588,15.352375153752153,0.12081977562527405
28.45472,15.426577033876134,0.12038609341238767
28.458852,15.499759554549634,0.11994314994153955
28.462992,15.573384974822872,0.11949096785853111
28.46714,15.644085876995675,0.11903962760667376
28.471276,15.70995710241808,0.11860293294640374
28.475403999999997,15.78007012706461,0.11811520447982445
28.479531999999995,15.847369358510637,0.11762510577013505
28.48366,15.915554389156142,0.11711582500615261
28.487788,15.98530098607627,0.11658714861247382
28.491928,16.0527988319711,0.11606190716740887
28.496068,16.115245551315663,0.11555309138296561
28.500211999999998,16.17085812803547,0.11509025513309577
28.504352,16.22916235538031,0.11461932117681607
28.508492,16.284996381899987,0.11415750624018241
28.512636,16.344530000819645,0.11368192328622065
28.516776,16.40741961976395,0.11317954932423563
28.52092,16.470309238708253,0.11268001541860855
28.525052,16.532080190977673,0.11219371644933114
28.529187999999998,16.586906275722402,0.11175210538696197
28.533328,16.643194619517352,0.11131616196723276
28.537404,16.700048005487506,0.11088904148751043
28.541539999999998,16.754774783007836,0.11048001878822397
28.545672,16.80558051832831,0.11009465174695597
28.549816,16.8572834705238,0.10970770569195483
28.553956,16.90663836446959,0.10934328607267631
28.558092,16.94950270816596,0.10903029101514823
28.562227999999998,16.992932094037535,0.10872390141893314
28.566364,17.03110032123451,0.10845567384743508
28.570504,17.067363389781523,0.10819837954394786
28.57464,17.104523675203552,0.10793948990970527
28.578775999999998,17.148075203650595,0.10765695210344345
28.582916,17.196444991172505,0.10735173771720541
28.587048,17.242344577869247,0.10705273938667384
28.591148,17.288698481841262,0.10676342817040685
28.595244,17.332139285388372,0.1064915012633905
28.599367999999995,17.37401852266086,0.10624065018025101
28.603492,17.41758146878344,0.10598825446224915
28.607532,17.460468647830876,0.10573495111073493
28.611564,17.508960577928253,0.10545884507436211
28.615652,17.554650132500658,0.1051963453215145
28.61974,17.594513486223253,0.10496293129238424
28.623871999999995,17.636957765670946,0.10472471582901834
28.628,17.68242587044348,0.10447028423129845
28.632128,17.731482842716062,0.10420661091353753
28.636212,17.784571582088436,0.10392222458421421
28.64034,17.84180281346053,0.10361457887818307
28.644468,17.901049928382513,0.10329809265600803
28.6486,17.962534376654265,0.10296635933163707
28.65274,18.027718417325993,0.10262342398735905
28.656832,18.092005241122717,0.10228552453106411
28.660972,18.153821864094265,0.10195408664183911
28.665108,18.21204961956577,0.10163580388677033
28.669248,18.27341192526205,0.10130216569468355
28.673392,18.329833829308,0.10097474828505776
28.677488,18.382101823678692,0.10065371734257578
28.681628,18.43021590837413,0.100338169326915
28.685768,18.478772892669312,0.10001504295747461
28.689908,18.52485967613932,0.09969564141898578
28.694043999999995,18.568919158383913,0.09937057608401728
28.698172,18.613642990028115,0.09903199559069477
28.702308,18.6650788217216,0.09864931431536206
28.706392,18.71359013531465,0.0982634196283784
28.710467999999995,18.767362607582303,0.09785135344657507
28.7146,18.815186736424675,0.0974511448475092
28.718736,18.861437881316892,0.0970533093435771
28.722872,18.90611604225896,0.09665774812529956
28.727012,18.947537510400785,0.09626601711900681
28.731144,18.987385994592454,0.09587525221029124
28.73528,19.02296984420893,0.09549310284483141
28.739415999999995,19.05698070987526,0.09511174640776214
28.743544,19.08841064981648,0.09473621581549006
28.747675999999995,19.120959256432588,0.09435486563189419
28.75182,19.150484037723857,0.09398966966808105
28.755916,19.187408003815086,0.09360333285249964
28.760047999999998,19.233747038256173,0.0931881762014039
28.764176,19.289722590846985,0.0927393202282259
28.768304,19.346927535012618,0.09228526387921582
28.772432,19.40581618802834,0.09183046028084281
28.77656,19.465269883219268,0.09138275989787037
28.780695999999995,19.525510070385273,0.09093816926657221
28.784792,19.58530735795154,0.09050679171835978
28.788927999999995,19.647685571242906,0.09007401480413099
28.793067999999995,19.70334036680945,0.08966765619681355
28.797159999999995,19.76381342145086,0.0892469947749168
28.801304,19.82361070901712,0.08882586462907312
28.805396,19.88082707085829,0.08840969387966785
28.809532,19.937146215824445,0.08799638881393962
28.813672,19.995924143940233,0.08756774363933803
28.817812,20.056042188530768,0.08713004198117721
28.821952,20.118619016270937,0.0866772756856675
28.826092,20.183543902260805,0.08621197009387174
28.830224,20.24554427015024,0.08574185754595735
28.83436,20.30473084483917,0.08526447344341302
28.838492,20.36110362632759,0.08478165946528363
28.842624,20.41096302221553,0.08430292141197869
28.846768,20.457111408027952,0.08382102051668228
28.850904,20.492603916240167,0.08335714923154303
28.85504,20.52841718147666,0.0828721460398252
28.859172,20.563764711762342,0.082365750934985
28.863308,20.59562268177238,0.08184896763200171
28.86744,20.624999033281718,0.0813187911021453
28.871516,20.65390964984025,0.08076801614684823
28.875647999999995,20.679219981223206,0.08020708316187228
28.879787999999994,20.69834910170547,0.07963957977049281
28.883924,20.714099386812038,0.07905801242300056
28.888055999999995,20.73117837071782,0.07845137227914756
28.892184,20.750815444997638,0.07781231952785256
28.896264,20.770441101601918,0.07716004440536119
28.900399999999998,20.78904739875572,0.07649695548360068
28.904532,20.805737119584037,0.07582466591007192
28.908659999999998,20.81849438053696,0.0751490313185513
28.912796,20.833931874439394,0.07445509020591863
28.916892,20.850144442641366,0.07374676231042962
28.921028,20.863211042943032,0.0730355924612572
28.925168,20.869099908244607,0.0723322326783024
28.929208,20.870834863870922,0.071629099922405
28.933348,20.87783097817184,0.07090442462969725
28.937387999999995,20.88336483342254,0.07017644889933439
28.941527999999995,20.885309821173195,0.06945264619519774
28.945571999999995,20.891397300923572,0.06871611986142787
28.949663999999995,20.891536437248668,0.06797920719877175
28.953803999999995,20.884830013273472,0.06724282208329087
28.957951999999995,20.880017330272707,0.0664853034270535
28.962088,20.868924129146862,0.06573002615816535
28.96612,20.849977425945767,0.0649733976755841
28.970208,20.81678597764443,0.06422198952443584
28.9743,20.768120392668017,0.0634821197567885
28.97834,20.69669221111651,0.06275873258532579
28.982475999999995,20.612137951139626,0.06203259295423084
28.986567999999995,20.506836978137535,0.06131412215520677
28.990659999999995,20.383813117435082,0.060593391693583444
28.994748,20.239034601932467,0.059880455169003845
28.998888,20.07418514047979,0.05917463800622398
29.00298,19.89206710860202,0.05847117217776762
29.007068,19.6986174320489,0.057753539050445155
29.011156,19.483978142870836,0.05704341183392548
29.015248,19.248149241067825,0.05634032095572885
29.019336,18.991020001739933,0.055644782254032646
29.023471999999995,18.717630133761894,0.05494135244549304
29.027512,18.413192685209307,0.0542627548739575
29.031548,18.092395300782172,0.05359378995718181
29.03558,17.75266847243092,0.0529519638138799
29.039667999999995,17.390877649930776,0.05234841446252175
29.043759999999995,17.015540684756584,0.051772063043710154
29.047792,16.63282737013349,0.051223022909959455
29.051876,16.248796774386715,0.05070633789334833
29.055964,15.85907353804113,0.050220531580933356
29.059995999999995,15.476772321846573,0.04975032965141771
29.06408,15.088557015253341,0.049318508022920836
29.068108,14.707542279011264,0.048909579064773126
29.072132,14.330593562895574,0.048538154091100204
29.076163999999995,13.958829533581152,0.048199357147040524
29.080192,13.59448752441776,0.047882169632795686
29.08422,13.233978667905351,0.04758786609643915
29.088304,12.874844180894293,0.047338919592690126
29.09234,12.525258322484092,0.04710529137783302
29.096367999999995,12.182418717149776,0.04689393503090529
29.100408,11.84520669821647,0.04671493085059096
29.104444,11.507796064834357,0.04658278468735905
29.10848,11.179258292977964,0.04647252368929522
29.112572,10.854885848472358,0.0463920736217807
29.116608,10.540837106867153,0.04631836608020087
29.120652,10.237222793062285,0.04625128147027735
29.124684,9.942469923107602,0.046182449058056296
29.12872,9.653554671678263,0.04612701663765004
29.132852,9.366433853998947,0.04606657419906045
29.136887999999995,9.088174480169814,0.04600770875670937
29.140971999999994,8.808685714765865,0.045956319136536486
29.145004,8.535477467486999,0.045902727857485295
29.149092,8.263842204158287,0.045854015709528614
29.153179999999995,7.996017258129492,0.04579192664604284
29.157212,7.734583555125713,0.04572038081978207
29.161344,7.473825619197077,0.04565276584649097
29.165427999999995,7.214529942318659,0.04559706598691282
29.169564,6.959044582740161,0.04552929600034142
29.173596,6.703792090637063,0.045496972329846674
29.17768,6.453922899784038,0.04545753687726026
29.181767999999995,6.211342168831042,0.04541166835196482
29.185796,5.976947114653085,0.045363829913131495
29.189884,5.7516349541251826,0.04530850264121328
29.193976,5.532714036622298,0.045244133902863304
29.198107999999998,5.31716053681959,0.04519267904039406
29.202196,5.10239352899196,0.04514799068833846
29.206276,4.893907039289411,0.04509320159907548
29.210368,4.686539216261745,0.04501156809133026
29.214455999999995,4.480744377184234,0.04494194200163797
29.218544,4.279767797181586,0.04481958433853326
29.22268,4.086190401978902,0.04465595760157069
29.226764,3.8951939325013187,0.04449399586140898
29.230899999999995,3.7058811718738243,0.04433342725345982
29.23498,3.522062437396335,0.04412736192359695
29.239064,3.3390301948939234,0.04390719606658027
29.243147999999994,3.1566737194666534,0.04369843545693099
29.247236,2.9827243706142945,0.043412553347012765
29.25132,2.815166264786953,0.04307138130581346
29.255408,2.653323634909488,0.0426625625355892
29.259536,2.4949591476321347,0.04221930185375382
29.26362,2.3386105439046743,0.041632697549750276
29.26776,2.189882574777048,0.04087886823231657
29.271839999999997,2.047656573574375,0.03999343032783954
29.275967999999995,1.9126083073717968,0.0390516113819999
29.280107999999995,1.7812596335692004,0.036808567672215256
29.28424,1.658993853416657,0.03456076237394424
29.288387999999998,1.536395898564309,0.03233089473249573
29.292524,1.4217621706871324,0.0301241414398646
29.296616,1.3162113364600092,0.02791391378976689
29.300752,1.2129092532581818,0.025758656548673126
29.304836,1.1108479793067034,0.023647949064863578
29.308928,1.018877540780225,0.021538657089691764
29.313008,0.9362114457036697,0.019431035231012698
29.317143999999995,0.8548968847773984,0.017379514037400023
29.321232,0.7779576833262514,0.015352470357238074
29.325324,0.7138009679251397,0.013318804993356893
29.329452,0.6499878448993653,0.011359670945927785
29.333548,0.5895421395737684,0.009461212861605893
29.337644,0.5336932435231657,0.0076089983848791325
29.341771999999995,0.4804252731976636,0.005804609042982081
