Time,Force,Position
30.537924,0.004596880682022295,0.0
30.542055999999995,0.007172115421113545,0.0
30.546187999999997,0.00885013328519297,0.0
30.550328,0.014338468449189432,0.0
30.55446,0.02262917913815623,0.0
30.5586,0.03170638180219998,0.0
30.562743999999995,0.04100503426611348,0.0
30.566892,0.05030368673002698,0.0
30.571031999999995,0.06161822274383386,0.0
30.57512,0.07102760010768222,0.0
30.579204,0.08323935299650093,0.0
30.583296,0.09645904766026633,0.0
30.587384,0.10788430857400808,0.0
30.591531999999997,0.1185230775126729,0.0
30.595616,0.1301697882262844,0.0
30.5997,0.13991134028993737,0.0
30.60378,0.14629116563942215,0.0
30.607927999999998,0.1537896576637885,0.0
30.612067999999997,0.16095597498835024,0.0
30.6162,0.172381235902092,0.0
30.620335999999995,0.18134198697667736,0.0
30.624472,0.18638169585141084,0.0
30.628612,0.19119995492627462,0.0
30.632692,0.18929479627631607,0.0
30.636776,0.18279282835136362,0.0
30.640856,0.17471787647625722,0.0
30.644935999999998,0.1682159085513047,0.0
30.649012,0.16182466552628705,0.0
30.653104,0.15051012951248013,0.0
30.657183999999997,0.14199227803763423,0.0
30.661268,0.13246648478784165,0.0
30.665352,0.11991686621320898,0.0
30.669487999999998,0.10849160529946723,0.0
30.673568,0.09785283636080243,0.0
30.677656,0.08620612564719092,0.0
30.681796,0.0770239247727358,0.0
30.68588,0.07097627412305565,0.0
30.690016,0.06571511544845243,0.0
30.694148,0.05686508927380191,0.0
30.698291999999995,0.04543982836006016,0.0
30.70242,0.035919726096276916,0.0
30.706508,0.029539900746792136,0.0
30.710595999999995,0.023043623807848974,0.0
30.714684,0.01946044729381103,0.0
30.718819999999997,0.018906822794136677,0.0
30.722959999999997,0.02014763204448597,0.0
30.727039999999995,0.01836461596999517,0.0
30.73112,0.016470874995569502,0.0
30.735256,0.018492485234986398,0.0
30.739391999999995,0.019511844685465945,0.0
30.743472,0.016825885046439823,0.0
30.747603999999995,0.016155808957307092,0.0
30.75174,0.018177419196723985,0.0
30.755824,0.020985521411217827,0.0
30.759972,0.024015073425581412,0.0
30.764056,0.02446939070085375,0.0
30.768139999999995,0.022907824426232695,0.0
30.772276,0.022354199926558346,0.0
30.776408,0.02672955940168259,0.0
30.780531999999997,0.03166427006600469,0.0
30.784623999999997,0.03771764740520837,0.0
30.788751999999995,0.04186013940493001,0.0
30.79288,0.05328540031867177,0.0
30.797008,0.06571860300736022,0.0
30.801148,0.07400358700680351,0.0
30.805284,0.08217784610631194,0.0
30.80942,0.09270016345551838,0.0
30.813551999999994,0.10602485632969513,0.0
30.817688,0.12125470785383044,0.0
30.821776,0.13771395095278216,0.0
30.825864,0.15317097896631068,0.0
30.829952,0.17154110740474443,0.0
30.834092,0.1841900332037791,0.0
30.838179999999998,0.1972818586025533,0.0
30.842332,0.2109387261765347,0.0
30.846472,0.22952457772531468,0.0
30.850559999999994,0.2499048630241183,0.0
30.854707999999995,0.2683799896729634,0.0
30.858844,0.28282334922202174,0.0
30.862928,0.296590941695938,0.0
30.867016,0.3110343012449963,0.0
30.871108,0.32794786161922035,0.0
30.875195999999995,0.3357899460189242,0.0
30.879332,0.343632030418628,0.0
30.883467999999997,0.3570788658682725,0.0
30.887604,0.366715384018,0.0
30.891735999999995,0.3753439603927808,0.0
30.895872,0.37937572749256754,0.0
30.900015999999997,0.37747056884260893,0.0
30.904152,0.3752332354928458,0.0
30.908232,0.37971931986790497,0.0
30.912364,0.3831974624680174,0.0
30.916447999999995,0.3950827316430408,0.0
30.920584,0.40473066746830116,0.0
30.924719999999997,0.41258416954353777,0.0
30.928852,0.41741384629393435,0.0
30.932992,0.41933042261942577,0.0
30.937132,0.41855534831988167,0.0
30.941264,0.41677233224539084,0.0
30.945395999999995,0.4158865330459119,0.0
30.949479999999998,0.41130114144645086,0.0
30.953612,0.40211894057199565,0.0
30.957736,0.39607128992231555,0.0
30.961868,0.3852053801977716,0.0
30.965959999999995,0.37097205277305023,0.0
30.970051999999995,0.36155698442319245,0.0
30.974183999999997,0.34900736584855974,0.0
30.978328,0.33724423924900404,0.0
30.982464,0.32570256244931806,0.0
30.9866,0.31046129324964994,0.0
30.990739999999995,0.2905181808610623,0.0
30.994884,0.26866990982251615,0.0
30.999028,0.2421141046090411,0.0
31.003176,0.21656624117051276,0.0
31.007316,0.19202631950693114,0.0
31.011452,0.1675971227432844,0.0
31.015587999999997,0.145183809529531,0.0
31.019724,0.1254621469408131,0.0
31.02386,0.10775636790198856,0.0
31.028,0.09251509870232043,0.0
31.03214,0.07738455440258715,0.0
31.03628,0.06685081937784787,0.0
31.040415999999997,0.05800079320319736,0.0
31.044548,0.054755518078487546,0.0
31.048676,0.05196456022905005,0.0
31.052812,0.048387110404535603,0.0
31.056948,0.04783348590486124,0.0
31.061088,0.0491850200551454,0.0
31.065216,0.057935739005393894,0.0
31.069343999999997,0.07172616683037586,0.0
31.073463999999998,0.08831327919431882,0.0
31.077596,0.10490039155826177,0.0
31.081736,0.12137677902226984,0.0
31.085871999999995,0.1366237749114615,0.0
31.090011999999994,0.15243581297586034,0.0
31.094148,0.16881289321546641,0.0
31.098288,0.18228829070570013,0.0
31.102436,0.19835603159656723,0.0
31.106576,0.21825692513841716,0.0
31.110724,0.24009150366730064,0.0
31.114856,0.27058891159756343,0.0
31.118992,0.3062710063290931,0.0
31.123124,0.34893222161191334,0.0071712276042011245
31.12726,0.39835110764615445,0.014339823897154234
31.131408,0.45733003995678656,0.02147980275579055
31.135548,0.5241967273692539,0.028703066120162227
31.139636,0.6019749952083968,0.03585651931531709
31.143772,0.6891032771995937,0.04311875125857618
31.147907999999997,0.7806525893680463,0.050586746681361844
31.152035999999995,0.8804446666892044,0.05823700129654277
31.156119999999994,0.9913926095879733,0.06592424934843519
31.160256,1.1186582695145542,0.07356299932816424
31.16434,1.2601264556946516,0.08139301902373222
31.168468,1.4247693368783836,0.08915973785257027
31.172611999999997,1.6080015214662895,0.0970449362196382
31.176688,1.8183522786087476,0.10485226767140851
31.180772,2.0630986505302547,0.11250320758232081
31.184852,2.3340549604557697,0.12008028469179292
31.188992,2.625039997484611,0.12765260560159544
31.193124,2.9364966612165193,0.13519125801505832
31.197264,3.266840550025807,0.14265011986735607
31.201384,3.612039896812688,0.1501073540554908
31.205472,3.9687387015525166,0.15044214677537532
31.20956,4.343438932170247,0.15074784535460684
31.213688,4.731654504290818,0.15110023023543562
31.217775999999997,5.131812433964076,0.15141070926322367
31.221864,5.548055213189746,0.15174132256979775
31.225956,5.976217514617034,0.15194588721139382
31.230044,6.417295862345364,0.15190840927116908
31.234171999999997,6.869373680049236,0.15164936003282822
31.238304,7.3307672588785655,0.15130481865312842
31.242431999999997,7.7956389803080075,0.15098141685179917
31.246571999999997,8.267211284111205,0.15040395105293874
31.250712,8.728093457287597,0.14989343435407348
31.254848,9.18498608221094,0.1492042972891683
31.258987999999995,9.6200441286054,0.14858745011992636
31.263076,10.026532761070621,0.14812424278744138
31.267211999999997,10.408262296906525,0.14771795062641352
31.271356,10.770959629738508,0.14729711323003286
31.275504,11.113395367991767,0.1468947238823089
31.279639999999997,11.433675770691869,0.1465709562092262
31.283792,11.73852425556364,0.1462252157336382
31.287927999999997,12.028261579631346,0.1458011952836456
31.29206,12.294579923544482,0.1453758381786184
31.2962,12.541621779302773,0.14488497087412242
31.300332,12.769719321606019,0.14431022565589174
31.304416,12.9698010744797,0.14377135918611375
31.30856,13.147261756849419,0.14324102212114811
31.312695999999995,13.302788553465852,0.14274696415847665
31.316832,13.438630215354296,0.1422841556456332
31.320967999999997,13.552095091889715,0.1418698458374373
31.325104,13.644412574646925,0.14148000192049448
31.32924,13.716036980901197,0.14112595686223295
31.33338,13.775608304702846,0.14074706342710158
31.337515999999997,13.819327646427489,0.14040341605188306
31.341652,13.85729725917566,0.14003830718464777
31.34578,13.891998761448058,0.1396634727773499
31.349912,13.922202761669856,0.1392967375811737
31.35404,13.948917201616014,0.13892906345931827
31.358172,13.970569097336373,0.13856412180238956
31.362308,13.988166390605878,0.13819148046820215
31.366443999999998,13.999460330399236,0.13781540781442808
31.370583999999997,14.003675842416902,0.13746027102951125
31.37472,13.999927127459394,0.13715386652527875
31.378856,13.995059745827003,0.1368616714071669
31.382943999999995,13.990425231670017,0.1365862352945538
31.387088,13.985126368113423,0.13633212270889536
31.39118,13.983305647156941,0.13605917413132718
31.395323999999995,13.983046492475077,0.13575903511653534
31.399472,13.981767978342736,0.13544533492281574
31.403611999999995,13.981375263409872,0.13510286661527884
31.407748,13.982101215151893,0.13474714565162735
31.411888,13.981265600619292,0.13441842998886921
31.415963999999995,13.984362445962075,0.13408045619174314
31.420103999999995,13.989154417830479,0.13375847466485707
31.424235999999997,13.99855461664941,0.13343001764050688
31.428376,14.010203566493637,0.13310005055451668
31.432516,14.025441383837912,0.1327493135168004
31.436604,14.038663317632292,0.1324169458833924
31.44074,14.054355452251835,0.1320762852359405
31.44488,14.074422946346505,0.13171372019122296
31.44896,14.097980000716825,0.13135810732276307
31.453095999999995,14.127042498912678,0.13099117113121414
31.457227999999997,14.166317975109003,0.1305791082921501
31.461312,14.203921160130768,0.13019881071162032
31.465391999999994,14.24287587930282,0.12982488308289641
31.469528,14.286427407749864,0.1294222923560554
31.473668,14.329868211296974,0.12902630731224302
31.477748,14.377241474719469,0.1286260153699508
31.481891999999995,14.42664203936739,0.12823342420891967
31.486023999999997,14.475832571890974,0.12787158628358855
31.490156,14.531536490015043,0.12749380382169415
31.494284,14.596101851989296,0.1270735148621517
31.49838,14.659216372588864,0.12667802489319932
31.502503999999995,14.725919760688477,0.12626618362206832
31.506632,14.788026339513097,0.12588465450032843
31.510772,14.854275410337438,0.1254720029894674
31.514916,14.918508597611886,0.1250783552699506
31.519051999999995,14.988346535936275,0.12465277989982623
31.523191999999995,15.057065807585783,0.12424064991368249
31.527324,15.121974761935373,0.12385615908502783
31.531468,15.183405573684851,0.12348861494732793
31.535604,15.245390009934003,0.12310872550573942
31.539752,15.307141578707752,0.12271925366466611
31.543896,15.369336047081239,0.12231795740821053
31.548027999999995,15.42816309775455,0.12192987467584089
31.552164,15.489006031977755,0.12153069458171954
31.5563,15.55007041600083,0.12112847145808842
31.560436,15.608664599198741,0.12073694270326162
31.564584,15.668709623771337,0.12032883576065963
31.568724,15.73222137326851,0.11988855263201184
31.57286,15.79068199621542,0.11946764423902859
31.576939999999997,15.843194275737051,0.1190706108574873
31.581024,15.897268121533301,0.11865329009858935
31.585164,15.94898249140432,0.1182420750764686
31.589304,16.002712744825235,0.11781795327600093
31.593444,16.048600913846442,0.11744621618067592
31.597516,16.095275574842727,0.11707488307239247
31.6016,16.139147860314043,0.11672133245870331
31.605732,16.184360262260114,0.11635335329842414
31.609868,16.2337151562059,0.11595692201975014
31.613952,16.286426050176335,0.11553294447133336
31.618092,16.33655601842167,0.11512049097438827
31.622228,16.381867727592137,0.11473846640967648
31.62636,16.431211203862397,0.11433274920091563
31.630484,16.482792013482417,0.11390944897485998
31.634576,16.530894680502325,0.11350090781336689
31.638704,16.57451126314717,0.11311167649463175
31.642832,16.61498187789171,0.11272673238944633
31.646967999999998,16.653093016711022,0.11234641555480505
31.651112,16.68952044668024,0.11197292277262609
31.655255999999994,16.729414601574042,0.111571389430003
31.659395999999997,16.766284931143005,0.11118922503341198
31.663543999999995,16.80158227676181,0.11081032688733204
31.667688,16.834630871355323,0.11043143143173612
31.671828,16.869241032223457,0.11003439092326064
31.675912,16.909333801566056,0.1095961143927187
31.680004,16.95412268740806,0.1091200368643925
31.684092,16.998457255974788,0.10863800524761712
31.688232,17.043910491216394,0.10815007991994381
31.692324,17.08498836698288,0.1076777099443784
31.696464,17.122366650349385,0.10722268233734121
31.700596,17.157053283090853,0.10677785436996458
31.704728,17.192072090532122,0.10632544429298965
31.708864,17.22159687182339,0.10589665981581993
31.712996,17.249437944264567,0.10547276230205052
31.717136,17.27649252473067,0.1050502067977346
31.721276,17.30768959719649,0.10460272519972344
31.725364,17.340681103412336,0.10415034586634145
31.729499999999994,17.37445910160326,0.10369983221850518
31.733636,17.406553390944097,0.10325411015500305
31.737716,17.432600029635246,0.10284383457644529
31.741795999999997,17.464129276800875,0.10239582164765718
31.745928,17.495547799066568,0.10195208981492902
31.75006,17.530555188832306,0.10149883233516739
31.754196,17.567246287448135,0.1010463958619197
31.758275999999995,17.604723878039042,0.10059733130900352
31.762407999999997,17.634359384230244,0.10018825856942815
31.766555999999994,17.667018715746284,0.09976573495654054
31.770692,17.698326513112043,0.09934032353944994
31.77478,17.734452569552662,0.0988961264809852
31.778912,17.77539688506815,0.09843332874921915
31.782999999999998,17.821270184558433,0.09794913683125936
31.787128,17.87049948407336,0.09744451646242064
31.791211999999994,17.923649825788143,0.09692438554893401
31.795336,17.98183987637766,0.09638287371277032
31.799468,18.040583551466845,0.09583048366921831
31.8036,18.0995486763559,0.0952767139854577
31.807739999999995,18.15996464261965,0.0947111176816599
31.811871999999997,18.219029074733104,0.09414284747898577
31.816011999999997,18.28044156509626,0.0935602634641043
31.8201,18.345431505283933,0.0929522069609666
31.824183999999995,18.410642895271472,0.09234440480000378
31.828224,18.47674008445849,0.09171982924519231
31.83232,18.539691305745205,0.09109723113766616
31.836456,18.5960184165315,0.09048255042076765
31.840591999999997,18.64841306744241,0.08986939787868364
31.844736,18.704385168177833,0.08923182833931537
31.84882,18.756203359238,0.08860074134368598
31.85296,18.807235058323087,0.08797199745356704
31.857104,18.857812440132903,0.08734044601855519
31.861248,18.905354578942347,0.08670823288432822
31.865396,18.9532288924516,0.08607313684290589
31.869484,18.999308772210828,0.0854454680950276
31.873616,19.043361350744632,0.0848121938424867
31.877751999999997,19.084046511578258,0.0841856517121035
31.881888,19.126636831061838,0.08355593911470083
31.886024,19.168329933670407,0.08293088052163314
31.890103999999997,19.20991231137904,0.08231147700803881
31.894243999999997,19.25059747221266,0.08169528811043451
31.898384,19.285677881996342,0.08109469710251879
31.902524,19.315264265630017,0.08050654227047899
31.906659999999995,19.33734073956379,0.07993892212804733
31.910804,19.353591012647755,0.07939016081413353
31.914939999999994,19.368833343956776,0.07884561356644351
31.91902,19.383854225465925,0.07830531014648044
31.923156,19.39618345635004,0.0777693973442261
31.927235999999997,19.407947645058947,0.07722957164475089
31.93132,19.41892534179278,0.07668928899521953
31.935455999999995,19.429448721251337,0.07614215505322883
31.939536,19.43301581550967,0.0756020140256773
31.94362,19.434555608542578,0.0750524997433616
31.947759999999995,19.426668915550092,0.07450765840897237
31.95184,19.410474403207093,0.07396030224318292
31.95598,19.39080174826399,0.07341495399908451
31.960064,19.367650950720773,0.07287184233441131
31.964144,19.34359151862701,0.07231347514444975
31.968292,19.318623451982702,0.07173935978371129
31.972427999999997,19.290055100162817,0.07115248798316647
31.976555999999995,19.265174923067377,0.07054250978111898
31.980692,19.248801179771256,0.06989772553538093
31.984779999999997,19.24172036224952,0.0692198369343529
31.988907999999995,19.240122153202257,0.06851642049962617
31.992999999999995,19.247141102854247,0.06777728340656898
31.997136,19.254480809530502,0.06701454620447558
32.001168,19.259338897706062,0.06623116214545222
32.00526,19.26138319268112,0.06543283768561926
32.009344,19.251874393180955,0.06463963737478753
32.013431999999995,19.236749424955324,0.06383565283687546
32.017564,19.209960637354534,0.06303685282110007
32.021652,19.17408895610369,0.062240740367387574
32.02574,19.126564873153228,0.06146477993193735
32.02986799999999,19.073325314252884,0.060691575466863705
32.03395999999999,19.017061930027705,0.05991912226441084
32.038087999999995,18.950031943302385,0.05914628085303439
32.042176,18.86663060302698,0.058379303613554236
32.04626,18.762493967401905,0.05763644479921303
32.050348,18.637732761327086,0.0569136348252898
32.05444,18.493244201677545,0.05620824853409244
32.058532,18.323423537403333,0.055528138530556645
32.062619999999995,18.12704137692964,0.054880183428945725
32.066748,17.903986995356522,0.05426540549576436
32.070871999999994,17.65638700113381,0.05367328497970219
32.074963999999994,17.381782611111884,0.05311867999851001
32.079096,17.08746228519076,0.05259452900299061
32.083236,16.77970654149552,0.05209861884040724
32.087376,16.460309813776195,0.05163102633080942
32.09152,16.134311810907512,0.051176263642526504
32.095659999999995,15.79443549066498,0.0507624538495307
32.099816,15.449530879223248,0.05036884142594866
32.103956,15.10419478585731,0.049992943150687794
32.108048,14.755059792866987,0.04963177418129951
32.112196,14.405604042852392,0.04928684943698887
32.116328,14.05011205986365,0.04896871800492779
32.120464,13.689038161176033,0.048690676490627416
32.124596,13.331232372964191,0.048429689496113176
32.128727999999995,12.979718520552964,0.0481771739376624
32.132864,12.635172371017495,0.04794166901031824
32.136944,12.297483199457849,0.04772803868578803
32.141084,11.967769672548911,0.047530127045743595
32.145228,11.642442922790627,0.04735058030341855
32.149316,11.321502950183001,0.04719242220984265
32.153403999999995,11.009546564001024,0.04705197626566929
32.157536,10.703882113619667,0.04693472764908506
32.161668,10.405628265713805,0.046831982869931586
32.1658,10.112204094558338,0.046741717892710206
32.169936,9.822712383278258,0.046667175931589436
32.174012,9.536034465198682,0.04661571285670112
32.178148,9.25955810744404,0.04654434323956921
32.182288,8.987124934464719,0.04648728984500317
32.186428,8.71065999438561,0.046444920836975705
32.19056,8.436443805331796,0.046421867607054634
32.19469599999999,8.160998224703167,0.04640879141198405
32.198828,7.890714495524739,0.046406472688264394
32.20292,7.630743051571179,0.046380743539672836
32.207007999999995,7.374028300417863,0.046369937273390116
32.21114,7.11776786653982,0.04637906388745226
32.215284,6.865096300161824,0.04638353045620047
32.219424,6.618926701708778,0.04636980054664159
32.223564,6.3751165791809665,0.04637820134509963
32.227704,6.139492133428194,0.04637687303385092
32.231843999999995,5.910148205800506,0.046380555358372474
32.235932,5.687195521197834,0.04637331622498857
32.240072,5.470966254319985,0.04633218113718159
32.244167999999995,5.257317913167235,0.04629980408812438
32.248312,5.047369164414468,0.04625218269042174
32.252404,4.838317632536712,0.04620722319909703
32.256496,4.635768068583911,0.04613935471266727
32.260588,4.43367282190638,0.046099510728453606
32.264688,4.234269225853886,0.04606521236621334
32.268784,4.043837798551509,0.04603924264687235
32.272924,3.8590111222990746,0.04599634457650186
32.277012,3.679457022396775,0.04596987021919548
32.281051999999995,3.500910864269422,0.0459316837169149
32.285148,3.322032531442264,0.04592833102130349
32.28924,3.148980399464918,0.04583844643363908
32.293336,2.9804143518626303,0.04575785777087269
32.29743199999999,2.8107296375854602,0.04570344850823224
32.301531999999995,2.6407127486084865,0.045694167108077416
32.305564,2.4773085524564,0.04562250398702532
32.309656,2.314469398479521,0.04563900275280991
32.313744,2.158353662227464,0.04549068848875366
32.317888,2.0028029681506134,0.04318703931126924
