Time,Force,Position
34.079567999999995,0.019681789983138312,0.0
34.083659999999995,0.014647772094414188,0.0
34.087748,0.009613754205690066,0.0
34.091835999999994,0.004690461216900813,0.0
34.095924,0.0037989353278983385,0.0
34.100004,0.0018994676639491693,0.0
34.104091999999994,0.0,0.0
34.108183999999994,0.0,0.0
34.112272,0.0,0.0
34.116347999999995,0.0,0.0
34.120431999999994,0.0,0.0
34.124516,0.0,0.0
34.128595999999995,0.004026076113777429,0.0
34.132676,0.007941427327619986,0.0
34.136756,0.009840894991569156,0.0
34.140848,0.014542738180488663,0.0
34.144932,0.02025252314435487,0.0
34.149016,0.026859524983232894,0.0
34.153096,0.0325693099470991,0.0
34.157176,0.03727115313601861,0.0
34.16126,0.04298093809988481,0.0
34.165395999999994,0.04880144796368589,0.0
34.16948,0.056527116477445474,0.0
34.173559999999995,0.06335556811619325,0.0
34.17764,0.07018401975494101,0.0
34.181728,0.07992557181859399,0.0
34.185812,0.08865918210730028,0.0
34.189947999999994,0.09739279239600657,0.0
34.194032,0.10623712758464773,0.0
34.198116,0.11205763744844881,0.0
34.2022,0.1206805228372202,0.0
34.206287999999994,0.13020062510100344,0.0
34.210424,0.13457598457612768,0.0
34.21456,0.14107795250108018,0.0
34.218695999999994,0.15362757107571284,0.0
34.222776,0.16158038037535155,0.0
34.226912,0.16841452300010867,0.0
34.23099199999999,0.173564956774777,0.0
34.235128,0.18331219982443933,0.0
34.239272,0.19496460152406017,0.0
34.243412,0.20549833654879945,0.0
34.247547999999995,0.21782650532356237,0.0
34.251676,0.2263443567984083,0.0
34.255759999999995,0.23575942514826603,0.0
34.259896,0.2459609854732007,0.0
34.264028,0.25425738714817686,0.0
34.268164,0.26445894747311155,0.0
34.272304,0.2764549415480699,0.0
34.276439999999994,0.2882294858231584,0.0
34.280564,0.3050437389729804,0.0
34.284696,0.31524529929791506,0.0
34.288819999999994,0.3274627431727431,0.0
34.292911999999994,0.3379964781974824,0.0
34.29704,0.34169607059746454,0.0
34.301176,0.33845079547275475,0.0
34.305311999999994,0.33677850429819883,0.0
34.309452,0.33420899624863115,0.0
34.313584,0.33231525527420547,0.0
34.317724,0.32492748814977396,0.0
34.321867999999995,0.3157452872753188,0.0
34.326007999999995,0.3067845362007334,0.0
34.330152,0.2919975842763376,0.0
34.334287999999994,0.2781078492269536,0.0
34.338424,0.2618643292383482,0.0
34.34256,0.24483431727466576,0.0
34.346644,0.22679636353603666,0.0
34.350724,0.2078611929223957,0.0
34.354851999999994,0.18713158855873108,0.0
34.358936,0.16651270909500138,0.0
34.36302,0.14387794608137824,0.0
34.36709999999999,0.12505350036767218,0.0
34.371232,0.10331595422906087,0.0
34.375316,0.08438078361541991,0.0
34.379456,0.07026387207664268,0.0
34.383536,0.05906006096277066,0.0
34.387671999999995,0.048077699648768395,0.0
34.391748,0.03810328010971282,0.0
34.395883999999995,0.02823958547059211,0.0
34.399967999999994,0.02017032458149505,0.0
34.404048,0.012998280567409815,0.0
34.408131999999995,0.005715511653389706,0.0
34.412212,0.0050397445782476265,0.0
34.416343999999995,0.00537191927805224,0.0
34.420424,0.008844370892155312,0.0
34.42456,0.014111256256282031,0.0
34.428644,0.018370199845462055,0.0
34.432784,0.019826767909671736,0.0
34.43691999999999,0.021283335973881424,0.0
34.441052,0.021283335973881424,0.0
34.445184,0.021283335973881424,0.0
34.449264,0.021283335973881424,0.0
34.453399999999995,0.021283335973881424,0.0
34.45748,0.021283335973881424,0.0
34.461616,0.021283335973881424,0.0
34.4657,0.021283335973881424,0.0
34.469835999999994,0.021283335973881424,0.0
34.47392,0.021283335973881424,0.0
34.478047999999994,0.023747845813037804,0.0
34.482192,0.026212355652194184,0.0
34.486272,0.031700690816190646,0.0
34.490412,0.037189025980187106,0.0
34.494499999999995,0.03618108420524041,0.0
34.498636,0.035062417530358846,0.0
34.502728,0.037975517955264056,0.0
34.506864,0.03640253400511015,0.0
34.510956,0.03494027495489112,0.0
34.515083999999995,0.03908276695461277,0.0
34.519212,0.04434392562921598,0.0
34.52334,0.05206959414297557,0.0
34.527432,0.06080320443168186,0.0
34.531516,0.07144197337034666,0.0
34.535644,0.08286723428408843,0.0
34.539736,0.09530043697277689,0.0
34.543868,0.10874158143641202,0.0
34.54796,0.12218272590004717,0.0
34.552096,0.13461592858873564,0.0
34.556231999999994,0.14312808907757216,0.0
34.560368,0.14816779795230564,0.0
34.56446,0.15219956505209242,0.0
34.5686,0.15309678192710424,0.0
34.572748,0.15298605702716936,0.0
34.576888,0.15769359120209822,0.0
34.581036,0.1627333000768317,0.0
34.585176,0.15903370767684955,0.0
34.589308,0.16004164945179625,0.0
34.593439999999994,0.1638519667517133,0.0
34.597524,0.16575712540167178,0.0
34.601656,0.16553567560180202,0.0
34.605791999999994,0.1622904004770922,0.0
34.609936,0.1590451253523824,0.0
34.614016,0.15198953292775555,0.0
34.61816,0.1461633320779451,0.0
34.622296,0.13921846455325307,0.0
34.626436,0.13115493035367956,0.0
34.63052,0.12129696240408236,0.0
34.634656,0.11244693622943183,0.0
34.638796,0.10964456070446149,0.0
34.642931999999995,0.10785012695443787,0.0
34.647015999999994,0.11109540207914768,0.0
34.65115599999999,0.11164902657882203,0.0
34.655288,0.11209192617856154,0.0
34.659428,0.11032032777960359,0.0
34.663563999999994,0.11733370135749269,0.0
34.667696,0.1389696654375721,0.0
34.671788,0.17087569589578336,0.0
34.67592,0.21542268633289008,0.009190518894918346
34.680007999999994,0.28035341392419405,0.01804437601148577
34.684152,0.3667979630201097,0.026921740081239046
34.688252,0.4814797513454592,0.03544882412619934
34.692344,0.6185725780504324,0.0438833084781174
34.696444,0.7785193427347685,0.05231706366992166
34.700536,0.9526914690236868,0.06093228644666848
34.704635999999994,1.145342173816844,0.06959899845118156
34.708768,1.3562500073143704,0.07833395132935642
34.712908,1.5914740378414785,0.08701720637616364
34.716995999999995,1.8492198316481452,0.09565767440098422
34.721135999999994,2.1296095313098378,0.10424171311815338
34.725227999999994,2.433086036426296,0.11280534532890996
34.729367999999994,2.752593754572893,0.1214269788066505
34.733452,3.0998958123491858,0.12998884764430932
34.737544,3.4730756334296813,0.13847011613909582
34.741632,3.87320621378713,0.14677971408641602
34.745728,4.279861597420599,0.15505480995654874
34.749812,4.689540806378908,0.16328453124215728
34.753899999999994,5.098742862710878,0.1714645079127255
34.758039999999994,5.504741862764877,0.1703587956566467
34.762179999999994,5.890479268240146,0.1696083548928177
34.76631999999999,6.258402444610785,0.1688008271526589
34.770467999999994,6.599207048426871,0.16835472911060337
34.774612,6.919284322713424,0.16796791147462314
34.778744,7.225701277570601,0.16748914917070226
34.78288,7.5198094471486865,0.16680409618208206
34.786964,7.801276656747878,0.16602236715853874
34.791048,8.067632705543009,0.16515887745910504
34.795128,8.317747509183663,0.16427620829605297
34.799212,8.54770002546999,0.1634227014341533
34.8033,8.755684402976433,0.16259065362060443
34.807388,8.941589916803053,0.16176387646453616
34.811524,9.109226884249777,0.16085965808679287
34.815664,9.252658379566851,0.16001085253768485
34.819799999999994,9.373690254179834,0.15922967403577415
34.823932,9.467637809264865,0.15865099688201692
34.828067999999995,9.547516398347376,0.15810341325495642
34.832204,9.618266423077705,0.1575481992354635
34.836332,9.678104867381355,0.1570332889156869
34.840464,9.72760819110907,0.1565989311845546
34.844604,9.779005255811214,0.1561076279015552
34.84874,9.828718611663268,0.15563550399129827
34.852875999999995,9.881123618140359,0.15513386529893214
34.857015999999994,9.928821090442517,0.15469423026826204
34.861152,9.968222161069699,0.15436169639769062
34.86528,10.007722538921286,0.15399661620874375
34.869415999999994,10.046425007122261,0.15361132433485378
34.873543999999995,10.084108115872759,0.15321172605152195
34.877675999999994,10.116407923373187,0.15287419505336744
34.881823999999995,10.149482805173156,0.15250408822830416
34.88592,10.17986603634809,0.1521639690359675
34.890016,10.213162367947927,0.15178979725717992
34.894155999999995,10.244774990697678,0.15143013216683412
34.898304,10.277617005022245,0.15104806651972696
34.902455999999994,10.308099543421582,0.15067897416829487
34.906603999999994,10.340597965370812,0.15028044760277784
34.91074,10.370515461594941,0.14990358103361787
34.914891999999995,10.393930989894114,0.14960162978116331
34.91902399999999,10.415662809343203,0.1493127118219793
34.923108,10.436608136817217,0.14902852234307443
34.92724,10.454751088766255,0.14877772733309647
34.931376,10.473791257590308,0.1485194442641718
34.935508,10.49215565933922,0.14826128287606183
34.939643999999994,10.516567711737808,0.14792163358772567
34.943783999999994,10.544900806336253,0.1475332954435621
34.94792399999999,10.568194192059963,0.14721531721707384
34.952056,10.583977668083774,0.14698254028312321
34.95618399999999,10.599871869007519,0.14674662079809395
34.96032,10.614193085981109,0.1465180061465081
34.964456,10.623696043879836,0.14634713978499983
34.968591999999994,10.632301784903548,0.1461846233276984
34.972683999999994,10.635081325077453,0.1460927185544623
34.97682,10.639987473701185,0.14596973069985497
34.980908,10.642201971699883,0.14587198058602255
34.985043999999995,10.64575658617333,0.14574661336049635
34.98918,10.6508727669214,0.14558429984792062
34.993312,10.660242164569127,0.14536052868393248
34.99744,10.671627445766749,0.14511006336724122
35.00152799999999,10.68671231936435,0.14482283190503864
35.00566,10.703591626711976,0.14452041857522246
35.009792,10.72147887583455,0.1442057652209341
35.013928,10.738801082781915,0.14388649050640495
35.018063999999995,10.757131231504227,0.14355617082480335
35.022152,10.769745904276663,0.1432891679036855
35.026239999999994,10.779668926424062,0.1430470503152617
35.030324,10.793845165471119,0.14274598556378174
35.034464,10.813626155568118,0.14238892945804685
35.038604,10.831723436815025,0.14204438992403745
35.042744,10.851050109636752,0.14167833175187242
35.046888,10.872724840708173,0.1412731578338869
35.051027999999995,10.895739688254348,0.1408416936194977
35.055184,10.92132404385009,0.1403613587107204
35.05932,10.945003240795874,0.13990334097599866
35.063404,10.97260347994151,0.1394029054589228
35.067532,11.000203719087146,0.1389050210515642
35.071667999999995,11.029144074707535,0.13838607954081425
35.075804,11.053598345952862,0.13790608358990555
35.079952,11.083203050972859,0.13736594264155574
35.084087999999994,11.111234772042701,0.13683465168100092
35.088224,11.136574842487509,0.13632621248098717
35.092355999999995,11.161914912932316,0.1358195320511769
35.096495999999995,11.187930750452269,0.13531746818663867
35.10062799999999,11.212041429322259,0.1348359215763869
35.104768,11.240859642367178,0.13431136736135266
35.108908,11.268669913637149,0.13379825752343524
35.113048,11.294242851557359,0.13332033025739873
35.11717599999999,11.31791063082761,0.13286351427338405
35.121303999999995,11.341922002473199,0.1324231250558002
35.125432,11.367960675344213,0.13199108976660198
35.129563999999995,11.39501870766571,0.13157834720045902
35.13369599999999,11.4243254910125,0.13116551732001916
35.137832,11.45835122620975,0.13074321932864938
35.141976,11.493949945357157,0.13031825342381204
35.14612399999999,11.52820854802981,0.1299209577274416
35.150264,11.56123775912765,0.12954453516668343
35.154411999999994,11.592483954150996,0.12921275395552734
35.158552,11.62900272552448,0.12884908036403175
35.162704,11.657347237798454,0.12857636373499562
35.166836,11.68939134247241,0.12827785462823393
35.170972,11.726142981321297,0.1279420711882778
35.175107999999994,11.764910503720078,0.12758836985535
35.17924,11.803678026118856,0.1272372216018025
35.183376,11.846034416017682,0.12686457100898124
35.187512,11.888501530816443,0.12649197746961593
35.191647999999994,11.934889687815058,0.1260852054654728
35.195784,11.981720744413412,0.12566408496499332
35.19992,12.027654584136753,0.12525014551803812
35.204055999999994,12.074363498159638,0.12480932037099872
35.2082,12.11994232783211,0.12435831562167454
35.21233599999999,12.167979940654213,0.12387545714888154
35.216468,12.213879527350954,0.1233923208790263
35.2206,12.253265728447213,0.12293295515435207
35.224728,12.290403178518172,0.12247560056905746
35.228863999999994,12.327197036213798,0.12200624545243925
35.233003999999994,12.367346893934068,0.12149927075243205
35.237148,12.404572233553898,0.12099101622384906
35.241243999999995,12.438540880373486,0.12049588042813349
35.24537599999999,12.47911080234243,0.11992591375712305
35.249516,12.514186698161367,0.11939559868983772
35.253656,12.544100742530103,0.11889141970347139
35.2578,12.568742210548704,0.11841573226240709
35.26194,12.590348435566927,0.11794210098260277
35.266084,12.60633849185968,0.11748229024970942
35.270228,12.619071855352189,0.11703280335342665
35.274364,12.631461626469362,0.11657177078749972
35.278499999999994,12.64205696383651,0.11612143472831227
35.282632,12.65141149195331,0.11566151344527205
35.286767999999995,12.661773961845059,0.11519484713729662
35.290907999999995,12.671571389561596,0.11472278222623283
35.295044,12.678112124477897,0.11426068232981498
35.29918,12.683866367419116,0.11379991595655475
35.303315999999995,12.691415044110359,0.1133297451332606
35.307455999999995,12.701876821226506,0.11283911017972982
35.311592,12.711441381467642,0.11235436173359564
35.315728,12.717195624408863,0.11189702856928702
35.319868,12.727546676625074,0.11141441352224304
35.324003999999995,12.740024337291116,0.11091343946351755
35.328128,12.749699622432189,0.11043190594144976
35.332215999999995,12.760825748947944,0.10992790045672214
35.336344,12.77273836743878,0.10942294524670607
35.340475999999995,12.787564086354521,0.10889729507226972
35.344615999999995,12.808891773195212,0.10833700060322696
35.348752,12.831792443986059,0.10777532879497126
35.352844,12.853795897901893,0.10721808836935438
35.356984,12.87299697629276,0.1066794199855021
35.361127999999994,12.893538171158376,0.10612280748777642
35.365264,12.917889683323905,0.10554415811796145
35.369356,12.94246264528931,0.10496198082191487
35.373444,12.969948707679617,0.10436420468097325
35.377584,12.996426828294975,0.1037754134362616
35.381736,13.028731149760148,0.10315319514759931
35.38583199999999,13.061589095724994,0.1025153414839431
35.38992399999999,13.0941034493145,0.1018676018375322
35.39402,13.128068644278697,0.10120125533176455
35.39812,13.16460334729246,0.10050516822334826
35.40226,13.198889299280925,0.09981016332546824
35.406412,13.230594325544288,0.09912559669143353
35.410543999999994,13.261734309632446,0.09843607113580824
35.414676,13.295000902170434,0.09773322593838749
35.418812,13.330050510782913,0.09700107821627751
35.422948,13.368677569219901,0.09623626541334689
35.427088,13.399451125581658,0.09549758728341744
35.43122399999999,13.437612449067846,0.0947082403560383
35.43536,13.480137714353623,0.0938858057620521
35.439488,13.523105879239138,0.09305189296292525
35.443624,13.572343144574205,0.09218129701633018
35.447756,13.618323717109027,0.09131639232035055
35.451899999999995,13.660371829768467,0.09045263457408345
35.456044,13.695352932327745,0.08961056623398111
35.460176,13.732117050961516,0.08874164051389834
35.464304,13.759798275945233,0.08790675120996974
35.468436,13.789606109378777,0.08706113610491678
35.472564,13.820532609487206,0.0862117813378005
35.476692,13.849099633670402,0.08536309943029177
35.480827999999995,13.877888107653467,0.08451260367415754
35.484972,13.905214322586314,0.08365933863205814
35.489104,13.932651262419094,0.08280439932850793
35.493252,13.963001302676783,0.08193980249287541
35.497387999999994,13.989651750534486,0.0810906985424736
35.50152799999999,14.020112515692109,0.08023237712030193
35.505668,14.048446672399901,0.07939393417504297
35.509812,14.083282797032647,0.07853719534040346
35.513952,14.111284779040638,0.07771709469654373
35.518088,14.13917603614869,0.07690575186690274
35.522223999999994,14.167853785231824,0.07609796513775677
35.526356,14.187681508140303,0.07533321764186106
35.530483999999994,14.21512986564862,0.07454705466386047
35.534623999999994,14.244937699082167,0.07376641913243787
35.53876399999999,14.281247500440667,0.07296940215838883
35.542896,14.317225127099361,0.07218530809311788
35.547028,14.35891822970793,0.07138363045926886
35.551164,14.392769247916796,0.07061369614683509
35.555291999999994,14.424715107475702,0.06985430902129461
35.559431999999994,14.45991765983485,0.06910142989580804
35.563568,14.493890820619187,0.06836273577587082
35.567708,14.531009949303826,0.06763377891289342
35.571836,14.57205012018832,0.0668950240571271
35.575964,14.611074407522919,0.06616900658168784
35.580096,14.651893128607545,0.06544261275934211
35.584236,14.686885648842358,0.06473935286373886
35.588379999999994,14.719297243352068,0.06403904262521624
35.592524,14.744641827761622,0.06334635821402539
35.596672,14.767405486446073,0.06265389204942576
35.600824,14.782659235430625,0.061978323044488345
35.60497599999999,14.795442783590012,0.06130033115597976
35.609112,14.802621580699459,0.06062980320289767
35.613263999999994,14.793883341534094,0.059990699518080295
35.61736,14.77875385934371,0.059358038887874394
35.6215,14.757122409228375,0.05873578263968053
35.625636,14.728767541388217,0.058127735776873135
35.629768,14.694021430523042,0.05752523811658111
35.633903999999994,14.662631319682513,0.05689942073315932
35.63804,14.620707473817244,0.05629348499330557
35.64218399999999,14.564882475227055,0.055703300117238966
35.646316,14.498855916311932,0.05512277303061181
35.650451999999994,14.420944088221786,0.05455001666119951
35.654591999999994,14.328798932706919,0.053999649545487916
35.658676,14.225554999992108,0.05345666805846989
35.662811999999995,14.112109506952361,0.052920149189512655
35.666956,13.98801955398794,0.052401189916659346
35.671096,13.852842241499104,0.05191173849073162
35.675228,13.713755304485948,0.05144902806436509
35.679351999999994,13.570415150573139,0.050997742220467344
35.683484,13.423608271735748,0.05056128044498184
35.687611999999994,13.268405683998981,0.0501531657199939
35.691756,13.116459789062457,0.04974580325716113
35.695904,12.969011396176523,0.04935491164090867
35.700052,12.817874828566142,0.04898591860168323
35.704139999999995,12.66024771070634,0.04864269024191324
35.70824,12.499264592821895,0.04831217522148383
35.712384,12.336055559263217,0.04801444621330615
35.71652,12.16389719230549,0.047763956918863884
35.720608,11.992868909698174,0.047526872801623224
35.724695999999994,11.827456795816333,0.04730336817235006
35.72877999999999,11.661945374710086,0.04710504466133505
35.732868,11.497231863254456,0.04693269719799585
35.73696,11.334434928124312,0.04677960518758112
35.741043999999995,11.174341061294738,0.04664965129368594
35.745183999999995,11.016839537865797,0.046548006911129224
35.749275999999995,10.867191516512097,0.04644953353745729
35.75342,10.721918854633518,0.046351725021432304
35.757451999999994,10.573511642530164,0.04626681878211548
35.76159199999999,10.421305530802428,0.046219163278939865
35.765736,10.267759302599938,0.04618565898314838
35.769876,10.116572550322678,0.04616339181974587
35.773964,9.961354030945632,0.04615348293216884
35.778051999999995,9.802103744468798,0.04616007129491203
35.782196,9.644426441942123,0.04617536344557686
35.786288,9.488322123365599,0.046199684641056074
35.790423999999994,9.33300429676415,0.04622657873882791
35.794512,9.174994819537668,0.046253498795433445
35.798644,9.020795659611103,0.046273252739039164
35.802775999999994,8.867050816959809,0.046313794815931536
35.806856,8.710614323683478,0.0463529239517126
35.810939999999995,8.55608298905711,0.046388678429921386
35.815079999999995,8.403788987780503,0.04640320204844724
35.819216,8.25138426160396,0.04642375152032891
35.823352,8.097860868752536,0.04645670701622124
35.827496,7.938954174651041,0.04649185393368751
35.831632,7.769624470424742,0.0465556284720069
35.83575999999999,7.599286824423495,0.04662486209637489
35.839896,7.433767437497114,0.04667705369782221
35.844032,7.27149332569544,0.04670491591019398
35.848167999999994,7.110227155668714,0.04672857839455986
35.852307999999994,6.949293160341793,0.04673260056719116
