Time,Force,Position
35.242404,0.04697846476793837,0.0
35.246536,0.04697846476793837,0.0
35.250668,0.04697846476793837,0.0
35.2548,0.04697846476793837,0.0
35.258936,0.04697846476793837,0.0
35.263076,0.04697846476793837,0.0
35.26716,0.04499295034531854,0.0
35.271300000000004,0.039983610597858626,0.0
35.275436,0.039983610597858626,0.0
35.279568,0.03777664637536906,0.0
35.283704,0.03408847165091975,0.0
35.287832,0.028384413376577055,0.0
35.291912,0.024696238652127743,0.0
35.296044,0.022802497677702076,0.0
35.300128,0.025505565978270396,0.0
35.304208,0.028208634278838716,0.0
35.308284,0.030125210604330092,0.0
35.312364,0.03394694557977998,0.0
35.316448,0.035187754830129266,0.0
35.320532,0.03900948980557915,0.0
35.324616,0.045713956078660696,0.0
35.3287,0.05263987215161198,0.0
35.332784,0.05956578822456326,0.0
35.336876,0.06828613804753819,0.0
35.34096,0.07790370474552494,0.0
35.345044,0.08684550436836962,0.0
35.349132,0.09096904491635056,0.0
35.35322,0.09509258546433151,0.0
35.357308,0.09820818423736577,0.0
35.361392,0.1003158412354533,0.0
35.365472,0.10300749186048877,0.0
35.36956,0.10322894166035854,0.0
35.373648,0.10244244968528159,0.0
35.37774,0.10165595771020464,0.0
35.381816,0.09495149143712309,0.0
35.3859,0.08914424203905336,0.0
35.389976,0.08423420951599546,0.0
35.394056,0.07842696011792574,0.0
35.398136,0.07441414446987968,0.0
35.40222,0.06961483684675666,0.0
35.406304,0.06291037057367513,0.0
35.410388,0.05598445450072384,0.0
35.41452,0.04905853842777255,0.0
35.418604,0.04033818860479762,0.0
35.422688,0.030720621906810866,0.0
35.426768,0.021778822283966194,0.0
35.430848,0.017655281735985243,0.0
35.434928,0.013531741188004301,0.0
35.439012,0.010416142414970053,0.0
35.443096,0.008308485416882498,0.0
35.447184,0.005192886643848248,0.0
35.451272,0.003760996720902773,0.0
35.455368,0.0033066794456304343,0.0
35.459504,0.001955145295346272,0.0
35.46358,0.004948601492912797,0.0
35.467716,0.00783133279054445,0.0
35.471856,0.010714064088176102,0.0
35.475988,0.012588853610861062,0.0
35.48006,0.01647952668343941,0.0
35.484196,0.019472982881005935,0.0
35.488332,0.01947298288100593,0.0
35.492472,0.019553338653667245,0.0
35.496608,0.019553338653667245,0.0
35.50074,0.019553338653667245,0.0
35.504876,0.01963369442632856,0.0
35.508956,0.020832716873871438,0.0
35.512988,0.020832716873871438,0.0
35.517116,0.02494483974631953,0.0
35.521248,0.03185933814373796,0.0
35.525384,0.03586073611625118,0.0
35.52952,0.038743467413882834,0.0
35.5336,0.04252341558652631,0.0
35.53774,0.04162619871151449,0.0
35.54188,0.04072898183650266,0.0
35.546012,0.03773552563893614,0.0
35.5501,0.03504387501390067,0.0
35.554228,0.03257367418873494,0.0
35.55836,0.03301657378847443,0.0
35.562392,0.03323802358834417,0.0
35.56648,0.035253907138237554,0.0
35.570612,0.041271188660644165,0.0
35.574744,0.04698666461051972,0.0
35.578876,0.05188527945804476,0.0
35.582964,0.06048348670555197,0.0
35.587088,0.06720690443037422,0.0
35.59118,0.07169298880543333,0.0
35.59532,0.07838603740298203,0.0
35.599464,0.07895107957818924,0.0
35.603556,0.07671374622842608,0.0
35.607644,0.07940539685346155,0.0
35.61174,0.08332643905331348,0.0
35.61584,0.08433438082826016,0.0
35.619932,0.08792324832830747,0.0
35.62408,0.09151211582835475,0.0
35.628172,0.09596783107614033,0.0
35.632304,0.10012174075139482,0.0
35.636396,0.10383275082690985,0.0
35.640484,0.10474138537745453,0.0
35.644572000000004,0.10094248575307034,0.0
35.64866,0.09593314600561041,0.0
35.652752,0.09123702950621443,0.0
35.65684,0.08676236280668814,0.0
35.660932,0.08386068005731578,0.0
35.66502,0.0752624728098086,0.0
35.669112,0.06966913943540076,0.0
35.673196,0.0662024145108212,0.0
35.67728,0.06172774781129492,0.0
35.681372,0.06027690643660874,0.0
35.685472,0.057818123286975866,0.0
35.689564,0.05112507468942718,0.0
35.69366,0.04463452444000752,0.0
35.697748,0.04419162484026804,0.0
35.701844,0.04789121724025021,0.0
35.705932,0.051590809640232375,0.0
35.710024,0.05551185184008428,0.0
35.714116,0.05864640206485923,0.0
35.718208,0.06301034386445062,0.0
35.722304,0.06816077763911896,0.0
35.726396,0.07543781986361557,0.0
35.730488,0.08112292668621757,0.0
35.734584,0.08638408536082078,0.0
35.73868,0.09556628623527591,0.0
35.742776,0.10407272003458895,0.0
35.746872,0.11748918635695989,0.0
35.750968,0.12969521255625507,0.0
35.755064,0.14179051385561542,0.0
35.759208,0.15366436535510597,0.0
35.763288,0.16453027507964987,0.0
35.767384,0.17651485147907536,0.0
35.771476,0.1935201853014936,0.0
35.77562,0.21021229587584792,0.0
35.779708,0.22085675580052208,0.0
35.783844,0.2274694486254094,0.0
35.787932,0.23509008322524352,0.0
35.792072,0.24091628407505394,0.0
35.79616,0.2475289768999413,0.0
35.800292,0.25403094482489386,0.0
35.804436,0.2597464207747694,0.0
35.808576,0.2698372561997692,0.0
35.812668,0.28172252537479264,0.0
35.816812,0.29450501142482793,0.0
35.820952,0.2986589211000824,0.0
35.825088,0.3049394392251652,0.0
35.829228,0.30819613202540785,0.0
35.83336,0.30865044930068014,0.0
35.837496,0.3091047665759525,0.0
35.841636,0.3119071421009228,0.0
35.845776,0.31067775052610636,0.0
35.849912,0.30933763405135506,0.0
35.854048,0.3050844171516986,0.0
35.858184,0.2989260416020835,0.0
35.862316,0.2937756078274152,0.0
35.866396,0.2896331158276936,0.0
35.870532,0.2825775234030667,0.0
35.874672,0.2769841900286588,0.0
35.878808,0.27161230645412077,0.0
35.882936,0.26231938067973076,0.0
35.887072,0.2558288304303111,0.0
35.8912,0.24496292070576728,0.0
35.895336,0.23801805318107522,0.0
35.89948,0.22647637638138926,0.0
35.903616,0.22143666750665578,0.0
35.907752,0.21034930798224213,0.0
35.911888,0.19466513918283448,0.0
35.916044,0.18268056278340902,0.0
35.92018,0.16791256231075394,0.0
35.924324,0.1510179533882706,0.0
35.92846,0.13815511156557403,0.0
35.932588,0.12529226974287744,0.0
35.936724,0.11254015282011574,0.0
35.940864,0.1027929097704534,0.0
35.945,0.09315639162072592,0.0
35.94914,0.08531430722102211,0.0
35.953228,0.07926665657134195,0.0
35.957364,0.07085952999643094,0.0
35.961504,0.062341678521585044,0.0
35.965636,0.05664515402345019,0.0
35.969772,0.049578143923290484,0.0
35.9739,0.042762952750274065,0.0
35.978028,0.03213744427734063,0.0
35.982176,0.02431431132937753,0.0
35.986312,0.014696744631390767,0.0
35.990396,0.010088517680863928,0.0
35.994536000000004,0.01388741730524811,0.0
35.998672,0.01689982495455534,0.0
36.0028,0.021011947827003427,0.0
36.00688,0.02803717112435673,0.0
36.011008,0.03607033619665672,0.0
36.015156,0.04690587679392706,0.0
36.019252,0.05314460811620341,0.0
36.023352,0.056267740665445515,0.0
36.027444,0.06118530696471125,0.0
36.03154,0.06251400576392972,0.0
36.035636,0.06585858811304156,0.0
36.039732,0.0727920379622007,0.0
36.043868,0.07983621271129471,0.0
36.04796,0.09100392800836965,0.0
36.052056,0.10062902848256426,0.0
36.056144,0.11291541045452078,0.0
36.06024,0.12419385065153059,0.0
36.064336,0.13446434907359373,0.0
36.068424,0.14731577322075748,0.0
36.07252,0.15907889982031315,0.0
36.076612,0.1682611006947683,0.0
36.080704,0.17632463489434186,0.0
36.0848,0.18786631169402782,0.0
36.088888,0.19458972941885005,0.0
36.092984,0.2014238720436072,0.0
36.097076,0.20355048049343544,0.0
36.101172,0.2082580146683643,0.0
36.105208,0.21027389821825768,0.0
36.109296,0.21622224164353582,0.0
36.113388,0.22758813934548347,0.0
36.117516,0.24528022587464524,0.0
36.1216,0.27178011973171984,0.0
36.125684,0.31304758201751814,0.00871298680656083
36.129808,0.3691054480831059,0.017671184954603576
36.133896,0.4508310453285599,0.026398325150695706
36.138036,0.557449299454336,0.03492015156215375
36.142132,0.6924269353850138,0.04325687764316936
36.146232,0.851277868745534,0.051622165447091514
36.150328,1.0299589147605772,0.059980655100569755
36.154464,1.2347505915552262,0.06822236156597178
36.1586,1.458818756504724,0.07653734196192294
36.16274,1.7106812610839157,0.08476092569106988
36.16688,1.987425004867897,0.09290133574403552
36.17102,2.291298738881963,0.10104748800965835
36.17516,2.622081013326245,0.10914559791934327
36.179304,2.9840250451003993,0.11716774444813044
36.183444,3.3775737338041654,0.12510510019203944
36.187576,3.8066481216373953,0.13293951676100074
36.191708,4.252173786749436,0.14078372993855254
36.195844,4.717239608662936,0.1485425569563903
36.199972,5.19374780015172,0.15622409717506747
36.204056,5.674608515764563,0.1638533609204865
36.208192,6.153961301625055,0.16270212158414654
36.212336,6.622345418681208,0.1612418824411759
36.216472,7.06775345518253,0.16000040152948056
36.220604,7.486585125953441,0.1589447390321896
36.22474,7.876381647844307,0.15808640518990913
36.228872,8.24723385628013,0.15715089351923006
36.233004,8.597248010286483,0.15621501698825596
36.237152,8.92451895121341,0.15537213384438855
36.241292,9.234651430110848,0.1544372379746274
36.24542,9.520689161778572,0.15356917933965045
36.249548,9.7812806120663,0.15275392402305146
36.253684,10.01921673882347,0.15188407084917374
36.257812,10.227098357250117,0.15105803903865508
36.261944,10.404814742446307,0.1502863426246243
36.266088,10.553606703662386,0.14957129826477328
36.270232,10.670007515973776,0.14896563258658033
36.274368,10.766467490730712,0.14832351209674827
36.278516,10.84132575443416,0.14773092123838238
36.282664,10.897063925584828,0.14719233172112897
36.286816,10.93570930540814,0.1467013059835768
36.290956,10.958391978254511,0.14626676966617608
36.295084,10.971747472299892,0.14587240773185972
36.29922,10.981945580769432,0.1454618898049441
36.303348,10.99000566311361,0.1450516834990799
36.30748,11.002761861957188,0.14456229746691956
36.311612,11.010688384050368,0.1440992436973469
36.315752,11.017141229417797,0.14360880600945264
36.319892,11.01561843013452,0.143154542572139
36.32398,11.01026247820026,0.14268229731385146
36.328112,11.00174914069016,0.1421931058844019
36.332248,10.988627576229533,0.1417170065573481
36.336324,10.972925086043805,0.14125944060551077
36.340408,10.95834126253296,0.14078315456209084
36.344544,10.943535989222243,0.14031493061544223
36.34868,10.926039065286488,0.139868615186561
36.352824,10.911898141375385,0.13937064640801056
36.356908,10.89550846643898,0.13887614824431738
36.360992,10.876648590677412,0.13839424036900336
36.365128,10.854199847415796,0.1379410259260634
36.369216,10.837355855204121,0.13743298190165135
36.373352,10.822871338917675,0.13691484804849724
36.37744,10.810524848756593,0.1363968126728106
36.381572,10.798189776271043,0.13590728904941596
36.38566,10.78810345481079,0.13541341792911837
36.389752,10.774882583125763,0.134960630643901
36.39384,10.76334542029082,0.13449729494456716
36.397928,10.7532705165061,0.13403356537427738
36.402064,10.750262622821541,0.13351593890365074
36.406156,10.74614748013763,0.13304395316587095
36.410244,10.7407036386545,0.13262711582112915
36.414332,10.733255331297011,0.13226206603885254
36.418464,10.724577632364703,0.13191766497623705
36.4226,10.718935176432767,0.1315682275303068
36.426696,10.717557355076025,0.13119313690914103
36.430792,10.72212787714456,0.1307834686102344
36.434924,10.725923324913552,0.13040775201513097
36.439012,10.732421840983115,0.13004200429186416
36.443104,10.739718266703282,0.12970411572557214
36.447192,10.753970977623672,0.12932093975100933
36.451284,10.766551397369511,0.12897984651248393
36.455416,10.783175001890667,0.12862531198567556
36.459508,10.80036364858703,0.1282790010651106
36.463588,10.825737972058437,0.12787138204483162
36.467716,10.852574554580064,0.12746629283984773
36.47186,10.879201104977351,0.12710027110779698
36.476004,10.907633506800195,0.12675327648210324
36.48014,10.936188051198508,0.12643354408438726
36.48428,10.963967521297276,0.1261476910751287
36.488424,10.998470409120868,0.12580171501078147
36.492576,11.03689433914431,0.12541758334161746
36.496716,11.087535713042577,0.12493212568089905
36.500864,11.142220271716166,0.12443540418678559
36.505,11.198588539239845,0.12393628244577909
36.509128,11.252608748513826,0.123475069697226
36.513264,11.302818640487889,0.1230505157067337
36.517396,11.355830907986922,0.12260731646946234
36.521524,11.410072567060771,0.12214901897494976
36.52566,11.466330109684517,0.12167148294672749
36.5298,11.516650726558515,0.12125256283444523
36.533936,11.56495545988262,0.12085519464353692
36.538068,11.611133584756898,0.12048586521025684
36.542204,11.6616870691063,0.12009632907260749
36.546288,11.706525077505827,0.11975883366652153
36.550416,11.750133694330536,0.11944120202591339
36.554556,11.796201094304877,0.11908806142026707
36.558696,11.839687568554117,0.11874872596528462
36.562832,11.87980662510318,0.11842329793160954
36.56696,11.919360639477038,0.11809236133335285
36.571088,11.952080511226136,0.11782286345675255
36.575224,11.985697599850246,0.11755055242056542
36.579352,12.011694053874523,0.11734106266499005
36.583484,12.036006799048714,0.11713948437216841
36.587632,12.05493624297283,0.11697038334388833
36.591764,12.073411369621676,0.11679061190997775
36.595896,12.093005162945403,0.11659802216999454
36.600032,12.109231538568952,0.1164194305935152
36.604184,12.124449972417555,0.11625133463386965
36.608328,12.140111305865895,0.11606836037113091
36.61248,12.161033797988843,0.1158325569810048
36.61662,12.181612697736451,0.11558179592419171
36.620752,12.198148412708738,0.1153401507805609
36.624888,12.206719900705856,0.11514056463743295
36.629016,12.2174179971528,0.11492009107367668
36.633148,12.22866971809942,0.11468036740243298
36.637288,12.238127005296013,0.11445123904489765
36.64138,12.2519482342922,0.11417632777752117
36.645516,12.271706389038131,0.1138538753138941
36.649652,12.290899501608855,0.11352541441882319
36.653796,12.317934698579286,0.11313737513213079
36.657876,12.342499694724548,0.11275777116360468
36.662008,12.364483765144712,0.11238763384315288
36.666144,12.38769722713969,0.11200295632185055
36.670284,12.412029355809548,0.11160538745691113
36.67442,12.438377368029302,0.11119245689383392
36.678548,12.464946830048927,0.11077354111703207
36.68268,12.490508350293602,0.11036349858640258
36.686812,12.514829061287928,0.10994510578514613
36.6909,12.536347396757286,0.10954543807335136
36.695024,12.55326892295165,0.10917317589549562
36.699156,12.571087666021027,0.10879682213848
36.703288,12.595519101915292,0.10837927438041328
36.707428,12.62207714625938,0.10794066061850356
36.711568,12.644149106228413,0.107525331633564
36.715708,12.665434574222367,0.10711185033087875
36.719844,12.688735925766217,0.10668369825433202
36.723992,12.705203134685307,0.10630575452829485
36.728132,12.718757243179493,0.10595040695082195
36.73228,12.731192684998797,0.10560704510788882
36.736412,12.734213058468244,0.10532131425979824
36.740548,12.736790532337952,0.10505076098364431
36.744684,12.744186265282522,0.10474840345789212
36.74882,12.750684781352081,0.10445130911436834
36.752952,12.757969789396716,0.10415396634900789
36.757092,12.759428596591542,0.10389565105601728
36.761232,12.758760795336539,0.10365674643789079
36.765368,12.758092994081537,0.1034176220091598
36.769504,12.75406919280189,0.10321255957354247
36.77364,12.75363425902229,0.10299189358217582
36.77778,12.756677467842799,0.10275922926739174
36.781928,12.762633777088217,0.10250823667915342
36.786056,12.763882552158707,0.10228491907392506
36.790188,12.76872019472924,0.10204683734463751
36.79432,12.775241546149864,0.10180466767661336
36.798448,12.784343823295591,0.10155574068133601
36.802576,12.791430216891424,0.1013223731586758
36.806712,12.802437652687106,0.10106303467651032
36.810848,12.814342305357801,0.10080105977422996
36.814988,12.829049333553467,0.10052504266003655
36.819128,12.849250387899142,0.1002232230848152
36.82326,12.872475267569653,0.09990082091913545
36.827396,12.897162406290384,0.09958438762585174
36.83154,12.918493544986468,0.09930041000066127
36.835688,12.942627059207524,0.09900352403133596
36.839828,12.973151816453598,0.09867818087601934
36.843964,13.005471007449698,0.09834619451688419
36.848108,13.043394949495735,0.09798822152003758
36.85224,13.084010542166805,0.09761892063402092
36.856376,13.12160230951304,0.0972725857405711
36.860516,13.159415526659142,0.09692153780317098
36.86466,13.193983468680537,0.09660035550107854
36.868748,13.233934711951997,0.09626111402914883
36.872884,13.268956971248663,0.09595384510219758
36.87702,13.305773664295353,0.09564122624298552
36.881152,13.337993548067049,0.09534978660876064
36.885292,13.370434881638614,0.09505222736956506
36.88944,13.40545714093528,0.09475082253092333
36.893572,13.43969290825687,0.0944510532010789
36.897708,13.471126300053488,0.09416534527497324
36.901836,13.50569424207488,0.0938594204135193
36.905964,13.53757053347124,0.09356451233669795
36.910092,13.568206015617248,0.09326121396390533
36.914228,13.606118539987753,0.09290780923085752
36.918368,13.643023122583312,0.09256319431628252
36.922508,13.677678954153574,0.09221582944992324
36.926648,13.715801510648417,0.09183907794693413
36.930728,13.747422099218307,0.09149104253059095
36.934864,13.785201063337812,0.09110551870588923
36.939004,13.823644376856924,0.09070109477943414
36.943144,13.86130119840096,0.09029852105783963
36.947284,13.900519586219618,0.08987474627073404
36.951432,13.93468684748801,0.08946019003104083
36.955564,13.977814859830985,0.0889982736739377
36.959704,14.020820729598496,0.08851915730894308
36.963784,14.071668683765708,0.08800302225858506
36.96792,14.12442179658288,0.08748108321418052
36.972052,14.173131724624731,0.08696216961765423
36.976188,14.219150002041548,0.08645188721988145
36.980336,14.272334596782928,0.0859028154428186
36.98442,14.32092238224931,0.08537331288561792
36.98856,14.371858225965394,0.08482597040358475
36.992696,14.419991694156504,0.08429129179265722
36.996832,14.463417628172687,0.083778542324676
37.000912,14.506389244913596,0.08325807186707475
37.005052,14.555187062504318,0.08271622982669899
37.009188,14.599055896120243,0.08220098129239514
37.013324,14.652671972785825,0.08164667472848772
37.01746,14.702699181951363,0.08110655081621106
37.021596,14.757323200391896,0.08055723443484698
37.025732,14.812844435707442,0.08000894201922469
37.029864,14.870160104773005,0.07946043181643112
37.033992,14.932072583113566,0.07890268653867995
37.038128,14.988380310404189,0.07836827736021255
37.042268,15.045142354970082,0.07784741402086048
37.0464,15.098094082236054,0.07734510739532566
37.05054,15.151156534401967,0.07684311681205783
37.054684,15.207697129167988,0.07633980960087391
37.058828,15.268158766133862,0.07582271776008835
37.062964,15.32268347734999,0.07533502650421056
37.067104,15.37653242149098,0.0748448114859474
37.071244,15.431389307406915,0.07435440584337497
37.07538,15.48646764312272,0.0738595027660826
37.079516,15.542664645513408,0.07335958054923233
37.083652,15.600091039478908,0.07285298660670263
37.087788,15.651912682394473,0.07236565400824116
37.091932,15.705750208859927,0.07187127251323021
37.096072,15.750283391875456,0.07140387979941933
37.100204,15.790219765615994,0.07094769655977619
37.104288,15.825559330081537,0.07050417399248937
37.108372,15.856523535071958,0.07006553736261423
37.112456,15.882215163712244,0.06963332454549495
37.116544,15.89849172400267,0.06922557769125727
37.120628,15.911179416793049,0.06882324916995002
37.124656,15.919270300308437,0.06843029921841817
37.128736,15.919961999023855,0.06805240714746469
37.132812,15.918072772014176,0.06767602878621018
37.136896,15.911476010829567,0.06731161520552109
37.140976,15.900171715470027,0.06695854698343694
37.145112,15.887072986360465,0.06660745578199337
37.149248,15.874760749225983,0.06625782102161318
37.153392,15.856511586341751,0.0659285558762381
37.157528,15.838151698557589,0.0656015511311824
37.161656,15.817665202323596,0.06528475006725586
37.165784,15.791131055439923,0.06499004755034454
37.16992,15.76157308323141,0.0647058188322907
37.17406,15.731117894147882,0.06442229153357364
37.178208,15.697638879739518,0.06414855698221786
37.182344,15.664614182606424,0.06388372801699227
37.186428,15.63158948547333,0.0636183556940752
37.190564,15.602940147815364,0.06335041831461229
37.194696,15.576539561182688,0.06308986638355839
37.198824,15.557427434450046,0.06281854885958388
37.202956,15.538658900092742,0.06255916146269644
