Time,Force,Position
33.0857,0.06359445677092385,0.0
33.089848,0.054714704012211096,0.0
33.093988,0.04583495125349834,0.0
33.098136,0.038638907344874365,0.0
33.102267999999995,0.02852976301134517,0.0
33.1064,0.01942856045276268,0.0
33.110532,0.013240458319085395,0.0
33.114616,0.009965456610313325,0.0
33.1187,0.006690454901541255,0.0
33.12278,0.002518236317757362,0.0
33.126916,0.00014045148399711497,0.0
33.131,0.0,0.0
33.135084,0.0,0.0
33.139168,0.0,0.0
33.143304,0.0,0.0
33.147431999999995,0.0,0.0
33.151568,0.0,0.0
33.155648,2.972658406224345e-05,0.0
33.159788,0.0010673949430711814,0.0
33.163924,0.0069233223769438485,0.0
33.16806,0.012889974710751387,0.0
33.172148,0.018856627044558927,0.0
33.176276,0.024823279378366467,0.0
33.18036,0.030900656612108876,0.0
33.184496,0.04078835114576832,0.0
33.188628,0.05179471235430933,0.0
33.192712,0.06448478241293912,0.0
33.196848,0.07840424404638532,0.0
33.200984,0.09142648880481975,0.0
33.205124,0.10556740023813571,0.0
33.209216,0.11970831167145167,0.0
33.213352,0.1326198315299512,0.0
33.21744,0.14161030918859882,0.0
33.221571999999995,0.14959284507229978,0.0
33.225652,0.1555594974061073,0.0
33.229788,0.1617475995397846,0.0
33.233875999999995,0.16995158522335527,0.0
33.238004,0.1791337860978104,0.0
33.242092,0.18910247894734247,0.0
33.24622,0.1913398122971056,0.0
33.250347999999995,0.19335569584699897,0.0
33.254484,0.19279065367179177,0.0
33.258616,0.19312282837159636,0.0
33.262704,0.19614665369643647,0.0
33.266796,0.19154984442144246,0.0
33.270888,0.18762880222159053,0.0
33.275028,0.1792216756466795,0.0
33.279115999999995,0.1667827819719817,0.0
33.283256,0.1571462638222543,0.0
33.287344,0.14639107899764528,0.0
33.291484,0.13653311104804808,0.0
33.295576,0.12711804269819033,0.0
33.299724,0.1226319583231312,0.0
33.30382,0.11926454062295366,0.0
33.307964,0.11802373137260437,0.0
33.312107999999995,0.11745868919739717,0.0
33.316252,0.11297260482233805,0.0
33.320344,0.10747857867233226,0.0
33.324432,0.09828496012234428,0.0
33.328524,0.09211516689719638,0.0
33.332612,0.08504815679703667,0.0
33.336752,0.08325372304701302,0.0
33.34084,0.07955413064703085,0.0
33.344972,0.07484659647210201,0.0
33.349104,0.07383865469715532,0.0
33.35324,0.07204422094713167,0.0
33.357375999999995,0.07495732137203688,0.0
33.361512,0.08325372304701303,0.0
33.365648,0.08583464877211362,0.0
33.36978,0.08942351627216091,0.0
33.373916,0.09323383357207794,0.0
33.378052,0.09872785972208374,0.0
33.38218,0.1050083778471665,0.0
33.386316,0.11196466304739135,0.0
33.390464,0.11780228157273463,0.0
33.394596,0.11971885789822599,0.0
33.398724,0.1215247093237825,0.0
33.402852,0.11963096834935684,0.0
33.40698,0.11885589404981274,0.0
33.411108,0.11693242649132485,0.0
33.415244,0.11694384416685769,0.0
33.419388,0.113336667758281,0.0
33.423532,0.11245086855880204,0.0
33.427676,0.10988136050923429,0.0
33.431819999999995,0.10663608538452445,0.0
33.435964,0.10134520012585901,0.0
33.440107999999995,0.09428960770123215,0.0
33.44426,0.08451263806750757,0.0
33.448395999999995,0.07854598573370003,0.0
33.452528,0.0715713916249458,0.0
33.456668,0.06347813084131,0.0
33.460795999999995,0.054487653182662375,0.0
33.464932,0.043702741773991104,0.0
33.469068,0.03213133839024288,0.0
33.473204,0.021567876781441356,0.0
33.477336,0.014500866681281636,0.0
33.481472,0.010457681905962007,0.0
33.485608,0.011908523280648188,0.0
33.489736,0.014035131730476446,0.0
33.493876,0.019326016989141902,0.0
33.497964,0.025595117438691813,0.0
33.502096,0.03301261114718553,0.0
33.506228,0.036025018796492767,0.0
33.510316,0.03791875977091843,0.0
33.51444,0.04228270157050982,0.0
33.518532,0.04869225350405684,0.0
33.52262,0.05384268727872519,0.0
33.526751999999995,0.06193594806236099,0.0
33.530848,0.06913199197098496,0.0
33.53498,0.07733597765455563,0.0
33.539072,0.08363480468816778,0.0
33.543204,0.08802847307182142,0.0
33.547343999999995,0.09051698280551654,0.0
33.551435999999995,0.0937919845142886,0.0
33.555575999999995,0.09605904444811399,0.0
33.559724,0.09886141997308433,0.0
33.563812,0.10345822924807832,0.0
33.567955999999995,0.10816576342300717,0.0
33.572052,0.11410268917275247,0.0
33.576204,0.11589712292277612,0.0
33.5803,0.11377051447294785,0.0
33.584388,0.11512204862323203,0.0
33.58848,0.11916523339855167,0.0
33.592568,0.12231120129885946,0.0
33.59666,0.12309769327393641,0.0
33.600752,0.12197902659905484,0.0
33.604844,0.12298696837400153,0.0
33.608988,0.12130325952391274,0.0
33.613132,0.12231120129885946,0.0
33.617284,0.12130325952391276,0.0
33.621428,0.12208975149898972,0.0
33.62552,0.12489212702396005,0.0
33.629656,0.13150481984884743,0.0
33.633736,0.14024412112356305,0.0
33.637868,0.1499913641732254,0.0
33.641952,0.1579441734728641,0.0
33.646083999999995,0.1592842899476154,0.0
33.650168,0.1565926393225799,0.0
33.654304,0.15167507302331415,0.0
33.658432,0.1524958180249897,0.0
33.662576,0.16051713337782547,0.0
33.666716,0.168461976857325,0.0
33.670848,0.18519179231367153,0.0
33.674983999999995,0.2140739974470426,0.0
33.679124,0.25478783523316656,0.009123480762206914
33.683208,0.3123844322223097,0.01789703414381468
33.687344,0.38273271409028314,0.02696425707217416
33.691488,0.47750791788777347,0.03566118957517066
33.695623999999995,0.5915710275156453,0.04455707138458345
33.699763999999995,0.737372354324129,0.053198823205657136
33.7039,0.9139039565382783,0.06168632516245033
33.708032,1.1210551092581578,0.07005098159054382
33.71216,1.352090977083413,0.07841117718350968
33.716304,1.603754867213801,0.08678783267459839
33.720431999999995,1.8809757636241198,0.09512198334995027
33.724576,2.181073433364868,0.10353287951215161
33.728716,2.5116685110358787,0.11192100074387573
33.7328,2.8724288219373477,0.120289902129346
33.73694,3.26311008091834,0.12859415602932456
33.741088,3.67595809312802,0.13685425595742717
33.745232,4.10568886454072,0.14509814513388256
33.749379999999995,4.553631093955656,0.1533038019931084
33.753524,5.008785311397286,0.1615282250515754
33.757652,5.468337723665109,0.1697696956420933
33.761796,5.933949204258144,0.16884612031253318
33.765924,6.396636166750742,0.16826778978687373
33.77006,6.8599532256163505,0.16733135435577015
33.774204,7.300328456953726,0.16681641007903222
33.778292,7.725004649960766,0.16604515291821076
33.782432,8.117709758311795,0.16552234007507216
33.786564,8.477092247856522,0.16515223463606052
33.790704,8.801701277220264,0.16493297809725502
33.794836,9.103433533253579,0.16467947082332238
33.79898,9.381071042057181,0.16443434687551917
33.803128,9.635178845806278,0.16423283687210488
33.807255999999995,9.871682452575081,0.16390725979353785
33.811395999999995,10.083514852263434,0.16357597830832285
33.815524,10.267075759695752,0.1632439249383405
33.819616,10.41889844994746,0.16298439245816657
33.823744,10.542018166018929,0.16277203776557028
33.827836,10.64071096016088,0.16258933158503908
33.831968,10.714988250048846,0.16246838118445744
33.836104,10.774165796808282,0.16231913970580902
33.840244,10.822397510114445,0.16211013141684025
33.844384,10.850833363792681,0.1619659870572645
33.848524,10.865864600868015,0.16181116475886234
33.852664,10.862352205241304,0.16175333162772207
33.856812,10.857011122837969,0.16162381369908654
33.860952,10.84504592993422,0.1615456923480002
33.865096,10.831740620555713,0.16149699776356322
33.869232,10.823264987927605,0.16141558261403835
33.873368,10.820172656549568,0.1612766319485059
33.877496,10.811475574121587,0.16120492926412594
33.881636,10.807474608193006,0.16104548321189044
33.885764,10.802675732613814,0.16086066840251162
33.889896,10.795628106009326,0.16068484901391103
33.89404,10.785888828779806,0.16053685923606859
33.898176,10.776936043525357,0.1603841903868328
33.902311999999995,10.771239951071156,0.1602088698888601
33.906452,10.773508085592123,0.15995596030941875
33.910588,10.78138097116303,0.15963879159905245
33.914728,10.79485860778388,0.1592574471159176
33.918864,10.81247873640445,0.15881885372209945
33.923004,10.828415156174932,0.15839660693203622
33.927092,10.84984560209542,0.15791653386889695
33.93122,10.869935931541159,0.15746384108191597
33.935352,10.894966662637229,0.15697491892373305
33.939488,10.922024694958724,0.15648981902018816
33.943572,10.956714779555583,0.1559485911988367
33.947708,10.996788165402515,0.15535481931242906
33.951851999999995,11.037315868524718,0.1547758887376514
33.955996,11.080989539547229,0.1541869874507873
33.960148,11.130378686519618,0.15353269594246619
33.964288,11.177419775242308,0.15292586819742157
33.968428,11.223231472390184,0.15234330008086813
33.972567999999995,11.2697189366132,0.15176720904313637
33.976712,11.316992892811292,0.15118733451015506
33.980852,11.36561838315967,0.15061256294733466
33.98498,11.420635116533065,0.1499828914364241
33.989112,11.469825649056649,0.14942643547549805
33.993244,11.51621380605526,0.14890338853627733
33.997376,11.563266312453484,0.14836023226877232
34.001515999999995,11.604259750526495,0.14786802716689945
34.005655999999995,11.644233829149027,0.14736341277331613
34.009792,11.682069881646196,0.1468632511611842
34.013928,11.72696152656799,0.14628207023124543
34.01806,11.773968362264082,0.14564864470194835
34.022148,11.822082446959522,0.144976491622527
34.026284,11.8628966540794,0.14434629440176974
34.03036,11.904818110198624,0.14367937983502083
34.03444,11.942242064267257,0.14302237042578148
34.038571999999995,11.97494706648543,0.1423864392071639
34.042708,12.007984243403408,0.14174321724647163
34.046848,12.041796494620929,0.14107396703111102
34.050984,12.077281037013005,0.14036982119736527
34.055116,12.112421987029748,0.1396566576435468
34.059244,12.15304554552096,0.13887724359541176
34.063372,12.19612788716181,0.13806572138485015
34.067499999999995,12.232253943602428,0.1373059211707603
34.071632,12.27050660849288,0.13652182391887452
34.075764,12.310885881833157,0.13571599058536296
34.079904,12.345217504523754,0.13497632226497613
34.084044,12.385940370239371,0.13419260684269693
34.088187999999995,12.42442590260522,0.1334393786678112
34.092332,12.462014218096062,0.13269446308957714
34.096468,12.494219232336828,0.13199287167333656
34.100615999999995,12.527210738552677,0.1312956853958486
34.104748,12.559194302993575,0.1306136966810819
34.108884,12.591853634509615,0.12993409508368894
34.113016,12.622386357575829,0.1292839310384309
34.117152,12.658523831691983,0.1285931625640439
34.121288,12.69667718935803,0.12788527584594497
34.125372,12.728550028898994,0.12721931446005255
34.129508,12.75683400093991,0.1265784534195272
34.133652,12.78623663965571,0.125928122837528
34.137784,12.812947627746475,0.12529721206580213
34.141915999999995,12.836524065612462,0.12470436489073634
34.146056,12.857408852853416,0.12413197543445144
34.150188,12.880088073844393,0.12355021668397019
34.154328,12.903553786810448,0.12296953989309153
34.158463999999995,12.93150558415156,0.12236898135199123
34.1626,12.96495140764268,0.12173445657726484
34.166732,12.995262680909024,0.12113606754966653
34.17086,13.031854472300447,0.12050529144697102
34.174992,13.07719698264212,0.11983871738318494
34.17912,13.126361227959244,0.1191734822423291
34.183264,13.178671441176677,0.11851260227128776
34.187404,13.230993072069642,0.11788009451428486
34.19154,13.292508321512596,0.11720100076930115
34.195684,13.352572729580865,0.11654776497373842
34.199832,13.413312904724274,0.11590500157247945
34.203972,13.475736788717771,0.11526248591210861
34.208124,13.548362233036205,0.11456543638764544
34.212268,13.62827613725467,0.11383607389929556
34.216404,13.70819004147313,0.11311436547418055
34.220548,13.788103945691592,0.11239488706899176
34.224684,13.864428982410008,0.11169563649365745
34.228815999999995,13.94007825205328,0.11099829003202642
34.232956,14.016059696396358,0.11029554197898293
34.2371,14.090235289313876,0.10958199680958162
34.241232,14.153644279731255,0.10892204621670629
34.245363999999995,14.21984422799807,0.10823164880395943
34.249504,14.283684700339656,0.10754584843349381
34.253636,14.34538714655588,0.10686211855101452
34.257784,14.397663106746714,0.10621374110657
34.26192,14.447346723536917,0.10555464793940454
34.266051999999995,14.486485187626846,0.10493641055558944
34.270176,14.526730900716123,0.10428858633158633
34.274308,14.553186185980417,0.10370809936668561
34.278436,14.580981587719464,0.10311233682231838
34.282571999999995,14.602164296633621,0.1025528534820613
34.286719999999995,14.620655354922745,0.10200631194057949
34.290852,14.630739286636956,0.10150357368386694
34.294996,14.632416091776257,0.10104281000168827
34.299136,14.63196628846573,0.10059956721950938
34.303287999999995,14.632413702030213,0.10015319703058095
34.307424,14.63588494091954,0.09968756583631498
34.311575999999995,14.635324412709078,0.0992473176136969
34.315708,14.632858725848658,0.09881728853039332
34.319835999999995,14.63084735626351,0.098397173271723
34.323972,14.632535579078345,0.09796001191303129
34.328104,14.627389659268424,0.09756226196153514
34.33224,14.61876559685839,0.09717263484540571
34.33638,14.601734407873442,0.09681949976776891
34.34052,14.582687335338603,0.09647767059340652
34.344656,14.56162437925387,0.09614766416516823
34.348792,14.543363798694108,0.09580390485986147
34.352928,14.517482583534509,0.09549609211119839
34.357064,14.49653035234971,0.09515894912674955
34.361208,14.474115862114695,0.09481774767099901
34.36534,14.454946647004387,0.09445084303714607
34.369476,14.436896098568962,0.09407458688433436
34.373564,14.419964216808417,0.09368829222517294
34.377692,14.406166885272649,0.0932798617313813
34.38182,14.393156045711956,0.09287201877036315
34.385948,14.381828915001352,0.09246223549529713
34.390035999999995,14.370058884691007,0.09206569038738827
34.394127999999995,14.365798764080564,0.09163778241940497
34.398216,14.364119569195218,0.09120551504258718
34.402344,14.36322686628495,0.090774423138274
34.406476,14.363796422424903,0.09034786282036962
34.41062,14.362128645215092,0.08993798788436118
34.414712,14.367527878105442,0.0895102629648688
34.418852,14.38301794642079,0.08904762068596575
34.422944,14.402318332036057,0.08856823842135388
34.427032,14.41859489232648,0.08810486905704984
34.431124,14.434871452616905,0.08764137030511789
34.435212,14.456642039057336,0.0871586985463226
34.439304,14.478412625497766,0.08667687546370298
34.443388,14.500072487038263,0.08619913592881723
34.44748,14.520159364628604,0.08572096989249327
34.45162,14.53475221606894,0.08526039694659647
34.455704,14.550574459084096,0.08478901300807033
34.45984,14.563594326574277,0.08432801087977727
34.46398,14.573911125763894,0.08385168878728623
34.46812,14.580074015278251,0.08337790934360027
34.472268,14.58409887866725,0.0828956856037706
34.476356,14.58296189060605,0.08242184542905859
34.480448,14.577228093269854,0.08196209817027326
34.484587999999995,14.571715745733531,0.08149708436409776
34.488732,14.56765423957189,0.08101577883087241
34.492824,14.569640384059932,0.08050341707688786
34.49696,14.567140444172912,0.080002163546974
34.501092,14.559711520311097,0.07952449776396861
34.505227999999995,14.551950421749474,0.07905628536487397
34.50936,14.552264275062958,0.07857049630907012
34.513444,14.558072154526448,0.07807143212572364
34.517528,14.565674467739964,0.07757002995945292
34.521612,14.573952548028618,0.07707335100516641
34.525748,14.582009178517403,0.07658294193827385
34.529832,14.59242528493142,0.07609689981912127
34.533912,14.610351301045334,0.0755882875117548
34.538048,14.626039983809488,0.07509580433485293
34.542179999999995,14.648562809198399,0.07457835800628096
34.546316,14.672215718937721,0.0740758511348477
34.550456,14.6997896708769,0.07355905480537095
34.554587999999995,14.729268781466036,0.07303740777938615
34.558724,14.759645108930185,0.07251513426205583
34.562856,14.79629053684388,0.07196204656499629
34.566996,14.829457822157462,0.071413371613039
34.571136,14.859146964870936,0.07086976694261916
34.575268,14.886144456959373,0.07033271275945054
34.579404,14.91706299124766,0.0697829687707312
34.583535999999995,14.952566917135407,0.06920424794368527
34.587668,14.990418901272855,0.06861103647002348
34.591804,15.026243584184876,0.06800828733768607
34.595952,15.059376616471862,0.06741317228994152
34.6001,15.091833881683707,0.06681656880441918
34.60424,15.123504654920474,0.06621946052541527
34.60838,15.154388936182166,0.06562104737706627
34.612524,15.183257333893962,0.0650319832167674
34.616664,15.211904281805888,0.06445273183255544
34.620812,15.245258763892744,0.06386453612003748
34.624952,15.274581478879815,0.06329530788994167
34.629088,15.307825236066735,0.06271615163133762
34.633224,15.340626093653917,0.06215090469199154
34.637356,15.37219755966628,0.06159644826042437
34.641492,15.40623922650381,0.061047028555853575
34.645627999999995,15.435019734666739,0.06052352216654284
34.649768,15.466835485830039,0.06001129878166741
34.653904,15.498994829368677,0.05951273599705475
34.658036,15.530711273307576,0.0590260716972367
34.662168,15.559403891921633,0.058551662454785144
34.666308,15.580598018511326,0.058113402050085555
34.670456,15.6005627535262,0.05768607388769711
34.674592,15.61717148851643,0.057277886554431945
34.678716,15.63165361505683,0.05687992507823975
34.682804,15.643001191372457,0.05649516200549493
34.68694,15.658945576963077,0.0561064340215609
34.691072,15.675455004728907,0.05572530589779923
34.695204,15.693083099169616,0.055338831034764474
34.699344,15.702758384310686,0.05497533059317426
34.703488,15.70660746860195,0.054625983237732684
34.707632,15.70698982796863,0.054296551096006694
34.711776,15.697514219385715,0.05399248992662618
34.71592,15.684904060578022,0.053700305502722714
34.720016,15.674653377695561,0.053415145915405755
34.724163999999995,15.659473710838304,0.05314243020310449
34.728311999999995,15.646653519906273,0.05287644984047354
34.732451999999995,15.633157561899104,0.052605579105592604
34.736548,15.621345312742019,0.05233669346079819
34.74068,15.610319555560014,0.05207000423813181
34.744816,15.598175131703126,0.05180847424679787
34.7489,15.587825141596264,0.0515454847892671
34.753028,15.571316775939787,0.05130220275785731
34.757107999999995,15.55526272755858,0.05106886465356236
34.761232,15.536184853852532,0.050843521293388476
34.765316,15.517672022321696,0.05062545715705075
34.769448,15.490087714816337,0.050433139423794425
34.773584,15.463289899286055,0.050242887160951946
34.777724,15.431120200181235,0.050074223949924244
34.781859999999995,15.400855659726373,0.04990153052770521
34.785996,15.367456569046736,0.049739049037326254
34.790128,15.334168203267033,0.049573066478542885
34.794256,15.308279022287298,0.04939953394010319
34.79834,15.282279116407626,0.0492280884141844
34.802476,15.252358168328103,0.04906510899369307
34.80656,15.223112987323724,0.048906734289860025
34.810696,15.18815233036947,0.04875669519627973
34.81478,15.147033297865596,0.048625587508201
34.81892,15.10019878941185,0.048502532313125186
34.823052,15.050229730733328,0.04839005171670027
34.827192,14.999928497355004,0.0482849792088171
34.831323999999995,14.950745930651557,0.048173481905647714
34.83546,14.903579247498008,0.04805549276594638
34.839548,14.852823696844407,0.04793697446370799
34.843675999999995,14.800052262640914,0.047823069658268894
34.847816,14.74167607738748,0.04771408164492384
34.85196,14.680718966408946,0.04760142578100306
34.856108,14.614046379480538,0.04749647181578167
34.860244,14.545800808601976,0.047384848652380074
34.864384,14.475650079073453,0.0472749353148947
34.868528,14.40650729131988,0.04716097825791254
34.872664,14.332546244491443,0.047054565386325985
34.876804,14.248272912438132,0.04695861013237652
34.880948,14.157276162660006,0.04687335442116125
34.885079999999995,14.055967127657008,0.046799081046109636
34.88922,13.946250966079093,0.04673288145238679
34.893352,13.82913561970122,0.04667189419862652
34.897488,13.709328622698306,0.04661026076751702
34.901627999999995,13.581003774220552,0.0465602013751349
34.905767999999995,13.442588090317795,0.046515769894223104
34.9099,13.296773221615076,0.04647656587804428
34.914036,13.139416676112669,0.04645821891162125
34.918175999999995,12.972645062260405,0.04645169162872266
34.92226,12.793877454333181,0.0464542664118502
