Time,Force,Position
31.579027999999997,0.06088362318100878,0.0
31.583124,0.05731061229561016,0.0
31.58726,0.051943167660187896,0.0
31.591356,0.04859160657465902,0.0
31.595448,0.04322416193923675,0.0
31.599543999999995,0.039651151053838124,0.0
31.60364,0.0370860819433862,0.0
31.607736,0.03160791240802907,0.0
31.611836,0.026129742872671925,0.0
31.615967999999995,0.020540848437379914,0.0
31.62012,0.015062678902022772,0.0
31.624208,0.008687292491653809,0.0
31.628339999999994,0.006011498481267009,0.0
31.632424,0.0023277626959335154,0.0
31.636512,0.0006599104604934103,0.0
31.6406,0.0,0.0
31.644696,0.0,0.0
31.648788,0.0,0.0
31.65288,0.0,0.0
31.657011999999995,0.0,0.0
31.6611,0.0,0.0
31.665232,0.0,0.0
31.669315999999995,0.0,0.0
31.673396,0.0,0.0
31.677488,0.0,0.0
31.681568,0.0,0.0
31.685703999999998,0.0,0.0
31.689788,0.0,0.0
31.693872,0.0,0.0
31.698004,0.0,0.0
31.702079999999995,0.0,0.0
31.706211999999997,0.0005377678850256866,0.0
31.710296,0.004885853069968409,0.0
31.714431999999995,0.008336721379899308,0.0
31.718515999999997,0.011001097714753253,0.0
31.722648,0.01355474914967233,0.0
31.726732,0.01610840058459141,0.0
31.730867999999997,0.019669993794457177,0.0
31.734948,0.021104978554494686,0.0
31.739028,0.027358222389395923,0.0
31.743164,0.03271424934928534,0.0
31.747296,0.03706233453422807,0.0
31.751436,0.03950526106921227,0.0
31.755571999999997,0.04094024582924977,0.0
31.759708,0.044391114139180676,0.0
31.763783999999998,0.0487391993241234,0.0
31.76792,0.05297655960913125,0.0
31.772,0.05519803634424571,0.0
31.77614,0.05921394682938382,0.0
31.780272,0.06681872481456923,0.0
31.784352,0.07341556102480792,0.0
31.788495999999995,0.07645080402518087,0.0
31.792587999999995,0.07668367150058346,0.0
31.79672,0.07680581407605118,0.0
31.800812,0.07861166550160767,0.0
31.804911999999995,0.08254412537699245,0.0
31.808996,0.08748452702732389,0.0
31.81308,0.08951182825275014,0.0
31.817167999999995,0.0957923463778329,0.0
31.821251999999998,0.09445222990308158,0.0
31.825399999999995,0.09221489655331845,0.0
31.829488,0.08919107122847836,0.0
31.833616,0.08975611340368557,0.0
31.837703999999995,0.0902104306789579,0.0
31.84184,0.08954608127934868,0.0
31.845927999999997,0.08798451500472763,0.0
31.85006,0.08843883227999996,0.0
31.854187999999997,0.09202769978004725,0.0
31.858315999999995,0.09113048290503545,0.0
31.862407999999995,0.08384202300500598,0.0
31.866499999999995,0.07856944665486991,0.0
31.870588,0.07732863740452063,0.0
31.87468,0.07317472772926613,0.0
31.878772,0.07204464337885172,0.0
31.882859999999997,0.07102528392837217,0.0
31.886984,0.06698209915305252,0.0
31.891076,0.06081230592790462,0.0
31.895208,0.05744488822772708,0.0
31.899339999999995,0.05094292030277458,0.0
31.903479999999995,0.04814054477780425,0.0
31.907619999999994,0.04971352872795816,0.0
31.911759999999997,0.055661872153236286,0.0
31.915848,0.05902928985341386,0.0
31.919988,0.06430186620354991,0.0
31.924076,0.06666134212878076,0.0
31.928163999999995,0.06610771762910642,0.0
31.932308,0.06163305092958015,0.0
31.936443999999995,0.0558227066944184,0.0
31.940596,0.05281029904511116,0.0
31.944731999999995,0.05249398095995522,0.0
31.948868,0.05116972109985258,0.0
31.952996,0.04883751946480325,0.0
31.957136,0.04841047647971243,0.0
31.961271999999997,0.04596754994472823,0.0
31.965408,0.042516681634797326,0.0
31.969488,0.040073755099813126,0.0
31.973631999999995,0.03874949523971049,0.0
31.977715999999997,0.03652801850459603,0.0
31.98186,0.03531448354442826,0.0
31.985996,0.033203731709248674,0.0
31.990128,0.028512054148968485,0.0
31.994263999999998,0.021239450863587698,0.0
31.998408,0.014864064453218735,0.0
32.002551999999994,0.007702186067772818,0.0
32.006684,0.0025561912322202914,0.0
32.010811999999994,0.0015482494572735962,0.0
32.01494,0.004572074782113678,0.0
32.019032,0.007702186067772815,0.0
32.023112,0.007923635867642557,0.0
32.02724,0.007923635867642559,0.0
32.031368,0.008472821428201096,0.0
32.035512,0.008472821428201098,0.0
32.039648,0.009919223863771458,0.0
32.043788,0.01215211827441877,0.0
32.047928,0.013487795810054264,0.0
32.052063999999994,0.013926256470677929,0.0
32.056208,0.014364717131301597,0.0
32.0603,0.014364717131301599,0.0
32.064395999999995,0.014364717131301599,0.0
32.068492,0.0143647171313016,0.0
32.072579999999995,0.0170405111416884,0.0
32.076668,0.02061352202708702,0.0
32.080752,0.023965083112615897,0.0
32.08484,0.024514268673174435,0.0
32.088932,0.024514268673174435,0.0
32.093072,0.023289316037473817,0.0
32.097164,0.020048479851879814,0.0
32.101308,0.01858622080166078,0.0
32.105448,0.023736654576329126,0.0
32.109596,0.028428332136609315,0.0
32.113692,0.03257082413633096,0.0
32.117824,0.037262501696611154,0.0
32.121903999999994,0.03961055994630916,0.0
32.125992,0.04027490934591838,0.0
32.130075999999995,0.040828533845592735,0.0
32.134172,0.041382158345267095,0.0
32.138299999999994,0.04103856596992963,0.0
32.142436,0.04113343425521583,0.0
32.146576,0.04212551941551385,0.0
32.150712,0.0440148214508237,0.0
32.154852,0.0413390274404369,0.0
32.158987999999994,0.03776601655503828,0.0
32.163076,0.03441445546950941,0.0
32.167168,0.034525180369444276,0.0
32.171304,0.03630375750481925,0.0
32.175388,0.041892651940111256,0.0
32.179475999999994,0.04826803835048022,0.0
32.18356,0.04905453032555718,0.0
32.187644,0.04491203832583553,0.0
32.191779999999994,0.04245325517620266,0.0
32.195916,0.042796847551540125,0.0
32.200052,0.043140439926877584,0.0
32.204187999999995,0.04729434960213209,0.0
32.208316,0.05425063480235692,0.0
32.212399999999995,0.06400929552755211,0.0
32.216539999999995,0.07455444822782424,0.0
32.220676,0.08890991822801342,0.0
32.224812,0.10427333000314928,0.0
32.228939999999994,0.11873952490327332,0.0
32.233031999999994,0.12860891052840337,0.0
32.23716,0.14036759818884326,0.0
32.241288,0.14921318542437795,0.0
32.245424,0.16007465620980602,0.0
32.249564,0.1722921000846341,0.0
32.253699999999995,0.18216148570976415,0.0
32.257791999999995,0.1855289034099417,0.0
32.261931999999995,0.1871018873600956,0.0
32.26602,0.19662768060988822,0.0
32.27016,0.20727214053456236,0.0
32.274296,0.21780587555930164,0.0
32.278436,0.22172691775915354,0.0
32.28258,0.22475074308399362,0.0
32.286672,0.2219483675590233,0.0
32.29082,0.2143277329591892,0.0
32.294956,0.2032289557592427,0.0
32.299091999999995,0.19235162835916597,0.0
32.303228,0.1779012900736906,0.0
32.307364,0.16244301001326855,0.0
32.311499999999995,0.14698472995284648,0.0
32.315636,0.1352260422924066,0.0
32.319776,0.12346735463196667,0.0
32.323908,0.11517095295699051,0.0
32.328044,0.10430948217156244,0.0
32.332128,0.09143212783624097,0.0
32.33626,0.07978416507573595,0.0
32.340388,0.07082785294026638,0.0
32.344524,0.06287948257974352,0.0
32.348664,0.050899345119433864,0.0
32.352799999999995,0.038919207659124225,0.0
32.356932,0.02615257822373763,0.0
32.361064,0.017196266088268065,0.0
32.365196,0.009137170827810327,0.0
32.369319999999995,0.0039911759922578015,0.0
32.373408,0.0017582815816104876,0.0
32.37754,0.001209096021051949,0.0
32.38168,0.0005491855605585386,0.0
32.385816,0.0005491855605585387,0.0
32.389956,0.0005491855605585387,0.0
32.394043999999994,0.0005491855605585387,0.0
32.398184,0.0005491855605585387,0.0
32.402272,0.0005491855605585387,0.0
32.406416,0.0,0.0
32.410556,0.0,0.0
32.414648,0.0,0.0
32.418788,0.0,0.0
32.422875999999995,0.0,0.0
32.426967999999995,0.0,0.0
32.43112,0.0,0.0
32.435252,0.0,0.0
32.439387999999994,0.0,0.0
32.44352799999999,0.0,0.0
32.447664,0.0003277357606887961,0.0
32.451804,0.00032773576068879603,0.0
32.45594,0.00032773576068879603,0.0
32.460075999999994,0.0003277357606887961,0.0
32.46416,0.0003277357606887961,0.0
32.468292,0.0003277357606887961,0.0
32.472424,0.0003277357606887961,0.0
32.476512,0.001663413296324287,0.0
32.480647999999995,0.005801466356930117,0.0
32.484784,0.012741894942506288,0.0
32.488924,0.020800990202964026,0.0
32.493012,0.02841718586368228,0.0
32.497144,0.03492613252505182,0.0
32.501279999999994,0.04740625796276521,0.0
32.505408,0.07068723892721902,0.0
32.509536,0.10355110151912969,0.0
32.513664,0.15038462288915433,0.008244495098496717
32.517792,0.21333724683818683,0.01683921547102319
32.52188,0.30094966019213887,0.025293915043795863
32.526019999999995,0.41704359792646034,0.033577935861369694
32.530159999999995,0.5594968905304387,0.0418317546343011
32.534248,0.7299729513003983,0.05001808168867151
32.538388,0.9276897272003781,0.058127545088250895
32.542528,1.1505091921050168,0.06618736795749305
32.546671999999994,1.3946210287143974,0.07431286583783725
32.550819999999995,1.6599145121285852,0.08250367010554538
32.554964,1.9487491182728105,0.09072330671534831
32.559107999999995,2.261251428661658,0.09895960670624745
32.563247999999994,2.5947253537309756,0.10724982262974364
32.567376,2.951186777030656,0.11554237370737412
32.571515999999995,3.3305249736607663,0.12386446805206165
32.575647999999994,3.736195250870352,0.13214049304921474
32.579784,4.167056106633465,0.14036261959155213
32.583924,4.613658219573651,0.14851734797796212
32.588064,5.0651128446153,0.15667537241858162
32.592195999999994,5.524753146431992,0.16476569666091262
32.596332,5.982797628947464,0.164576638143599
32.600472,6.4384255471600405,0.16394211459302532
32.604608,6.870855935017917,0.16344368896837366
32.608752,7.272666772370062,0.16311925354479073
32.612888,7.645984667666306,0.1628128173522433
32.617016,7.992382604856801,0.16253768656473822
32.621148,8.314231477542313,0.16231062916347294
32.625276,8.615918062873494,0.16209679174971403
32.629408,8.902825662100419,0.1617731064448356
32.63354399999999,9.177867375647994,0.16130918200147296
32.637684,9.434751267715605,0.1607634223614946
32.641816,9.666853227802825,0.16019132178342466
32.645959999999995,9.879434414584262,0.1595018697227415
32.650099999999995,10.068573785860062,0.15876921103341257
32.654247999999995,10.238646701105349,0.15794625068818202
32.658387999999995,10.388213736620973,0.15712014863756796
32.662532,10.519867235807567,0.15629629672924947
32.666672,10.630262616316017,0.15555023622614336
32.670807999999994,10.726909787846218,0.15478043303742547
32.67494,10.807804284523815,0.15405347133487604
32.679072,10.876657116424322,0.15334776389272464
32.683208,10.928550717248472,0.15275502212194964
32.687348,10.978527741747133,0.15215579529802456
32.691492,11.033888067495862,0.15150703082979095
32.695623999999995,11.096769720620026,0.15081090013506854
32.699755999999994,11.158200532369504,0.15014957976131948
32.703896,11.216596101118611,0.14950220285029056
32.708028,11.268023966991958,0.14888704440655454
32.712176,11.3112433207392,0.14829828485345034
32.716311999999995,11.342443845060416,0.14777870823313918
32.720444,11.368249650456029,0.14728349951873254
32.724576,11.394719805251249,0.1467618145543435
32.728704,11.417822542346293,0.14626752305544952
32.732831999999995,11.438344353716236,0.14579454321597043
32.736968,11.450791213211073,0.14539404201575387
32.741104,11.455827470230414,0.14503800335149558
32.745236,11.451880140824104,0.1447317886699147
32.749376,11.44735635156705,0.14439077233024933
32.753516,11.442378245034726,0.14404000849696394
32.757659999999994,11.43515138747711,0.14369427709999283
32.761799999999994,11.428367429519227,0.14333045983905934
32.76594,11.426623180436083,0.14290552168134468
32.77008,11.427116264702697,0.1424478677094625
32.774207999999994,11.42233677261918,0.14203098587893304
32.77834,11.406790678035518,0.14170344530872475
32.782472,11.394379133676631,0.1413356615113146
32.786596,11.381856864417808,0.1409718422953669
32.790732,11.375615113284068,0.14055688114383935
32.794867999999994,11.371400663375757,0.14014629097882556
32.79900799999999,11.370221456467817,0.1397280632410412
32.803096,11.36949656683515,0.13932064483494885
32.807176,11.369336719377689,0.13892024602147268
32.811311999999994,11.366939538570469,0.13855189628787498
32.815444,11.366447516413203,0.1381652068928885
32.819579999999995,11.369987261355725,0.1377314484685143
32.823708,11.378123815573243,0.13725826423753254
32.827839999999995,11.391422221240958,0.13675183720967235
32.831979999999994,11.407190827733844,0.1362350350405222
32.836116,11.425086042676556,0.13569462664549148
32.840252,11.445783633144236,0.13513142116800123
32.844384,11.466259773812048,0.1345785988926339
32.848471999999994,11.48730095665507,0.13403552904443833
32.852604,11.50789923989835,0.13351252117927073
32.856731999999994,11.531864940841807,0.13297200994380826
32.860868,11.565356435035056,0.1323442356711027
32.865004,11.596942770578346,0.13173725053275567
32.869144,11.633347365196501,0.13108884083785635
32.873276,11.665155150539661,0.13048092266181444
32.877412,11.699200269232584,0.12984622751284816
32.881552,11.736712112850089,0.1291673169527196
32.885692,11.77466685606733,0.12847379145083615
32.889824,11.814858932634339,0.12775681087479676
32.893967999999994,11.85986926827621,0.12699983028801695
32.898095999999995,11.903760937243199,0.1262608432316658
32.902232,11.950012082135416,0.12552175264924928
32.906364,11.996152502127702,0.1247929253060513
32.9105,12.041617155044843,0.12406664874426405
32.914632,12.084279432437015,0.12336453968782263
32.918768,12.123917884504348,0.12269668101829168
32.9229,12.16333488677181,0.12204202878716833
32.927032,12.20353838101435,0.12138827302499877
32.931168,12.245536309006912,0.12072945397312494
32.9353,12.290336612524445,0.12005549511200819
32.939432,12.337828566667014,0.1193705669638229
32.943572,12.382075245684875,0.11872717001331509
32.947708,12.429124300227704,0.11806831904818112
32.95184,12.469339212145778,0.11746793248387066
32.955976,12.513142991563893,0.1168500562722046
32.960108,12.555495929607329,0.11626040887373282
32.964243999999994,12.592476984076223,0.11572986304510112
32.968384,12.63159606467048,0.11520719736674868
32.972524,12.667248420340156,0.11472969281376658
32.976656,12.698869008910046,0.11428945842041963
32.980796,12.72948165570499,0.11385867901561555
32.984936,12.758410593649845,0.11343671726062823
32.989079999999994,12.785545097844675,0.11302647593451991
32.993216,12.80864783493972,0.11265063992711666
32.997356,12.835671614234615,0.1122466473043539
33.0015,12.85989301800454,0.11186026093839577
33.005592,12.882652162724247,0.11147377557086761
33.009688,12.903949048393732,0.11108616381001488
33.01382,12.919076140838072,0.11072774005196113
33.017951999999994,12.92512033963236,0.11041803384266843
33.022084,12.92701062875139,0.11012044622375006
33.026219999999995,12.928557325495085,0.10980911086380812
33.030364,12.927523096513678,0.10950813275450402
33.034499999999994,12.933323010157029,0.10915887074977898
33.038636,12.936652722975216,0.10881631076846489
33.042772,12.940757510092945,0.10844888034846255
33.046907999999995,12.947996847435451,0.10805422324731853
33.051044,12.951979491977712,0.1076662445892765
33.055184,12.953602660594743,0.1072791553239953
33.05932,12.959257596311561,0.10686189522718123
33.063455999999995,12.969730791103242,0.10641485240840291
33.067544,12.980203985894924,0.10596929194733304
33.071672,12.989447789111788,0.10553889185199956
33.075799999999994,13.005525734953409,0.1050636314117568
33.079927999999995,13.01622037954496,0.10461310500214083
33.084056,13.03464638363628,0.10411509170591628
33.088196,13.05151082145298,0.10364305875766808
33.092336,13.070058968119769,0.10316808716714457
33.096476,13.091298765411592,0.10268165206123533
33.100612,13.122064355953208,0.10213991377528618
33.104752,13.153727163369835,0.10159577587461113
33.108836,13.187073679636553,0.10105069364667826
33.112924,13.218182862553508,0.10052770396606096
33.117016,13.244019469120325,0.10002575485370317
33.121156,13.268626684112323,0.09953888166028806
33.1253,13.292004507529507,0.09906818222257248
33.129392,13.31347717229673,0.09860919081059887
33.13348,13.339657371238888,0.09812820821577636
33.137615999999994,13.372450263005929,0.09761441407466172
33.14176,13.40176501217286,0.0971134919054387
33.145892,13.426704401864663,0.09662878089656243
33.150028,13.449062865831369,0.09615149568974153
33.15416,13.475895996497599,0.09563559286293781
33.158292,13.498918809863913,0.09514259705080924
33.162428,13.531356691580084,0.09460771498607047
33.166568,13.558189822246314,0.09410191334614018
33.170655999999994,13.590616286286952,0.09354969243881069
33.1748,13.624272141902408,0.0929875263295254
33.178928,13.659268113992614,0.09241144537455875
33.18306,13.69067521858277,0.09185113331328464
33.187192,13.727011307147727,0.09126765642175459
33.191323999999994,13.760655745087648,0.09069491100658948
33.195468,13.802585167027011,0.09007095795298924
33.199608,13.847427689391283,0.08943446215450616
33.203748,13.896069111379937,0.08876047153472369
33.207871999999995,13.947280041418159,0.08806260109482934
33.212004,14.004084304830787,0.08732445948430266
33.216131999999995,14.055726716793217,0.08659959933114961
33.220264,14.105341827530221,0.08586946521854985
33.224408,14.157194271616987,0.0851250740890756
33.228548,14.212402715728397,0.08435883906607212
33.232684,14.271077884764388,0.08356661546039519
33.236771999999995,14.326274911200265,0.08278594382009821
33.240908,14.384152170585645,0.08198040987014117
33.245003999999994,14.43485169497093,0.0811998783248706
33.249143999999994,14.487112785630837,0.08040135439401373
33.253288,14.531974691490781,0.07962946267093306
33.257424,14.576271555175518,0.07885520488748646
33.261576,14.621576360635201,0.07808073880195157
33.26571199999999,14.668221282569634,0.0772960409478417
33.269848,14.706680527729029,0.07653510574822357
33.273979999999995,14.746812064062977,0.07575343407454171
33.278116,14.77864719872195,0.07499877574921378
33.282248,14.807790682755888,0.07425126675733663
33.286387999999995,14.834696833440061,0.0735228761535289
33.290527999999995,14.858579158799396,0.07281132665182266
33.294608,14.876524558408981,0.07212753506823455
33.298736,14.89379419094343,0.07143909282281857
33.30282,14.905913389703207,0.07077654847713653
33.306956,14.916238154712962,0.07011868451184428
33.311091999999995,14.921412485948048,0.06948668886670954
33.31522399999999,14.926033192683459,0.06887145092954366
33.319356,14.93233760826896,0.0682577567018674
33.323435999999994,14.933602314979725,0.06766598899512692
33.32752,14.932961863040532,0.06707916801686864
33.331608,14.931989236401535,0.06650202929908934
33.335744,14.933708260387572,0.06592045813191455
33.339887999999995,14.930609025298748,0.06535319741619708
33.34402,14.924707414684953,0.06479321129415626
33.348156,14.916457745821461,0.06425036985492512
33.352284,14.911796944458015,0.06370262841251448
33.356412,14.906361068795025,0.06317563717661992
33.360544,14.900482293532297,0.06265877067814513
33.364676,14.90020826931951,0.062131854979390125
33.368815999999995,14.901728678856747,0.061604564328011854
33.372912,14.90302763859411,0.06108308152846925
33.376952,14.906907524056576,0.06056242601728368
33.380984,14.913933377419353,0.06005021784599886
33.385112,14.926563981832064,0.0595280570320012
33.389247999999995,14.936735803095146,0.05902419440938015
33.393348,14.94780484123324,0.058518986833506474
33.39738,14.955960778946427,0.05802211535309477
33.401508,14.957958341109999,0.0575485751309341
33.405596,14.96253682899867,0.05707576302064618
33.409732,14.968688300837497,0.05660702919477001
33.413867999999994,14.970918730476473,0.056148734175513235
33.418008,14.971022551665618,0.05569955456375692
33.422096,14.971802139929906,0.05525414456819351
33.426236,14.96473964379449,0.05482761960569126
33.43038,14.954088280159025,0.05440177084931905
33.434535999999994,14.935705557023793,0.053991956222577
33.43868,14.909247882013453,0.053583773216634954
33.442764,14.878304122628059,0.05317467475875
33.44690799999999,14.833127035817942,0.05278926539105394
33.450996,14.771811462933142,0.05242953834321549
33.455132,14.702199488373367,0.05207502960722052
33.459267999999994,14.622385953488656,0.051729154615251835
33.463404,14.531362916504065,0.05139487938555107
33.467488,14.426782319169895,0.05108732013555832
33.471571999999995,14.314691812135825,0.05078652671349805
33.475708,14.19386200382704,0.05050153635290289
33.479844,14.063617127168396,0.05022622342016873
