Time,Force,Position
41.27487599999999,0.03385285702395815,0.0
41.279008,0.045072280723562085,0.0
41.283148,0.05976984702327845,0.0
41.287288,0.07357019644798299,0.0
41.29142,0.08714909607281779,0.0
41.295556,0.10464903789750449,0.0
41.29969199999999,0.12125176284717938,0.0
41.303828,0.13695727092184243,0.0
41.307964,0.15075762034654697,0.0
41.3121,0.16140208027122113,0.0
41.31623199999999,0.1711706625961389,0.0
41.32036,0.18093924492105665,0.0
41.324488,0.19171576902092108,0.0
41.328624,0.20047640957089216,0.0
41.33275199999999,0.20798631927079134,0.0
41.336884,0.21336962052086228,0.0
41.34101999999999,0.21774497999598652,0.0
41.34515199999999,0.2199937310212825,0.0
41.349292,0.21652700609670292,0.0
41.353432,0.21003645584728325,0.0
41.357576,0.20262734944759636,0.0
41.361716,0.19140792574799242,0.0
41.36586,0.17671035944827607,0.0
41.36999599999999,0.16291001002357153,0.0
41.37412799999999,0.14933111039873675,0.0
41.378264,0.13183116857405003,0.0
41.382392,0.1152284436243752,0.0
41.386524,0.09952293554971214,0.0
41.390664,0.08572258612500759,0.0
41.39480399999999,0.07483533712520828,0.0
41.39893599999999,0.0650667548002905,0.0
41.403076,0.055298172475372734,0.0
41.407212,0.04452164837550828,0.0
41.41134399999999,0.03576100782553721,0.0
41.415488,0.027000367275566144,0.0
41.41962399999999,0.01924766850054177,0.0
41.42376,0.010487027950570707,0.0
41.427852,0.0037422709504930265,0.0
41.43198,0.000807831250332383,0.0
41.436112,0.000574963774929788,0.0
41.44024,0.001260652449794447,0.0
41.44436399999999,0.004637991749694576,0.0
41.44849599999999,0.004637991749694575,0.0
41.452636,0.005212955524624363,0.0
41.456768,0.005787919299554151,0.0
41.460916,0.007481549749365505,0.0
41.46505199999999,0.007481549749365505,0.0
41.469208,0.007481549749365505,0.0
41.473352,0.007481549749365505,0.0
41.47750799999999,0.007481549749365505,0.0
41.48163999999999,0.007481549749365505,0.0
41.485776,0.007481549749365505,0.0
41.489912,0.007481549749365505,0.0
41.49404799999999,0.007481549749365505,0.0
41.498184,0.007481549749365505,0.0
41.502324,0.007481549749365505,0.0
41.50645599999999,0.007481549749365506,0.0
41.510592,0.007481549749365506,0.0
41.514728,0.007481549749365506,0.0
41.51885599999999,0.006906585974435718,0.0
41.522888,0.0062208972995710585,0.0
41.527028,0.00284355799967093,0.0
41.53105599999999,0.00284355799967093,0.0
41.535188,0.0022685942247411416,0.0
41.539272,0.0016936304498113535,0.0
41.54340799999999,0.0,0.0
41.54754,0.0,0.0
41.551624,0.0010178633746692727,0.0
41.555764,0.004162335199166806,0.0
41.559904,0.007306807023664338,0.0
41.564036,0.013253654373132211,0.0
41.568164,0.01819255994765339,0.0
41.572292,0.023131465522174568,0.0
41.576416,0.027959646196760876,0.0
41.58054799999999,0.03436081082150109,0.0
41.58468799999999,0.041769917221187995,0.0
41.588824,0.04727386497091638,0.0
41.59296,0.05378575449559147,0.0
41.5971,0.06130558579521324,0.0
41.60123599999999,0.06501509979491799,0.0
41.605384,0.06861388889468786,0.0
41.60952,0.06941030246948737,0.0
41.613668,0.0694103024694874,0.0
41.6178,0.0694103024694874,0.0
41.621932,0.07020671604428692,0.0
41.62606,0.072908288269045,0.0
41.630196,0.07290828826904498,0.0
41.634328,0.0718904248943757,0.0
41.638468,0.06874595306987817,0.0
41.642604,0.06617644502031042,0.0
41.64674,0.06022959767084254,0.0
41.650876,0.05676287274626297,0.0
41.655008,0.0543040895966301,0.0
41.659144,0.050948089571985405,0.0
41.663284,0.044546924947245194,0.0
41.667424,0.037137818547558286,0.0
41.671556,0.03220883457275969,0.0
41.675684,0.025696945048084608,0.0
41.679812,0.018177113748462828,0.0
41.683936,0.015264013323557615,0.0
41.688064,0.015153288423622742,0.0
41.692204,0.01784493904865821,0.0
41.696336,0.023238161898451726,0.0
41.700472,0.030425818498268888,0.0
41.70460799999999,0.03379323619844644,0.0
41.70874799999999,0.03144517794874844,0.0
41.712836,0.031687967023873616,0.0
41.71698799999999,0.03168796702387361,0.0
41.721124,0.03168796702387361,0.0
41.725276,0.031113003248943824,0.0
41.729412,0.031113003248943824,0.0
41.73350799999999,0.029640822599002213,0.0
41.737644,0.027514214149173953,0.0
41.741776,0.02941937279913247,0.0
41.745912,0.03548836272406807,0.0
41.75004799999999,0.04066013577399184,0.0
41.754184,0.045256945048985836,0.0
41.758324,0.04830210964908134,0.0
41.76245599999999,0.05246594092405842,0.0
41.766592,0.05942222612428328,0.0
41.77072,0.061892426949449006,0.0
41.774852,0.06626778642457325,0.0
41.778992,0.06683282859978046,0.0
41.78313599999999,0.06280106149999366,0.0
41.787276,0.06380900327494037,0.0
41.791408,0.07042169609982775,0.0
41.795536,0.07826378049953155,0.0
41.799668,0.08444349532440203,0.0
41.803808,0.09152042702428431,0.0
41.80795199999999,0.09388982454923774,0.0
41.81209199999999,0.09928304739903127,0.0
41.816228,0.10366832847387811,0.0
41.820368,0.10680287869865306,0.0
41.824512,0.10669215379871817,0.0
41.828652,0.10400050317368272,0.0
41.832796,0.1050084449486294,0.0
41.836932,0.10612711162351098,0.0
41.84106799999999,0.1143013707230194,0.0
41.845204,0.12034902137269955,0.0
41.84934,0.11910821212235026,0.0
41.85347599999999,0.11966183662202463,0.0
41.85761599999999,0.11831030247174046,0.0
41.86175599999999,0.12177702739632004,0.0
41.865888,0.1301727362956982,0.0
41.870024,0.13834699539520665,0.0
41.87415599999999,0.14483754564462628,0.0
41.878288,0.14830427056920586,0.0
41.882432,0.1564785296687143,0.0
41.88656399999999,0.16465278876822273,0.0
41.8907,0.17854252381760669,0.0
41.894828,0.1854873913422987,0.0
41.89896,0.19344020064193737,0.0
41.903092,0.19937712639168265,0.0
41.90723199999999,0.20575695174116743,0.0
41.911368,0.21191532729078247,0.0
41.915508,0.21157173491544498,0.0
41.919644,0.20910153409027926,0.0
41.92378,0.1988999737653446,0.0
41.927932,0.19250873074032698,0.0
41.932072,0.19071429699030334,0.0
41.93621999999999,0.18802264636526783,0.0
41.940356,0.18342583709027388,0.0
41.944484,0.17580520249043982,0.0
41.948616,0.1642536040910312,0.0
41.952752,0.15090757194159904,0.0
41.956892,0.13745081489223196,0.0
41.961032,0.127272089918363,0.0
41.965172,0.11397023239525195,0.0
41.969304,0.10180987689808817,0.0
41.97344,0.09673936685214977,0.0
41.977568,0.10190467015774463,0.0
41.9817,0.11641998761539371,0.0
41.98584399999999,0.14746305422519168,0.00906684066009114
41.98997599999999,0.19045989606321018,0.018296726652028264
41.994108,0.2510152641793899,0.027132786884006645
41.99824399999999,0.3348560521991393,0.035697558777228744
42.00238,0.4427687520975352,0.04399157907190411
42.00650399999999,0.5748755064500455,0.05222536948374643
42.010636,0.7227691886817591,0.06053694288495205
42.014768,0.8921652747425515,0.06875403063213659
42.018908,1.086763357032405,0.07683223095181244
42.023048,1.3046582769013608,0.08489495732346779
42.02719199999999,1.5402452832994786,0.09305367523205614
42.03133999999999,1.8009334826264447,0.10114244155745443
42.035488,2.083234810682425,0.10919931786197361
42.03964,2.383560399967372,0.11729666375706503
42.04378,2.705134186330739,0.12534127723165167
42.047912,3.050314149621948,0.1332936598281692
42.052044,3.4105710206906195,0.14125348298756346
42.056184,3.7812965725862275,0.14917188236003498
42.06032,4.161127853482953,0.15707579561603913
42.06446,4.545899536030013,0.16495158582508154
42.0686,4.929098234626919,0.16374409017262975
42.07273599999999,5.311254738422281,0.1623317189957602
42.076872,5.680029460965801,0.16135609578699012
42.08100399999999,6.034735217506805,0.16065268414709682
42.08514,6.369423664620014,0.16025924368099492
42.08928,6.688336601529554,0.15988436480660043
42.09342,6.991252578435553,0.15944094693959637
42.097556,7.278171595338012,0.15904659956938708
42.10168,7.540575800762086,0.15883817481200788
42.10581199999999,7.7881017128575,0.1585947001474346
42.10994,8.024448924024236,0.15821169780023803
42.11408,8.24188607476253,0.15788753926144067
42.118228,8.443891307672489,0.1575643576216078
42.122364,8.632369781404073,0.1571848004714716
42.126504,8.80182746980728,0.15685210510942996
42.130644,8.950702806607485,0.15661555444312378
42.13478799999999,9.09088106097971,0.15630229773463938
42.13891999999999,9.214187973824446,0.15604927199163618
42.143064,9.3307143805667,0.15573340861960097
42.147204,9.438677265131973,0.15540772940494146
42.15133599999999,9.537523003020594,0.15509298199017693
42.15546799999999,9.628160228783107,0.15481461274031227
42.15960799999999,9.718774619194557,0.154469232343622
42.16374,9.808923274655202,0.15408567731936684
42.167884,9.904210946214981,0.15359500946189134
42.17202399999999,9.993328824549613,0.15317014764621564
42.17616,10.083443226983656,0.1527025726195889
42.180296,10.167720010892356,0.15228647582895957
42.184432,10.25579569442544,0.15179030711440913
42.188568,10.339828193183209,0.15132961866300812
42.192708,10.419031015190578,0.15090565354204116
42.19684399999999,10.495420043997445,0.15048602203226322
42.20098,10.567200845853787,0.15009056780445473
42.205108,10.637175796284568,0.1496870095795552
42.209236,10.704226228614912,0.1492906682696356
42.213364,10.771265243269724,0.1488666555687386
42.217504,10.828656322099276,0.14853370937294064
42.22165199999999,10.88704392502824,0.1481582694072675
42.225788,10.935562142332074,0.14788189340545096
42.229924,10.979139957985579,0.14764017721324013
42.234064,11.02237418126375,0.14738500004973273
42.23820799999999,11.062573161541543,0.14713986994251801
42.24234799999999,11.102317824544064,0.14688768185730128
42.24649599999999,11.139813736521292,0.14664510743571607
42.250632,11.169013246823539,0.1464871818169204
42.254768,11.200450090475552,0.14629430025665302
42.2589,11.231665484327694,0.14611344127855286
42.26303599999999,11.262315836004628,0.14592651922168157
42.267168,11.290950304131671,0.14576648933030156
42.271308,11.31678239673374,0.14563496827811925
42.275452,11.342725214235749,0.1454996319852165
42.279588,11.368668031737755,0.14536496520370767
42.28372,11.393935082164619,0.14522953918287268
42.287856,11.41628903216658,0.14512703506386232
42.29199199999999,11.440658865718435,0.1450007880285398
42.29613199999999,11.464131482395272,0.1448834818556918
42.300268,11.490738649296887,0.1447252490604763
42.304408,11.516559324223426,0.14457170089584187
42.30853199999999,11.545403824474807,0.1443818969552447
42.312664,11.573240382951237,0.14420410492475128
42.31679999999999,11.597598798827558,0.14405255001222542
42.320936,11.626775473778741,0.14385163612421062
42.325076,11.65426843987984,0.14366329814882406
42.329216,11.677729638881145,0.1435226846685139
42.333356,11.702088054757464,0.14337397577098404
42.337496,11.727454412408733,0.1432147059944559
42.34164,11.749342627459885,0.14308119186512952
42.34578,11.772017334486117,0.14294488915885692
42.349924,11.795699983287294,0.1427978418308244
42.35406,11.823414399188257,0.14260511378843121
42.35819599999999,11.849445106239134,0.14242301380201472
42.36234,11.874013554239792,0.14224276928105287
42.366472,11.899811393815263,0.1420434987364832
42.37060399999999,11.929641000490525,0.14179959870780381
42.37468799999999,11.956889681440682,0.14157390022674446
42.378824,11.981446711765805,0.1413697967844638
42.382964,12.003312091465894,0.14118740884855346
42.387092,12.021588603665936,0.14103344302236748
42.391228,12.035489756390852,0.14091034205732464
42.395364,12.050841750490456,0.1407589350646183
42.39949599999999,12.071122728564855,0.1405562623447102
42.403576,12.085344638314044,0.14039503906220674
42.40771599999999,12.094626146412903,0.14025838070649194
42.411864,12.104006961736161,0.14008983897988547
42.416,12.1142735762589,0.13988728214365817
42.420128,12.119821238931175,0.13970097127123537
42.42425599999999,12.125357483927921,0.13948745780651226
42.428388,12.128866427699236,0.13926900038823456
42.432476,12.126980652544951,0.1390646373308481
42.43660799999999,12.120375925540204,0.13887615579516488
42.44074799999999,12.114656997734935,0.1386536286731993
42.44488799999999,12.108705202454264,0.13841227535704229
42.44902,12.0984887725984,0.13819613435139455
42.45316,12.083331941092208,0.13800344938280085
42.4573,12.067045025235599,0.1377983796384451
42.46138799999999,12.051311733878666,0.13757181242070377
42.465532,12.03792650077143,0.13731048941695836
42.469632,12.027675817888973,0.13701198580568005
42.473772,12.022686293681119,0.1366504324818005
42.47792,12.018250393972936,0.13626848299699812
42.48200799999999,12.006526034364725,0.1359433343205005
42.48609199999999,11.99469094985658,0.13562161031646922
42.490244,11.986112558148676,0.1352854430645556
42.49434,11.979893642366005,0.13494206275076
42.498468,11.97435049365847,0.13460090765524108
42.502556,11.972850529726259,0.13424398309691407
42.50668399999999,11.970575491494502,0.13391619837733512
42.51082,11.968865495437955,0.1335940259425559
42.514952,11.97277166810688,0.1332517856323503
42.519088,11.976910708251207,0.13292791091191908
42.523228,11.982966324721026,0.1326153916660525
42.527368,11.992057184191221,0.1322993410872548
42.531504,12.004183286661783,0.13197853182779826
42.535636,12.017439473482765,0.13166998403039484
42.539776,12.03160429485429,0.1313821346616012
42.54391199999999,12.049025809026057,0.1310826945538934
42.548056,12.068585349323182,0.1307875012072951
42.552192,12.088599206895582,0.13050420908916605
42.55631999999999,12.108513757243582,0.13025408330986718
42.560452,12.12922621724219,0.1300305050214841
42.564584,12.155100528691001,0.1297785797421645
42.568716,12.187033908465022,0.1294940241691885
42.57284799999999,12.225247806364129,0.1291708320366315
42.576984,12.265034688213388,0.12884620746824674
42.581124,12.30829971266276,0.12850589540203855
42.585256,12.351454012212194,0.12817188980346744
42.589392,12.399426570836496,0.12779888852505367
42.593532,12.454576864460892,0.12738387866664105
42.59766799999999,12.509837882985218,0.12696880189692838
42.60181599999999,12.569695710784542,0.1265239152130255
42.605896,12.629774988383737,0.12607554183156475
42.61004,12.68805983223291,0.12564140962722714
42.614172,12.750376443181864,0.1251740642013347
42.618312,12.815716879455662,0.1246812430099417
42.622444,12.88542125752905,0.12414346950016843
42.62657599999999,12.953552651652286,0.123612877977493
42.630708,13.01853807787521,0.12309222892033805
42.634852,13.083069186822865,0.1225648555615753
42.638988,13.144454327870209,0.12204489792192803
42.64311599999999,13.205606601442156,0.12151128849974108
42.64725599999999,13.271012091913756,0.12094128508448786
42.651392,13.33629543980989,0.12035802496392678
42.65552399999999,13.39383601053072,0.11981311030386722
42.65967199999999,13.4501357720012,0.119263313866686
42.663808,13.504973274421463,0.11871856671613057
42.66793199999999,13.56148306801628,0.11814808267779323
42.67206,13.615633385685866,0.11758555086327468
42.676188,13.663946084830112,0.1170465787307765
42.680316,13.712812408474031,0.11649436940679551
42.684456,13.761224414842676,0.11593750517469333
42.6886,13.806379728411079,0.11539052131061472
42.69273999999999,13.855788258879139,0.11480932567483457
42.696884,13.904631747171992,0.11422865632115282
42.701024,13.953918135064583,0.11363892726034247
42.70516799999999,14.005896173582212,0.11304437291113986
42.70930799999999,14.060000820549668,0.11243527950759336
42.713452,14.116797118142161,0.11181725611564307
42.717592,14.17527712458474,0.11119835067908912
42.72172,14.238796839902054,0.1105460984718407
42.72586,14.302316555219369,0.10989819689237051
42.729992,14.35821563593685,0.10929954683801626
42.734128,14.409861499754673,0.10874032938551886
42.73826,14.466890664822568,0.10816054921925718
42.74239599999999,14.52560353874055,0.10758041135873994
42.746532,14.582189804208705,0.10702136250586275
42.750668,14.639341111852065,0.10647404565311633
42.75480399999999,14.700081286995477,0.10591698035543406
42.758936,14.765307546513943,0.10534640123222287
42.763076,14.831209573107552,0.10478444302616939
42.767208,14.895992933026282,0.10423672338819524
42.771348,14.964930202620266,0.10368422608054667
42.775476,15.031630138864486,0.1031574096313145
42.77960399999999,15.096989958633955,0.10265159099864468
42.78373199999999,15.164033487253514,0.10214806527515014
42.78787199999999,15.224464323048183,0.1016813533400693
42.79202,15.285460201018061,0.10122521459123533
42.796156,15.347242570963015,0.10077312174073245
42.800296,15.414851141757781,0.10029676359847386
42.80443999999999,15.48683507202767,0.09981602146875634
42.80858799999999,15.558032510322482,0.09933841444565739
42.81272799999999,15.639542233842164,0.09882088032959967
42.81687599999999,15.724862274661762,0.09828857325574934
42.82101599999999,15.80996086568149,0.09776741499853929
42.82514799999999,15.89786183222619,0.09724092012541814
42.829284,15.98856517429586,0.09670667197454941
42.83341599999999,16.078260574590583,0.09618312032818595
42.837548,16.166837308210425,0.09567403512179848
42.841692,16.255192592030394,0.09517687267526713
42.845828,16.34175344210034,0.09468940150647058
42.84996399999999,16.43044090062012,0.09419264482204684
42.854096,16.519571258739635,0.09368975826395719
42.858232,16.612733383958936,0.09317187529421986
42.86236399999999,16.704543975027956,0.09265144871437997
42.86650399999999,16.794560132346948,0.09214151400454708
42.87064399999999,16.890623940315624,0.09160509706052487
42.874776,16.98802786475905,0.09106144910970182
42.878908,17.08598541370215,0.09051009616646605
42.88303199999999,17.17183624367036,0.09000404818479804
42.88716,17.249390671963592,0.08952918849361914
42.891296,17.329747475781794,0.08904868074000244
42.895444,17.40102138594994,0.08859757383772748
42.89957999999999,17.472062428642687,0.0881369791080343
42.903716,17.539281736359985,0.08767386777733167
42.907852,17.603244351277038,0.08721577133217114
42.911992,17.66618760674361,0.08674731405835964
42.916132,17.725874169409945,0.08628117718301775
42.920272,17.78353343085085,0.08580872922338131
42.924416,17.837370957316303,0.08533383166575492
42.92854799999999,17.89176210828143,0.08484896513740446
42.932684,17.944691000196336,0.08436393120939244
42.936824,17.997054849936042,0.0838770601829191
42.94095599999999,18.042130239775712,0.08341069100118635
42.94509599999999,18.089553687865084,0.082931065573696
42.949232,18.137420035554193,0.08244470951829762
42.95336399999999,18.181808240643196,0.08196687852564308
42.9575,18.222829028032013,0.08149415584439852
42.96164,18.260371672820725,0.08102828557142769
42.965772,18.307883010458962,0.08052595575744557
42.969912,18.355947972596873,0.08001284648099392
42.974048,18.404566559234464,0.07949174985433201
42.97818399999999,18.458335579646718,0.07895099086275789
42.98231199999999,18.513333991633793,0.07840600093407718
42.98644399999999,18.575842313320766,0.07784597543785884
42.99057199999999,18.635658984382705,0.07729268299421989
42.99470399999999,18.697270089194664,0.07674077754282795
42.998856,18.765039569556237,0.07616754693041189
43.00299199999999,18.831911833042803,0.07559837291476637
43.00708399999999,18.90270513872922,0.07502076212177154
43.011224,18.974506386190587,0.0744436560138746
43.01536,19.048434242101777,0.07386175516003674
43.019504,19.126393865112757,0.07327185615327202
43.023652,19.203788445948526,0.07267748547391958
43.027804,19.279056418334466,0.07209630930983243
43.03193999999999,19.34905181437027,0.07152244698202916
43.036072,19.416577009580912,0.07095031885839362
43.04020799999999,19.48622881324138,0.07037297178568105
43.044336,19.557110008476663,0.069790706341525
43.048472,19.62059201891199,0.06922535874746022
43.052612,19.683508987172107,0.06865645405030865
43.05674799999999,19.739137495532194,0.06810020988735639
43.060884,19.790390644417155,0.06754982508258815
43.06502,19.833236666727203,0.06701637619776307
43.069152,19.86822918696202,0.06649008289731251
43.073236,19.904561823671582,0.06595536637604667
43.077324,19.93483539205593,0.06542425593837913
43.08140399999999,19.960401426265353,0.06490456445708515
43.085536,19.98439447652462,0.0643829041865613
43.089668,20.003679992608962,0.06387154253954581
43.09381199999999,20.017692932343163,0.06336369139461438
43.09795199999999,20.02229080372751,0.06287228152108107
43.10204,20.012876797487003,0.062402760981140726
