Time,Force,Position
40.770748,0.13150048772371659,0.0
40.774888,0.13441358814862178,0.0
40.77902400000001,0.13811318054860394,0.0
40.783104,0.14752824889846167,0.0
40.787188,0.1578405341233312,0.0
40.791276,0.16983652819828948,0.0
40.795412,0.18362695602327148,0.0
40.799544,0.19450428342334825,0.0
40.803672000000006,0.20728676947338348,0.0
40.8078,0.21413232977367344,0.0
40.811884000000006,0.22097789007396346,0.0
40.815968,0.22300519129938967,0.0
40.820104,0.22133290012483373,0.0
40.82424399999999,0.21797690010018905,0.0
40.828372,0.2157395667504259,0.0
40.832512,0.2163046089256331,0.0
40.8366,0.21686965110084033,0.0
40.840692,0.21552953462608898,0.0
40.84478,0.20589301647636157,0.0
40.848868,0.19315219505146436,0.0
40.85296,0.18362640180167172,0.0
40.857084,0.17398988365194426,0.0
40.861216,0.16147051202691676,0.0
40.865300000000005,0.14603803997698409,0.0
40.869432,0.1287004092770929,0.0
40.873556,0.1114735034771366,0.0
40.87764799999999,0.09424659767718026,0.0
40.881736,0.07993279230212913,0.0
40.885868,0.0646110451521313,0.0
40.889956,0.053210340201985395,0.0
40.894044,0.04270685212685131,0.0
40.898132,0.036548476577236276,0.0
40.902272,0.031760464451977735,0.0
40.906368,0.028183014627463296,0.0
40.910516,0.023173552702335017,0.0
40.914656,0.017266873902194918,0.0
40.918788000000006,0.010352253327108117,0.0
40.922928,0.004445574526968016,0.0
40.927072,0.0032464299017567737,0.0
40.931208,0.0032464299017567737,0.0
40.935356,0.002047285276545531,0.0
40.939436,0.0009588655512691592,0.0
40.943528,0.0009588655512691592,0.0
40.947616,0.0009588655512691592,0.0
40.951708,0.0009588655512691592,0.0
40.95579600000001,0.0009588655512691592,0.0
40.95994399999999,0.0009588655512691592,0.0
40.964084,0.0009588655512691592,0.0
40.96822,0.0018258354766757883,0.0
40.97236,0.004708688951975806,0.0
40.976496,0.007591542427275824,0.0
40.980628,0.009828875777038955,0.0
40.984764,0.01450616300236262,0.0
40.988904000000005,0.01864865500208427,0.0
40.993032,0.02590686795250853,0.0
40.997168,0.03305435600299792,0.0
41.001296,0.04120978582843401,0.0
41.005428,0.050151707628947044,0.0
41.009568,0.057974962754578516,0.0
41.013656,0.06479027610526329,0.0
41.017792,0.07351074810590658,0.0
41.021928,0.0831284369815617,0.0
41.026056,0.09565922628212203,0.0
41.03014399999999,0.10326103160788376,0.0
41.034272,0.11086283693364549,0.0
41.038404,0.11555154183450202,0.0
41.042496,0.11945375476028158,0.0
41.046624,0.12245875081104933,0.0
41.050764,0.12459677693641044,0.0
41.054864,0.1236002528369966,0.0
41.05899599999999,0.12271445363751762,0.0
41.063092,0.12093143756302682,0.0
41.067236,0.1163460459635657,0.0
41.071376,0.11209282906390916,0.0
41.07551599999999,0.10525868643915205,0.0
41.079672,0.09864599361426468,0.0
41.083812,0.09192257588944243,0.0
41.087968,0.0845233910894781,0.0
41.092104000000006,0.07824287296439533,0.0
41.09624,0.07588339703916447,0.0
41.100376,0.06881638693900476,0.0
41.104512,0.06074143506389835,0.0
41.108648,0.05065059963889855,0.0
41.11274,0.04940979038854926,0.0
41.116876000000005,0.05108208156310519,0.0
41.121008,0.058580573587471534,0.0
41.125144000000006,0.06765204956199178,0.0
41.129276,0.07571558376156534,0.0
41.133408,0.08456560993621585,0.0
41.137544000000005,0.09565296946062948,0.0
41.141688,0.1074160960601852,0.0
41.14582,0.12231377288451589,0.0
41.149956,0.13710072480891167,0.0
41.154044,0.15357138558339628,0.0
41.158176,0.16982059655801113,0.0
41.162304000000006,0.18685629950770288,0.0
41.166436,0.2012003518323592,0.0
41.17057199999999,0.21543367925708068,0.0
41.174716,0.23067494845674882,0.0
41.17886,0.24109795858155322,0.0
41.183008,0.2551098362064049,0.0
41.18714799999999,0.27405069780605523,0.0
41.191296,0.28817330033084176,0.0
41.195432,0.29905062773091856,0.0
41.19958,0.3069041298061552,0.0
41.203716,0.3117338065565518,0.0
41.207800000000006,0.3148797744568596,0.0
41.211888,0.3208281178821378,0.0
41.216028,0.32430626048225014,0.0
41.220112,0.3237526359825758,0.0
41.224248,0.31972086888278906,0.0
41.228384000000005,0.3124438266582924,0.0
41.232524,0.3089771017337129,0.0
41.23666,0.3017000595092163,0.0
41.240748,0.2916206417597494,0.0
41.24483600000001,0.27985751516019364,0.0
41.248972,0.2708967640856082,0.0
41.253064,0.26182528811108796,0.0
41.257148,0.25365102901157954,0.0
41.261292,0.2492870872119881,0.0
41.265424,0.24525532011220136,0.0
41.26956,0.2299033260125983,0.0
41.273644,0.2223934163126991,0.0
41.27777999999999,0.21442918933752758,0.0
41.281864,0.20556774548734424,0.0
41.285944,0.19603053456201883,0.0
41.29008,0.18649332363669338,0.0
41.294164,0.17796405448631464,0.0
41.2983,0.17011055241107798,0.0
41.302372000000005,0.167075309410705,0.0
41.306456,0.16863687568532604,0.0
41.310548,0.17030916685988196,0.0
41.314676000000006,0.16648743188443207,0.0
41.318816,0.16726250618397617,0.0
41.322952,0.1719586226833722,0.0
41.327088,0.17710905645804054,0.0
41.331228,0.18125154845776217,0.0
41.335364,0.1843860986825371,0.0
41.33949199999999,0.18359960670746017,0.0
41.343632,0.1779948556575195,0.0
41.347768,0.1701527712578157,0.0
41.351864000000006,0.17150430540809986,0.0
41.356,0.16792685558358542,0.0
41.360136,0.1639065061593315,0.0
41.364272,0.16279925715998278,0.0
41.368416,0.16135983346082947,0.0
41.372556,0.164627943936605,0.0
41.376704,0.1640857371124635,0.0
41.380848,0.16724312268830416,0.0
41.384984,0.16737668293930474,0.0
41.389124,0.16639157651542374,0.0
41.393256,0.16709017894163153,0.0
41.39738800000001,0.17250773321830098,0.0
41.401476,0.18254493212103015,0.0
41.405612000000005,0.20101209294973613,0.0
41.409752,0.22800852292882076,0.0
41.413892,0.2642099891334263,0.005310175879993744
41.418024,0.3031031059630672,0.010609168056302432
41.422156,0.3442449738180042,0.01614567439849727
41.426288,0.395267644973604,0.02165268869470833
41.430432,0.45730120378028116,0.027184772026620504
41.434568,0.5265353329381186,0.0327353740141688
41.438704,0.6059938577719564,0.0382774282196882
41.442792,0.6964518525813387,0.043632028465253436
41.446920000000006,0.7890592911916149,0.04911156690629871
41.451012000000006,0.8934526917525125,0.05445646309209893
41.45514,1.0021335622396652,0.05987409199592292
41.459272,1.1255249127778777,0.0652118045677239
41.463404,1.258021992317209,0.07051869001140555
41.46749199999999,1.4065696683823505,0.0756894572707046
41.471632,1.564665973048351,0.0808336112768088
41.475776,1.731856589039937,0.08592844261540591
41.479868,1.9080193737816413,0.09092900141994902
41.484004,2.0776573552473274,0.09592940759956028
41.488148,2.2393196920623093,0.10094176615927825
41.492288,2.393915018777131,0.10600248317355669
41.496428,2.5420083775670004,0.10579965178622408
41.500524,2.6975123388323676,0.10556729011140427
41.504668,2.863782902597876,0.10501599928893691
41.508812000000006,3.0271289482629458,0.1044831250956544
41.512948,3.18080422275169,0.10390383561648821
41.517084,3.3249194509640443,0.10327408874376523
41.521212000000006,3.4618341088252373,0.10261105914947859
41.525344,3.5869628047358093,0.10215630330726917
41.529476,3.712412257670653,0.10153626122197895
41.533616,3.829886065954792,0.1010212690085262
41.537756,3.9406022034875106,0.10038325480630997
41.541844,4.03816942724379,0.0997839621905651
41.545984,4.119896086598596,0.09922185959461725
41.55012000000001,4.183323398402295,0.09881369072102847
41.55426,4.236747764329864,0.09840076813440361
41.558392,4.281299268731716,0.09802759116659353
41.562528,4.31608069473284,0.09770819224453303
41.566664,4.350629253258561,0.09733749261264893
41.570804,4.3842691772337385,0.09690364040642029
41.574928,4.41722191645824,0.09638065059851317
41.57906,4.4481359367817825,0.09575016405658497
41.583184,4.471185037354556,0.09513188027432534
41.587328,4.484574784426536,0.09454682190241272
41.591476,4.49638012987283,0.0938977703687211
41.595612,4.510422808668887,0.09319657717791074
41.599756,4.523568270589933,0.09250549422259247
41.603904,4.535030023660887,0.09182717743968587
41.608056000000005,4.5503020940317604,0.09109742744116621
41.612196,4.56422263025235,0.09035930903323676
41.616344,4.579372558047755,0.08959693390942973
41.62048,4.594190311143357,0.08886936076153859
41.624616,4.610359598389241,0.08816762245723307
41.628744,4.639089921885291,0.0873706198714753
41.63288,4.674997980381435,0.08651625796515337
41.637008,4.714273456577758,0.08566337719994788
41.641092,4.75847791674888,0.0847560390285119
41.645228,4.804144635970219,0.08387461526524442
41.649364000000006,4.8519493813169206,0.08303035298990782
41.653496,4.90290009456393,0.08221066529648394
41.657628,4.957893992586259,0.08140928654213492
41.661756,5.0167096255840375,0.08064701427057969
41.665892,5.080011342956875,0.07987288036670376
41.670032000000006,5.148364186879979,0.07911160892970942
41.674176,5.219752273803455,0.07839527887382967
41.678308,5.2942863286272415,0.07771628117363077
41.682444,5.37577666865125,0.07702781480073292
41.686572,5.462428860125461,0.07634160792755686
41.690708,5.5521048769245125,0.07564005620572734
41.694796,5.64278883549851,0.07494870095380719
41.69888,5.735156502922596,0.07428097366440703
41.702968,5.8313344876466,0.07359582329480678
41.707064,5.931101339870651,0.07290657633149351
41.711148,6.027955091669797,0.0722786257281322
41.715236,6.125595335444019,0.07167193078008324
41.719328,6.226148679643147,0.0710607665842175
41.723412,6.320875822992464,0.07051363684327458
41.727496,6.420421225416645,0.06994582661063899
41.731584,6.523887670040677,0.06936046935165613
41.735676,6.630267215089615,0.06877100001582935
41.739808,6.738773368588382,0.06817430822544343
41.743936000000005,6.850303347411987,0.06756896600938582
41.748024,6.961722601335659,0.06698856711129032
41.752116,7.06775855400926,0.06643655148458084
41.756204,7.173118739607718,0.06589090391400879
41.76029200000001,7.2784789252061755,0.06536186726705417
41.76438400000001,7.38226612685448,0.06484145959126017
41.768508,7.484258894752761,0.06433714368945938
41.77264,7.5840143293012785,0.06387325079255299
41.776728000000006,7.686239964674962,0.06342858195872561
41.780816,7.786671166298623,0.06299919475758517
41.78496,7.8897940185473185,0.06257838542068153
41.789056,7.994822029445973,0.062159347577710036
41.7932,8.095363955969567,0.061757386801038094
41.797296,8.19545156521789,0.06134603067934254
41.801436,8.290045148316207,0.06095871675875474
41.805524000000005,8.392259366014356,0.060545061072140395
41.809616000000005,8.489987499337449,0.06015024072462565
41.813756,8.58322954828548,0.059771938838638204
41.8179,8.673779946608478,0.05940747469366764
41.822056,8.760962927231297,0.05904807656372586
41.826196,8.840857447954086,0.05871027632091695
41.830288,8.918613942551517,0.058359314033495924
41.83444,9.000291479348796,0.05799440008316594
41.838528,9.079388090420979,0.057634692124988236
41.842664,9.151306966493065,0.05728720344194587
41.846756,9.222550075490007,0.056938520197667375
41.850888,9.295354750761572,0.05656812350746223
41.854972,9.366918616782788,0.0561812658202979
41.859108000000006,9.430407530928898,0.05580625741756534
41.863236,9.48862386872487,0.05543448415303362
41.86732000000001,9.536749371095842,0.0550841525355734
41.871396,9.57814003806646,0.05472655082951691
41.875528,9.618854937961936,0.05436258355740502
41.87956,9.65284642013259,0.054023158805915156
41.883696,9.686051410328167,0.0536813321638283
41.887832,9.709276289998678,0.05335409746202009
41.891912000000005,9.728015085294132,0.053031127101670725
41.896004000000005,9.744062229964548,0.05271096895988299
41.90008,9.75293163963487,0.052395928920486605
41.904164,9.756982790230328,0.05209741258769095
41.908248,9.755650639575716,0.05180045989404296
41.912288,9.747595071196281,0.051524257064277504
41.916428,9.73034588426686,0.05126119647798608
41.920564,9.708389163162508,0.051008418092685144
41.924696,9.686543166958092,0.050749985064165046
41.928832,9.656290044178766,0.050507253822006194
41.93297200000001,9.617297620124724,0.05029302260951768
41.937112,9.572589720120805,0.05009224703620898
41.941252000000006,9.524182227716903,0.049895072279367604
41.94533199999999,9.47465606863812,0.049705328947265814
41.94946,9.425351359359208,0.04950484426913498
41.953596000000005,9.372801374955587,0.04932496424704618
41.957728,9.313638697727075,0.04915776093508485
41.96186,9.25649190404846,0.04897948635637499
41.966008,9.195534793069926,0.04880928751220987
41.97014,9.13065663989154,0.048651046702103073
41.97427999999999,9.06006301076328,0.04850521245160454
41.978408,8.983864630585078,0.04836708419679929
41.98254,8.907334075707071,0.0482408232301882
41.986668,8.828898362179107,0.048117640908099425
41.990808,8.754838008126267,0.0479966009171154
41.994944,8.67764310384865,0.04789380194481367
41.999084,8.603250575096006,0.04778312654454731
42.003224,8.52493700414351,0.04768593765002012
42.007360000000006,8.442702390991162,0.047601722902066934
42.011512,8.360135603139009,0.04753111327331546
42.015652,8.272750556211992,0.04747568724758504
42.019808,8.184025392810222,0.04744030083015772
42.023944,8.098889096908499,0.047403219078426026
42.028076,8.01095042548181,0.04737074598395391
42.032208,7.922790304255249,0.04734627174225774
42.03634,7.835416675003765,0.047326277725702366
42.040472,7.750513246577446,0.04731658672703102
42.044616000000005,7.659672892401382,0.04733358345163204
42.048748,7.566816654675423,0.047361918028255706
42.052884000000006,7.479454443099473,0.04738401390272424
42.05702,7.397586257673527,0.0473998866614784
42.06115199999999,7.319871981922837,0.047433143018743205
42.065296,7.245181531496985,0.04744776027368833
42.069432000000006,7.167577980646229,0.04747421329288664
42.073528,7.086164112495555,0.04751264633562389
42.077664,7.010576445194693,0.04752788852468683
42.08179199999999,6.931854227669054,0.04756565973800691
42.08592,6.8606419198433155,0.04758508733080249
42.090048,6.7921212626426115,0.047604684406558295
42.094184,6.72449782231692,0.04762570850755733
42.09832,6.665392233466074,0.0476221831287446
42.102456,6.609421194840005,0.0475938824194464
42.106592000000006,6.553228706414063,0.04757783196119383
42.110728,6.502530244138129,0.04755473363940661
42.114872000000005,6.449815898312303,0.04754407295923857
42.119020000000006,6.396204335611463,0.04753335819720065
42.123156,6.343600714685571,0.04751661522720285
42.127300000000005,6.297720511484499,0.04747348779707415
42.13144,6.257555784233305,0.04740977343622803
42.135568000000006,6.21570734813202,0.04733789844447448
42.139704,6.172740245355856,0.04727873045329904
42.14383599999999,6.129429550204352,0.04718535145513854
42.147972,6.081976363053128,0.047124186154073565
42.15211600000001,6.040017202051909,0.047056092356240545
42.156252,6.001979083250542,0.046966458998573164
42.160344,5.96102786402427,0.04688895100653448
42.16448,5.924894903872862,0.046789828547861456
42.168616,5.881141309121619,0.046717341082310376
42.172752,5.843103190320253,0.04662286323649503
42.176888000000005,5.807080955068779,0.04651353201169787
42.181028,5.769042836267411,0.046416942161032516
42.185164,5.729886050791164,0.046332788386891595
42.1893,5.689045556464826,0.046240778601385195
42.193436000000005,5.641592369313601,0.04616920568762664
42.197568,5.5931312403874305,0.04610546619122555
42.201696,5.54164628613642,0.046065115665517235
42.20584,5.489264115010396,0.04602420436451061
42.209976,5.431952959909574,0.04601377263735028
42.214124,5.3707207626089,0.046025708696712554
42.218268,5.306243290183517,0.04607854551167398
42.22242,5.239295616932967,0.04611586638042166
42.226564,5.171007827207667,0.04618430870296192
42.230712,5.10193354550729,0.04624914112361833
42.23485599999999,5.03218349673177,0.046294978090931006
42.238992,4.956607247106438,0.046375694785727506
42.243124,4.8820389392560575,0.046447355824501546
42.247264,4.796826171480999,0.0465879612113567
42.2514,4.715645170805728,0.046694465788262716
42.255548000000005,4.620120117805801,0.046883421754328664
42.25968,4.520674022606022,0.047107679124218954
42.263816000000006,4.414836684381226,0.047351874219959365
42.267952,4.3081021292814174,0.04760046626319371
42.27208400000001,4.200581082206532,0.04784172294804679
42.276216000000005,4.096981077331499,0.04805859045394956
42.28036,3.9965156226812395,0.04823622721581951
42.284496,3.900192660030703,0.048364995803803955
42.28863200000001,3.800956596955261,0.04852718917251613
42.292768,3.702163433479558,0.048647223056118134
42.2969,3.5989949105287313,0.04876506769496012
42.301028,3.497055779152721,0.04886004415869595
42.305164000000005,3.394895197976841,0.04898584996270772
42.30929999999999,3.2900429661759256,0.04912754128167716
42.31344,3.1844042423999332,0.049268430988128616
42.31758000000001,3.0749552013240242,0.04943725783834522
42.321668,2.964719668273037,0.04962083994255851
42.325808,2.8516817596970805,0.04982681467755329
42.329964,2.7446915017708036,0.04996615727749877
42.334108,2.6356853602946337,0.05013781547344016
42.33824799999999,2.5345213032181673,0.05023255833407539
42.342388,2.4367132461663457,0.050197818207459236
42.34652,2.346304373914488,0.05011743438638215
42.350660000000005,2.2530931261376606,0.05007086610621037
42.354792,2.1598818783608333,0.050008815000064794
42.358924,2.0629710381840236,0.04996754999996662
42.363068,1.9630363726823739,0.05000085374852563
42.367208000000005,1.8609750987308957,0.05011719722948073
42.37134,1.7639535336541512,0.05007453793576718
42.375468,1.6664890689776672,0.050165554380031556
42.3796,1.5727241967011656,0.047703306414481436
42.383736,1.477054165774705,0.045237216993190436
42.387868,1.38407578547328,0.04274908462463541
42.392,1.2937890557968903,0.040235574893194105
42.396132,1.2109015109204648,0.0377128166389455
42.400268,1.127681791344235,0.035181233723240765
42.404396000000006,1.0519719814679043,0.03261468470348192
42.408484,0.9807482559666327,0.030035464904919276
42.412612,0.9132241228653435,0.027468648016248286
42.41674,0.8444705981892378,0.024890109411377065
42.42088,0.7767250152880788,0.022327861499468964
42.425012,0.705623432362275,0.019867777384366597
42.429156000000006,0.6326166907865126,0.017433950214256165
42.4333,0.5640155556354799,0.01496275082643279
42.43745199999999,0.4997897799595713,0.012515516540711792
42.4416,0.44184452240874544,0.010058160603558762
42.445736,0.38939329100792547,0.00755082895977344
42.449892000000006,0.34153886888209944,0.0049858610778149405
42.45402,0.2951467058064924,0.002546973974622482
42.458156,0.2534620769058142,0.0
42.462296,0.2161528074802602,0.0
42.46642799999999,0.185234781079724,0.0
42.470568,0.15711913020415805,0.0
42.47470800000001,0.1327030717285743,0.0
42.478836,0.10716834657810895,0.0
42.482968,0.08734909737751914,0.0
42.487104,0.06730839837705963,0.0
42.491244,0.04816491625161191,0.0
42.49537599999999,0.029697201201306277,0.0
42.49952,0.016944962100876204,0.0
42.50366,0.0066629238256118595,0.0
42.507752,0.001985636600288195,0.0
42.511880000000005,0.0,0.0
42.516008,0.0,0.0
42.52014,0.0,0.0
42.524268000000006,0.0,0.0
42.528356,0.0,0.0
42.532492000000005,0.0,0.0
42.536632,0.0,0.0
42.540772,0.0,0.0
42.544916,0.0,0.0
42.54905599999999,0.0,0.0
42.553208,0.0,0.0
42.557344,0.0,0.0
42.561492,0.0,0.0
42.565624,0.0,0.0
42.56976,0.0,0.0
42.573844,0.0,0.0
42.577972,0.0,0.0
42.582104,0.0,0.0
42.58624,0.0,0.0
42.59038,0.0,0.0
42.59452,0.0,0.0
42.598648,0.0,0.0
42.602784,0.0,0.0
42.606916,0.0,0.0
42.61104400000001,0.0,0.0
42.615184,0.0,0.0
42.61932,0.0,0.0
42.623456,0.0,0.0
42.62759199999999,0.0,0.0
42.631728,0.0009662771498086482,0.0
42.635856,0.0009662771498086481,0.0
42.64,0.0009662771498086481,0.0
42.644148,0.0009662771498086482,0.0
42.648292,0.0009662771498086482,0.0
42.65244,0.0009662771498086482,0.0
42.656588,0.0009662771498086482,0.0
42.660732,0.0009662771498086482,0.0
42.664868,0.0009662771498086482,0.0
42.669008000000005,0.0009662771498086482,0.0
42.67314399999999,0.0009662771498086482,0.0
42.677272,0.001699686824214701,0.0
42.681412,0.002543821398555625,0.0
42.68554399999999,0.004395897747843244,0.0
42.689676000000006,0.009161074522036074,0.0
42.69382,0.014712743271305857,0.0
42.697956000000005,0.023177512445480847,0.0
42.702088,0.03175300651959071,0.0
42.706224000000006,0.041225717468712404,0.0
42.710356,0.047674603092994004,0.0
