Time,Force,Position
44.936756,0.014430082443637662,0.0
44.940844,0.019512085924559452,0.0
44.944928,0.02448336450554637,0.0
44.949016,0.02945464308653329,0.0
44.953108,0.03633108031747873,0.0
44.957204,0.0430967926484893,0.0
44.961304,0.04885456320455317,0.0
44.9654,0.05461233376061704,0.0
44.96949599999999,0.060259379416746035,0.0
44.973632,0.06500920819786321,0.0
44.977716,0.07177492052887378,0.0
44.981808,0.07540608263510938,0.0
44.985896,0.07663547420992582,0.0
44.98998,0.07412297877857178,0.0
44.99407599999999,0.07149975844728286,0.0
44.998164,0.07340491709724138,0.0
45.00225999999999,0.07423370367850665,0.0
45.00635199999999,0.07423370367850665,0.0
45.010448,0.07322576190355996,0.0
45.01454,0.0734472117034297,0.0
45.018636,0.06937314999745461,0.0
45.022736,0.06429114651653282,0.0
45.026832,0.059319867935545896,0.0
45.030928,0.05434858935455898,0.0
45.03502399999999,0.04747215212361354,0.0
45.03911599999999,0.04070643979260297,0.0
45.043212,0.0349486692365391,0.0
45.04731199999999,0.02919089868047523,0.0
45.051408,0.02354385302434623,0.0
45.055504,0.01879402424322905,0.0
45.059596,0.012028311912218485,0.0
45.063692,0.008397149805982874,0.0
45.067792,0.006560421449770908,0.0
45.071884,0.006560421449770908,0.0
45.07598,0.006560421449770909,0.0
45.08000799999999,0.004612968193624072,0.0
45.08409999999999,0.003784181612358802,0.0
45.088188,0.003784181612358802,0.0
45.09228,0.0029553950310935314,0.0
45.096368,0.0,0.0
45.10046,0.0,0.0
45.104552,0.0,0.0
45.108648,0.0,0.0
45.11274399999999,0.0,0.0
45.11684,0.0,0.0
45.12092799999999,0.0,0.0
45.125016,0.0,0.0
45.129108,0.0,0.0
45.13314,0.0,0.0
45.137232,0.0,0.0
45.141324,0.0,0.0
45.145416,0.0,0.0
45.149512,0.0,0.0
45.153604,0.0,0.0
45.157652,0.0,0.0
45.161684,0.0,0.0
45.16571999999999,0.0,0.0
45.169808,0.0,0.0
45.173844,0.0,0.0
45.177872,0.0,0.0
45.181956,0.0,0.0
45.18598,0.0,0.0
45.19006,0.0,0.0
45.194136,0.0,0.0
45.19821999999999,0.0,0.0
45.202308,0.0,0.0
45.206396,0.0,0.0
45.210484,0.0,0.0
45.21462,0.0,0.0
45.21870799999999,0.0,0.0
45.222788,0.0,0.0
45.226872,0.0,0.0
45.230964,0.0,0.0
45.235044,0.0,0.0
45.239132,0.0,0.0
45.243228,0.0,0.0
45.247308,0.0,0.0
45.251396,0.0,0.0
45.25547999999999,0.0,0.0
45.259564,0.0,0.0
45.263648,0.0,0.0
45.267732,0.0,0.0
45.271816,0.0,0.0
45.275892,0.0,0.0
45.280028,0.0,0.0
45.284104,0.0,0.0
45.28818799999999,0.0,0.0
45.292272,0.0,0.0
45.296356,0.0,0.0
45.30044,0.0,0.0
45.304568,0.0,0.0
45.308652,0.0,0.0
45.312736,0.0,0.0
45.316824,0.0,0.0
45.320908,0.0,0.0
45.324992,0.0,0.0
45.329076,0.0,0.0
45.33315999999999,0.0,0.0
45.337244,0.0,0.0
45.341328,0.0,0.0
45.345412,0.0,0.0
45.34949999999999,0.0,0.0
45.353628,0.0,0.0
45.357708,0.0,0.0
45.3618,0.0,0.0
45.365884,0.0,0.0
45.369976,0.0,0.0
45.374064,0.0,0.0
45.378156,0.0,0.0
45.382244,0.0,0.0
45.386332,0.0,0.0
45.390424,0.0,0.0
45.39451199999999,0.0,0.0
45.398652,0.0,0.0
45.402744,0.0,0.0
45.406836,0.0,0.0
45.410868,0.0,0.0
45.41496,0.0,0.0
45.419048,0.0,0.0
45.42314,0.0,0.0
45.427292,0.0,0.0
45.43138,0.0,0.0
45.435476,0.0,0.0
45.43955199999999,0.0,0.0
45.44364,0.0,0.0
45.447732,0.0,0.0
45.451872,0.0,0.0
45.4559,0.0,0.0
45.459988,0.0,0.0
45.464084,0.0,0.0
45.468176,0.0013938287564724792,0.0
45.472212,0.0018904406379331362,0.0
45.4763,0.0033949942943404883,0.0
45.480336,0.005907489725694535,0.0
45.484424,0.007412043382101887,0.0
45.48846399999999,0.008130105063432288,0.0
45.49255599999999,0.009523933819904767,0.0
45.496596,0.010807037676442376,0.0
45.500692,0.010807037676442375,0.0
45.504788000000005,0.013098083307926677,0.0
45.508884,0.014491912064399157,0.0
45.51298,0.014491912064399159,0.0
45.517076,0.014491912064399159,0.0
45.52117199999999,0.014491912064399159,0.0
45.525268,0.01599646572080651,0.0
45.529364,0.01599646572080651,0.0
45.53345999999999,0.01599646572080651,0.0
45.537556,0.01599646572080651,0.0
45.541652,0.01599646572080651,0.0
45.545744,0.01599646572080651,0.0
45.54984399999999,0.014602636964334031,0.0
45.553988,0.014106025082873374,0.0
45.55808,0.012601471426466022,0.0
45.562176,0.010088975995111974,0.0
45.566268,0.008584422338704621,0.0
45.57036,0.007866360657374222,0.0
45.574452,0.006472531900901742,0.0
45.578592,0.005189428044364134,0.0
45.58268,0.005189428044364134,0.0
45.586764,0.0028983824128798316,0.0
45.590856,0.0015045536564073524,0.0
45.59495199999999,0.0015045536564073524,0.0
45.599048,0.0015045536564073524,0.0
45.60314,0.0015045536564073524,0.0
45.607232,0.0,0.0
45.611364,0.0,0.0
45.615452000000005,0.0,0.0
45.619536,0.0,0.0
45.62362399999999,0.0,0.0
45.62772,0.0,0.0
45.631816,0.0,0.0
45.635908,0.0,0.0
45.640004000000005,0.0,0.0
45.644136,0.0,0.0
45.648228,0.0,0.0
45.65236,0.0,0.0
45.656452,0.0,0.0
45.660544,0.0,0.0
45.66463999999999,0.0,0.0
45.668728,0.0,0.0
45.67282,0.0,0.0
45.67696,0.0,0.0
45.681048,0.0,0.0
45.68514,0.0,0.0
45.689228,0.0,0.0
45.693376,0.0,0.0
45.697524,0.0,0.0
45.701664,0.0,0.0
45.705752,0.0,0.0
45.709848,0.0,0.0
45.71394,0.0,0.0
45.71808,0.0,0.0
45.72223199999999,0.0,0.0
45.726364,0.0,0.0
45.730448,0.0,0.0
45.73453599999999,0.0,0.0
45.73862799999999,0.0,0.0
45.74276,0.0,0.0
45.74683999999999,0.0,0.0
45.750972,0.0,0.0
45.755056,0.0,0.0
45.75914,0.0,0.0
45.763224,0.0,0.0
45.767308,0.0,0.0
45.77144,0.0,0.0
45.775524,0.0,0.0
45.77960399999999,0.0,0.0
45.783692,0.0,0.0
45.787776,0.0,0.0
45.791864,0.0,0.0
45.795956,0.0,0.0
45.800088,0.0,0.0
45.80422,0.0,0.0
45.808252,0.0,0.0
45.812344,0.0,0.0
45.816476,0.0,0.0
45.820564000000005,0.0,0.0
45.824652,0.0,0.0
45.82874,0.0,0.0
45.832832,0.0,0.0
45.83691999999999,0.0,0.0
45.841016,0.0,0.0
45.845112,0.0,0.0
45.849208,0.0,0.0
45.853348,0.0,0.0
45.857432,0.0,0.0
45.861516,0.0,0.0
45.865608,0.0,0.0
45.869696000000005,0.0,0.0
45.873784,0.0,0.0
45.877880000000005,0.0,0.0
45.881976,0.0,0.0
45.886072,0.0,0.0
45.890168,0.0,0.0
45.89426399999999,0.0,0.0
45.89836,0.0,0.0
45.902456,0.0,0.0
45.90655199999999,0.0,0.0
45.910648,0.0,0.0
45.914744,0.0,0.0
45.91884,0.0,0.0
45.92293599999999,0.0,0.0
45.927032,0.0,0.0
45.931128,0.0,0.0
45.93526799999999,0.0,0.0
45.939352,0.0,0.0
45.94343599999999,0.0,0.0
45.94752799999999,0.0,0.0
45.951616,0.0,0.0
45.955752,0.0,0.0
45.95983199999999,0.0,0.0
45.963916,0.0,0.0
45.96800399999999,0.0,0.0
45.972092,0.0,0.0
45.976184,0.0,0.0
45.980272,0.0,0.0
45.984364,0.0,0.0
45.988452,0.0,0.0
45.99253999999999,0.0,0.0
45.99668,0.0,0.0
46.000816,0.0,0.0
46.004896,0.0,0.0
46.008972,0.0,0.0
46.01305599999999,0.0,0.0
46.017144,0.0,0.0
46.02128,0.0,0.0
46.025412,0.0,0.0
46.02954799999999,0.0,0.0
46.03362799999999,0.0,0.0
46.03771999999999,0.0,0.0
46.0418,0.0,0.0
46.04593199999999,0.0,0.0
46.050072,0.0,0.0
46.054152,0.0,0.0
46.058236,0.0,0.0
46.062324,0.0,0.0
46.066412,0.0,0.0
46.070544,0.0,0.0
46.074628,0.0,0.0
46.078712,0.0,0.0
46.082848,0.0,0.0
46.086928,0.0,0.0
46.091008,0.0,0.0
46.095092,0.0,0.0
46.099172,0.0,0.0
46.103256,0.0,0.0
46.10733999999999,0.0,0.0
46.11142,0.0,0.0
46.11556399999999,0.0,0.0
46.119648,0.0,0.0
46.123728,0.0,0.0
46.127804,0.006857053735273393,0.0
46.131888,0.01991815372229322,0.0
46.135972,0.04266144256117192,0.0
46.140052,0.07464402065216999,0.0
46.144136,0.11799249644511568,0.01064142249546368
46.148224,0.1725961450400742,0.020627126615059846
46.152312,0.2412573419620158,0.02985746469545434
46.15639999999999,0.32274669563612407,0.038760962827178794
46.16049199999999,0.41235667188747016,0.04780391771265117
46.16462,0.5130003711409593,0.05672538422178632
46.1687,0.626472227146615,0.06544705032192431
46.172792,0.7519857479293606,0.07403205354356977
46.176884,0.8893194836893261,0.0825440793811436
46.18097999999999,1.0367897255764227,0.09105038408968814
46.185068,1.194961515765858,0.09956867430251741
46.189204,1.3661829125073295,0.10795281028546891
46.193292,1.5466435985009206,0.11636943608372802
46.19738,1.7366757484464352,0.12477233358255228
46.20146799999999,1.938062378418365,0.13302783325519435
46.20555999999999,2.146649578741455,0.14123705360101596
46.209696,2.351537110905112,0.14947528916077515
46.213832,2.5539316068925384,0.15767886025580516
46.217968,2.7516950405783716,0.1657763583378033
46.221992,2.940784227187293,0.17388703071947217
46.226068,3.1180646164945265,0.1714050511345657
46.230156,3.286449308924978,0.16954497520863748
46.234248,3.441452220103589,0.1684411812864285
46.238384,3.5835162496300987,0.1676762683027063
46.242464,3.720151307204406,0.16670307722709016
46.246548,3.8467605835515166,0.16581699024167418
46.250584,3.959755211171384,0.16514137126741132
46.254672,4.062724057564056,0.16453422587197383
46.258764,4.156785789404411,0.16391151444246824
46.26290399999999,4.242616173767594,0.16324052273990117
46.267,4.3169585178533625,0.16256725893668972
46.271028,4.379148472262107,0.1620070416660907
46.27512,4.435909454718646,0.16130916735973325
46.279208,4.485114856773157,0.16056265546336415
46.283348,4.522744329001383,0.1599856298276155
46.28748399999999,4.555189114428342,0.15939331879309981
46.29162,4.584365789379526,0.15878293128344398
46.295704,4.611625888005218,0.15816821677521592
46.29978799999999,4.631032484555674,0.15772927994428754
46.30387999999999,4.652897864255762,0.15718579378184822
46.307964,4.674419651580513,0.15660199308290257
46.312096,4.693016920804826,0.15603873091171505
46.316228,4.712954306503891,0.15541459826753606
46.320312,4.735129025552719,0.15470880767338677
46.324348,4.755730760651391,0.15403219077640454
46.32844,4.774427337100106,0.1534083413754117
46.33246799999999,4.79480762239891,0.15275544116241052
46.33655999999999,4.811488315297732,0.15219696619906375
46.340716,4.827271791321541,0.15166911398223742
46.344812000000005,4.841260833595327,0.15118472050956572
46.348908,4.857044309619136,0.15066206169449767
46.353004,4.872152018567804,0.15013956440347162
46.357036,4.881654976466531,0.14975821813098922
46.361128,4.88734761706534,0.14947574880273984
46.365268,4.89348315726389,0.14914991058410296
46.369404,4.899397247662569,0.14884931341213023
46.37353999999999,4.906540729636066,0.14849884981270148
46.377624,4.913905661409432,0.148131273697769
46.381704,4.927096794032608,0.14761151262843383
46.38578799999999,4.938161318205955,0.14716622458366757
46.38987999999999,4.953822651654297,0.1466260880445348
46.394008,4.969938302377911,0.14610920435849578
46.39814799999999,4.979109085576833,0.14577624238605458
46.402284,4.9880584189758865,0.1454688137504167
46.406316,4.993873202150163,0.14525535074117657
46.41039599999999,5.005292736374382,0.1449192844525044
46.414532,5.01951464612357,0.14452682921111468
46.41866399999999,5.036882523773067,0.1441057115734993
46.422792,5.050218634322777,0.14379421160577976
46.426936,5.066246395497521,0.14343548032713027
46.431016,5.080258273122374,0.14313094930813453
46.43509999999999,5.097637568447402,0.14278441397959224
46.439184,5.120400165022503,0.14234062104293826
46.443328,5.147427396172793,0.1418341773771924
46.447464,5.176814103248313,0.14131405838910688
46.4516,5.2032877098989285,0.14086360150420404
46.45568399999999,5.226737491224704,0.14049129197364835
46.459772,5.249179330775531,0.14015072148475677
46.46386,5.269383836976597,0.13988711475982069
46.467992,5.286564517852822,0.13969857384343048
46.472128,5.300610648504272,0.1396001426836086
46.476264,5.3154432711308,0.1394954336800157
46.4804,5.337110036382084,0.13922743566196952
46.48447999999999,5.352950600783558,0.13909220004857534
46.488556,5.369909831859913,0.13891807459620492
46.492688,5.381042862086458,0.13888283917208044
46.496836,5.384665982613104,0.13900534725626032
46.500972,5.388056235664347,0.13908507565829628
46.505104,5.3954782558153775,0.13906224224793814
46.509196,5.398192741791478,0.13913836568690746
46.513284,5.402923111317472,0.13916335949301326
46.517416,5.402270179593399,0.13928302559081845
46.521552,5.397463338194071,0.13945077799593303
46.52568,5.389621253794367,0.1396314261465744
46.52981199999999,5.379641143269302,0.1398081366250813
46.533908,5.370436107043781,0.13991871881282184
46.538004,5.367278721467939,0.13988048057377056
46.54209999999999,5.3605324683920506,0.1399027093002991
46.546244,5.35221323136601,0.13993621024319502
46.550388,5.346463502389535,0.13987301470238403
46.554524,5.3385757472877,0.13980779205355343
46.558616,5.3314630664854095,0.13967550707402174
46.562704,5.319077809332983,0.1396241207960578
46.56679199999999,5.311056493980146,0.1394451910019681
46.57093999999999,5.305272511977074,0.13919707308215876
46.575088,5.298247720723652,0.1389304712984307
46.579228,5.297159855219976,0.13852188158608095
46.58337999999999,5.295064047941352,0.13813927719997973
46.587468,5.289379373162682,0.1378179242841139
46.59155199999999,5.283916148183881,0.13747563172233082
46.595704,5.2842791240548905,0.13700869811941058
46.59983199999999,5.285760766600779,0.1365053482988905
46.603964000000005,5.2870209593468,0.13601994001596526
46.60809999999999,5.2880597022929505,0.1355525578992516
46.612172,5.28686111188934,0.1351528696649157
46.616204,5.285108896986053,0.13480051919267708
46.620288,5.279214190083045,0.13455776948154174
46.624376,5.277694842655162,0.13424992073813485
46.628512,5.278080653877237,0.1339029681665426
46.632644,5.279142232174454,0.13356148011133828
46.63678,5.284579169946795,0.13315792148673936
46.64080799999999,5.288565266344451,0.13281772637264985
46.644892,5.299729097742201,0.13236354841913994
46.648976000000005,5.314038897040258,0.13189582914384004
46.653108,5.327795071838642,0.13147796056330166
46.65724,5.344807939437268,0.13103106501575043
46.66132399999999,5.358907706610989,0.13064704633834712
46.66545599999999,5.373904690659723,0.13025156981211009
46.66954,5.389577441783596,0.12985844557781073
46.673672,5.410522769257608,0.1293946095222879
46.67781599999999,5.421499403882088,0.12915439749937135
46.681952,5.435622006406874,0.1288984750704447
46.686044,5.453898518606914,0.1286053074451711
46.690136,5.475320998707263,0.12829649707330934
46.69422399999999,5.50212678005768,0.127910426107396
46.698312,5.5331971959832895,0.12747940051448517
46.702448,5.564832654084106,0.12706193691189774
46.70658399999999,5.598151821035012,0.12663533595111295
46.710668,5.6318145803612545,0.12624402227354728
46.71476,5.667836815612729,0.1258486813226963
46.718844,5.698708617089535,0.12556922400747922
46.722932,5.732161344291439,0.12526386300701048
46.727024,5.764163230118659,0.12502163735097627
46.731148000000005,5.792465523545897,0.1248399242269308
46.73518,5.821554308948213,0.12465597542459289
46.739268,5.85412123695064,0.12443799024862871
46.74335599999999,5.891628566603397,0.12418619777079176
46.74744799999999,5.928250097056676,0.12400137666917271
46.75158,5.969922754060222,0.12377419817838714
46.755708,6.007895818663786,0.12360520629094854
46.759796,6.052027258816965,0.12330855956754155
46.763884,6.091894064394953,0.12305293657399234
46.767976,6.126709743422675,0.1228429283999723
46.772064,6.155466354125186,0.12269392182961086
46.7762,6.179404705752832,0.12262773200891602
46.780288,6.198070481030341,0.12262173366769646
46.784424,6.217289880807526,0.12257538472915336
46.788504,6.231347429134509,0.12258114902956574
46.79258399999999,6.246855818836178,0.12253654110482688
46.796672,6.256980907287776,0.12255857947580275
46.800808,6.271359212639031,0.12248771309934094
46.80494399999999,6.282148650490239,0.12246139107878985
46.809076000000005,6.292705220866044,0.12239936374243376
46.81316,6.30438045791673,0.12231085750121468
46.81728799999999,6.3166093194670925,0.1221843847985264
46.82142399999999,6.324573546442265,0.12209707960594408
46.825564,6.32602438781695,0.12204760277752306
46.8297,6.329701144865868,0.12189492145679726
46.833828,6.327651008289376,0.12177680574421036
46.83795599999999,6.3251465544376115,0.12163798680822183
46.842084,6.319839725060877,0.12153786542356462
46.846212,6.320248371634018,0.12135417437531189
46.850352,6.323237943932259,0.12114754636895067
46.854488,6.334966817505216,0.12080527637306336
46.858576,6.349265199127741,0.12038966464588116
46.86272,6.366808855874975,0.11990559990852263
46.866816,6.386146946372234,0.1194066540736654
46.87096,6.405485036869493,0.11890435325588504
46.87510399999999,6.421234259866704,0.11844484517669589
46.879248,6.4391100913137445,0.11794114619249105
46.88334,6.457207372560653,0.11742800095964918
46.887376,6.4757475534073015,0.11688320763238219
46.89141599999999,6.490588141853968,0.11638637865108677
46.895556,6.503855746350481,0.11589481326299093
46.899644,6.5152181921970325,0.11543276515732899
46.903796,6.525794146068509,0.11497255951879004
46.907892,6.5398482425400974,0.11448121014973435
46.911984,6.548641180337084,0.11409024395838431
46.91602,6.559228551884094,0.11367964828632798
46.92016,6.571388907381258,0.11326599320857361
46.924308,6.582319871303604,0.11288383834838503
46.928448,6.588321851251154,0.11258077772214589
46.93254,6.591410730773797,0.11232011766474058
46.936632,6.5912543351717305,0.11212710975272312
46.940676,6.589868547994848,0.11196571522968478
46.944768,6.5872533692431485,0.11183562220434295
46.948916,6.578025497666563,0.11179036718268746
46.95300399999999,6.572275768690089,0.11171648873096438
46.957156,6.569106965438716,0.11162308185745744
46.961184,6.570313521662467,0.11149351976082511
46.965228,6.570069236511531,0.11140948462250459
46.969324,6.571287210410815,0.11132993451341168
46.973472,6.575761877110341,0.11123765167440966
46.97761199999999,6.5823745699352285,0.11115596013363423
46.981692,6.59056024671027,0.1110721825138959
46.985732,6.599200240760583,0.1110084582613555
46.989828,6.607397335211157,0.11097384114407385
46.993972,6.6219856726867485,0.11087275088040552
46.998116,6.638146994112494,0.1107701000645249
47.002248,6.657675733238418,0.11065047674952741
47.006384,6.679109631014299,0.11050693631789939
47.010468,6.703345904315151,0.11033162800839158
47.01460399999999,6.7318353945156595,0.11008125409681581
47.01874,6.758751900766015,0.10983524793518624
47.02287199999999,6.786676348791316,0.10957563091935593
47.027012,6.817070997641783,0.10930770475345503
47.0311,6.85307039754219,0.10897525687270794
47.035236,6.887496813492445,0.10864758993773452
47.039372,6.919342303717598,0.10833914609524894
47.0435,6.945915217592614,0.10807552942617597
47.047636,6.971923089292424,0.1077999888492649
47.051716,6.997144469017159,0.1075263544343604
47.055804,7.018998431041713,0.10727032129794137
47.059888,7.038603642040973,0.10701076955141761
47.06397199999999,7.053722768665174,0.10678987261151268
47.06810399999999,7.072308620213953,0.10649957384391648
47.072244,7.092566762937289,0.10615620221693489
47.076328,7.106987287135283,0.10584050849274584
47.080412,7.121850710933016,0.10550075012098843
47.084544,7.1290820824553816,0.10520196675690041
47.088684,7.134740470027594,0.10490476580774391
47.09282399999999,7.13815010657451,0.10460358350256393
47.09696,7.141449018221491,0.10431128400515072
47.101096,7.141834829443566,0.10405305114949925
47.10522399999999,7.142109915765706,0.10380227714112535
47.10936,7.138452542212462,0.1035543501677298
47.11350399999999,7.133222184709062,0.10330785601951052
47.117644,7.128102552105599,0.10305469720018387
47.121792,7.123880136377147,0.10279424923048867
47.125928,7.116744620223789,0.10256685402165988
47.13002399999999,7.109830553870301,0.1023259796213038
47.13412,7.102129995541738,0.10208512720575494
47.13826399999999,7.09846120431296,0.10178979366362217
47.14241199999999,7.096697571734142,0.10147411878141255
47.146556,7.09896570625511,0.10110371403363916
47.150648,7.094621147951191,0.1008011267527738
47.154736,7.085347605672473,0.10055871632651528
47.158828,7.078544264218921,0.100308282897962
47.162876,7.070732980990422,0.10007170666197829
47.16702,7.065502623487022,0.09982032951226462
47.171168,7.0613909326585045,0.09954868337460819
47.175308,7.056160575155108,0.09929610602266514
47.179396,7.047230625251727,0.09907658237893216
47.183432,7.045134817973104,0.09877803823791761
47.187472,7.039450143194434,0.09850509584882448
47.191616,7.037354335915811,0.098206103095962
47.195768,7.035369253537122,0.09790069642629659
47.1999,7.0345028378333145,0.09757639864483277
47.20398399999999,7.031841988379484,0.09726412610919062
47.208068,7.032315689150429,0.09690444002539193
47.21215599999999,7.0323464903216335,0.09657147786591816
