Time,Force,Position
48.77932,0.05685146817116751,0.0
48.783456,0.05898380331051928,0.0
48.787592,0.05618142778554894,0.0
48.79172,0.05002305223593389,0.0
48.795848,0.04677777711122407,0.0
48.799988,0.04331105218664451,0.0
48.80408799999999,0.044773311236863546,0.0
48.808124,0.04892722091211804,0.0
48.81222,0.055994231012277754,0.0
48.81631599999999,0.06597434153734268,0.0
48.8204,0.07505723518739577,0.0
48.824436,0.08032981153753184,0.0
48.828468,0.08582383768753764,0.0
48.832556,0.09479600643765587,0.0
48.836656,0.10298168321269716,0.0
48.840748,0.11116735998773844,0.0
48.844836,0.11632921143793962,0.0
48.848972,0.12350694643803423,0.0
48.853096,0.12496920548825327,0.0
48.857228,0.1264314645384723,0.0
48.86132,0.12632073963853743,0.0
48.86541999999999,0.12879094046370312,0.0
48.869504,0.12935598263891035,0.0
48.873592,0.13103969148899913,0.0
48.87772399999999,0.13103396479947563,0.0
48.881812,0.12923380435992848,0.0
48.8859,0.1255284852704228,0.0
48.889996,0.12002873243089349,0.0
48.894076,0.11262382094140565,0.0
48.898168,0.1023058090270126,0.0
48.90229599999999,0.09198779711261956,0.0
48.90638799999999,0.08458288562313174,0.0
48.910472,0.07617003235869722,0.0
48.914556,0.06495480356929237,0.0
48.91864399999999,0.05452606675496446,0.0
48.922772,0.04499454681564836,0.0
48.92690399999999,0.03658169355121384,0.0
48.931032,0.026152956736885915,0.0
48.935172,0.019534537222475033,0.0
48.939312,0.012916117708064154,0.0
48.943448,0.00809213194367692,0.0
48.947588,0.0034895959791594287,0.0
48.951728,0.0016894355396122793,0.0
48.955876,0.0,0.0
48.960016,0.0029188271144287153,0.0
48.96415999999999,0.009537246628839594,0.0
48.968292,0.019179491468090556,0.0
48.972428,0.028821736307341517,0.0
48.976564,0.0393611980216043,0.0
48.980696,0.04990065973586708,0.0
48.98482799999999,0.05752702102522465,0.0
48.988912,0.06817720763942231,0.0
48.993052,0.0797246111286318,0.0
48.997192,0.09048552264276433,0.0
49.001324,0.09923055060700346,0.0
49.00546,0.10786485367130773,0.0
49.009596,0.11358605631070678,0.0
49.01372799999999,0.12031520072505254,0.0
49.01786799999999,0.12334475273941611,0.0
49.021952,0.12457987100375606,0.0
49.026092,0.12457987100375606,0.0
49.030224,0.12457987100375606,0.0
49.034348,0.12491777239308419,0.0
49.038476,0.12503422398254257,0.0
49.04257199999999,0.12211539686811385,0.0
49.046668,0.11549697735370296,0.0
49.0508,0.10585473251445202,0.0
49.054928,0.09621248767520105,0.0
49.059064,0.08567302596093826,0.0
49.063204,0.07513356424667547,0.0
49.06735199999999,0.06750720295731791,0.0
49.071492,0.056857016343120244,0.0
49.075632,0.04530961285391077,0.0
49.07978,0.034548701339778234,0.0
49.08392,0.0258036733755391,0.0
49.08806799999999,0.01716937031123483,0.0
49.092196,0.011448167671835771,0.0
49.09632799999999,0.00471902325749002,0.0
49.100464,0.0016894712431264327,0.0
49.104592,0.0004543529787864914,0.0
49.10872,0.0013572965433218172,0.0
49.11286,0.0032681818828038376,0.0
49.117,0.003833224058011046,0.0
49.121132,0.005738382707969564,0.0
49.125272,0.010673093372291668,0.0
49.129408,0.013813370286590125,0.0
49.13354399999999,0.017961588975835278,0.0
49.137696,0.021888357865210685,0.0
49.141832,0.025704401854651227,0.0
49.145968,0.02851250406914507,0.0
49.150096,0.029526172533615266,0.0
49.154224,0.03244499964804398,0.0
49.158352,0.036261043637484516,0.0
49.162488,0.040187812526859934,0.0
49.166628,0.044114581416235345,0.0
49.170768,0.049946508955569284,0.0
49.174856,0.05577843649490321,0.0
49.178996,0.05780004673432009,0.0
49.18313199999999,0.05802722322371333,0.0
49.18727199999999,0.059151616588118405,0.0
49.19141199999999,0.0591516165881184,0.0
49.19555999999999,0.05904089168818353,0.0
49.199696,0.058137948123648205,0.0
49.203832,0.05611633788423131,0.0
49.20795999999999,0.0511816272199092,0.0
49.212088,0.04804135030561075,0.0
49.216216,0.04389313161636559,0.0
49.220352,0.03996636272699019,0.0
49.224488,0.036150318737549654,0.0
49.22862799999999,0.033342216523055815,0.0
49.23276799999999,0.0330100418232512,0.0
49.2369,0.03088343337342294,0.0
49.241036,0.030772708473488068,0.0
49.24518,0.031448475548630145,0.0
49.249324,0.03111630084882553,0.0
49.25346,0.030784126149020916,0.0
49.257592,0.030341226549281432,0.0
49.26172,0.03550307799948262,0.0
49.265848,0.03943553787486739,0.0
49.26997599999999,0.04258150577517519,0.0
49.274112,0.046956865250299434,0.0
49.278248,0.04752190742550665,0.0
49.282392,0.051902993590154385,0.0
49.286532,0.055165413079920574,0.0
49.290672,0.062348874769538654,0.0
49.29481199999999,0.06874584448407979,0.0
49.29895199999999,0.07312693064872754,0.0
49.303108,0.07369769951345825,0.0
49.307244,0.07538713505307054,0.0
49.311376,0.0780845123676295,0.0
49.315512,0.0811083376924696,0.0
49.3196,0.08480793009245176,0.0
49.32373199999999,0.08738885581755235,0.0
49.327868,0.08716740601768261,0.0
49.332008,0.08784317309282469,0.0
49.336148,0.08661378151800825,0.0
49.34027999999999,0.08370068109310304,0.0
49.344416,0.07921459671804391,0.0
49.348548,0.08268132164262348,0.0
49.35268799999999,0.08413216301730968,0.0
49.356836,0.08266990396709063,0.0
49.36096799999999,0.0851286871167235,0.0
49.365108,0.08546086181652814,0.0
49.369236,0.09083274539106623,0.0
49.373372,0.08746532769088866,0.0
49.3775,0.0867895606157466,0.0
49.381584,0.08902689396550972,0.0
49.38572,0.09485309481532014,0.0
49.38986,0.09933917919037925,0.0
49.393996,0.10169865511561012,0.0
49.398144,0.10092358081606602,0.0
49.402236,0.09958346434131471,0.0
49.406376,0.09353581369163454,0.0
49.410524,0.09118775544193654,0.0
49.414664,0.08895042209217341,0.0
49.418808,0.08671308874241028,0.0
49.422948,0.08738885581755236,0.0
49.42708,0.08582728954293131,0.0
49.431216,0.07820092825357372,0.0
49.435348,0.07440202862918954,0.0
49.439432,0.07261901255469874,0.0
49.443564,0.07083599648020794,0.0
49.4477,0.07196608083062236,0.0
49.45183599999999,0.06626202255627965,0.0
49.45592799999999,0.06616271533187765,0.0
49.46001999999999,0.0631503076825704,0.0
49.464156,0.05845419118317441,0.0
49.468288,0.055098191158529715,0.0
49.47241999999999,0.050058482283796245,0.0
49.476504,0.050058482283796245,0.0
49.480588,0.05531964095839946,0.0
49.484716,0.06035934983313294,0.0
49.48884399999999,0.0684228840327065,0.0
49.492976,0.07200033385722093,0.0
49.497124,0.07669645035661694,0.0
49.501256,0.07847946643110773,0.0
49.505396,0.07993030780579391,0.0
49.509524,0.0842942496053853,0.0
49.513656,0.08968327754497973,0.0
49.517784,0.09135556871953567,0.0
49.52192,0.09571951051912705,0.0
49.526064,0.09425725146890802,0.0
49.530212,0.09100055866866535,0.0
49.534296,0.0925621249432864,0.0
49.538388,0.09344792414276537,0.0
49.54252,0.09332578156729765,0.0
49.54666,0.0958952896168654,0.0
49.550804,0.09353581369163454,0.0
49.554944,0.09397871329137403,0.0
49.559036,0.0889218600515842,0.0
49.56318,0.08073045658701941,0.0
49.567316,0.07253905312245464,0.0
49.571452,0.06423692475795498,0.0
49.575588,0.05862644701849079,0.0
49.57972,0.051897302604145046,0.0
49.583848,0.048081258614704504,0.0
49.587984,0.04347872265018701,0.0
49.59212,0.03797896981065771,0.0
49.596256,0.03258994187106326,0.0
49.600392,0.028995347681492468,0.0
49.604528,0.02259837796695133,0.0
49.608612,0.02338486994202828,0.0
49.61269599999999,0.02079821752740418,0.0
49.616832,0.01630640646282156,0.0
49.620964,0.01170387049830407,0.0
49.62510399999999,0.009117218083679969,0.0
49.62919599999999,0.00462540701909735,0.0
49.63333599999999,0.003943913254431766,0.0
49.637472,0.0031574212793548137,0.0
49.641612,0.003949639943955269,0.0
49.645708,0.0039496399439552686,0.0
49.64984,0.003949639943955269,0.0
49.65397599999999,0.003949639943955269,0.0
49.658108,0.003949639943955269,0.0
49.662248,0.003949639943955269,0.0
49.666388,0.003949639943955269,0.0
49.670528,0.003949639943955269,0.0
49.674672,0.003949639943955269,0.0
49.67882,0.003949639943955269,0.0
49.68296,0.003949639943955269,0.0
49.687116,0.003949639943955269,0.0
49.691256,0.0015844373292009113,0.0
49.695384,0.0015844373292009113,0.0
49.699524,0.0015844373292009115,0.0
49.70366,0.0015844373292009115,0.0
49.7078,0.0015844373292009115,0.0
49.71194,0.0015844373292009115,0.0
49.71606799999999,0.0015844373292009115,0.0
49.7202,0.0007922186646004557,0.0
49.724336,0.0,0.0
49.728468,0.0,0.0
49.732608,0.0,0.0
49.736748,0.0,0.0
49.740884,0.0,0.0
49.745012,0.0,0.0
49.74913599999999,0.0,0.0
49.75322799999999,0.0,0.0
49.75736,0.0,0.0
49.761492,0.0,0.0
49.765624,0.0,0.0
49.76976,0.0005707688647307126,0.0
49.77389599999999,0.0011415377294614253,0.0
49.77803599999999,0.003949639943955269,0.0
49.78217599999999,0.008441451008537887,0.0
49.786328,0.014727695823144149,0.0
49.790468,0.024824257937667453,0.0
49.794616,0.036825978702149265,0.0
49.798756,0.04893842436656595,0.0
49.80289199999999,0.06586912910584637,0.0
49.807024,0.0838077756200735,0.0
49.81116,0.09872259680946051,0.0
49.815296,0.11464535977379424,0.0
49.819444,0.1249633716881873,0.0
49.82357999999999,0.13729726715247373,0.0
49.827708,0.14783672886673652,0.0
49.83183999999999,0.16039207413089268,0.0
49.83598,0.17294741939504885,0.0
49.84012,0.185502764659205,0.0
49.844268,0.19805810992336118,0.0
49.848404,0.20758962986267726,0.0
49.852532,0.21072418008745222,0.0
49.856664,0.2166611058371975,0.0
49.860792,0.2212579151121915,0.0
49.86492,0.22607617418705522,0.0
49.86905599999999,0.22528968221197826,0.0
49.8732,0.21710400543693698,0.0
49.87733599999999,0.20701317001193717,0.0
49.881472,0.19972471011190776,0.0
49.885556,0.18279973206215086,0.0
49.889696,0.16486108554792375,0.0
49.893844,0.1510706577229418,0.0
49.89797599999999,0.13514789475860806,0.0
49.90212399999999,0.12785943485857862,0.0
49.90626,0.11765787453364394,0.0
49.910352,0.11216384838363813,0.0
49.914436,0.10432176398393433,0.0
49.918516,0.09759834625911207,0.0
49.922656,0.09087492853428983,0.0
49.926792,0.08235707705944392,0.0
49.930928,0.07776026778444994,0.0
49.935064,0.0819027597841716,0.0
49.939144,0.08133771760896438,0.0
49.943224,0.07976473365881047,0.0
49.94736,0.07538937418368623,0.0
49.95144,0.0739271151334672,0.0
49.955524,0.07583227378342572,0.0
49.95961199999999,0.07964259108334275,0.0
49.963696,0.08053980795835458,0.0
49.96777599999999,0.08816044255818865,0.0
49.97186,0.09567607894761135,0.0
49.97594,0.1029645388476408,0.0
49.98002,0.11429049253698054,0.0
49.9841,0.12168967733694487,0.0
49.988188,0.12987535411198614,0.0
49.992276,0.13302132201229397,0.0
49.996368,0.13571297263732945,0.0
50.000452,0.1353807979375248,0.0
50.004536,0.13583511521279712,0.0
50.00861999999999,0.1390918080130398,0.0
50.01265599999999,0.14055406706325885,0.0
50.01674799999999,0.13708734213867926,0.0
50.020844,0.13563650076399308,0.0
50.02494,0.1353043260641885,0.0
50.028972,0.13497215136438387,0.0
50.033008,0.1383395690645614,0.0
50.037096,0.14405504501443697,0.0
50.041188,0.14394432011450212,0.0
50.045272,0.14282565343962053,0.0
50.04935999999999,0.13969110321484557,0.0
50.05345199999999,0.13476211924004697,0.0
50.05754,0.1281494264151596,0.0
50.061624,0.11952085004037882,0.0
50.065712,0.1117894905406099,0.0
50.069796,0.10416885594077582,0.0
50.073888,0.10069071334066342,0.0
50.07797599999999,0.09799906271562794,0.0
50.082064,0.10001494626552135,0.0
50.08616,0.09642607876547406,0.0
50.090252,0.08992411084052157,0.0
50.094348,0.08734318511542095,0.0
50.09844,0.0878968096150953,0.0
50.102528,0.08934765098978148,0.0
50.106624,0.08698817506455062,0.0
50.110712,0.08552591601433158,0.0
50.114808,0.08047478946406525,0.0
50.118948,0.07307560466410094,0.0
50.123084,0.07441572113885225,0.0
50.127168,0.07485862073859174,0.0
50.131308,0.07260986971329576,0.0
50.13539599999999,0.07517937776286351,0.0
50.13948,0.07842465288757333,0.0
50.143568,0.0778596107123661,0.0
50.147652,0.07729456853715891,0.0
50.15174,0.07661880146201684,0.0
50.15582799999999,0.07403787573691624,0.0
50.159916,0.07145695001181564,0.0
50.164,0.06517643188673286,0.0
50.168096,0.06382489773644871,0.0
50.172188,0.06337058046117637,0.0
50.17628,0.059554536471735836,0.0
50.180368,0.05461982580741374,0.0
50.184508,0.04867717336814494,0.0
50.188644,0.045536896453846475,0.0
50.192784,0.043299563104083345,0.0
50.19692799999999,0.04094577816486183,0.0
50.201016,0.03881344302551006,0.0
50.20516,0.03186284881129458,0.0
50.209296,0.026817413247037597,0.0
50.213436,0.024574353207750962,0.0
50.217572,0.019418192743559118,0.0
50.221704,0.014372757179302142,0.0
50.22584,0.012240422039950379,0.0
50.229924,0.010108086900598615,0.0
50.234004,0.008086476661181723,0.0
50.23808399999999,0.005954141521829961,0.0
50.242168,0.0038218063824781968,0.0
50.246304,0.0025866881181382554,0.0
50.25037999999999,0.002708830693605978,0.0
50.254516,0.006752015468925608,0.0
50.258608,0.013935477158543694,0.0
50.26274,0.02111893884816178,0.0
50.266876,0.027294458762833176,0.0
50.271016,0.035485862227397955,0.0
50.275104,0.039750496802587326,0.0
50.279192,0.046823233592270544,0.0
50.283332,0.05658762100698923,0.0
50.287468,0.06747067509658948,0.0
50.291608,0.07936167096113643,0.0
50.295744,0.0911419419257485,0.0
50.299876,0.1038194297653724,0.0
50.30402,0.11671836740486603,0.0
50.308108,0.12872008816934788,0.0
50.31224,0.13881665028387116,0.0
50.316332,0.150818371048353,0.0
50.320464,0.16192287493782295,0.0
50.324592,0.17044645310219236,0.0
50.32872,0.18188313169146694,0.0
50.33280799999999,0.1909546076659872,0.0
50.336892,0.19509709966570885,0.0
50.34098,0.19352411571555495,0.0
50.345108,0.1891487562404307,0.0
50.349244,0.18578133854025317,0.0
50.353336,0.18140597906512893,0.0
50.357428,0.18307827023968487,0.0
50.36155599999999,0.18194818588927045,0.0
50.365692,0.17543480028878514,0.0
50.369824,0.16758129821354845,0.0
50.37392,0.1577119125884184,0.0
50.37806,0.14885046873823504,0.0
50.38219599999999,0.1387596333132352,0.0
50.386284,0.13069609911366165,0.0
50.390376,0.1271300669646801,0.0
50.39446,0.12683214529147405,0.0
50.398544,0.1281300429194876,0.0
50.402632,0.13742642054927123,0.0
50.40671999999999,0.16572074815636945,0.0
50.410808,0.2009177244414219,0.008796835350208178
50.4149,0.2561434278298013,0.017155089259706425
50.418988,0.3337573342467385,0.025308555899157453
50.42308,0.4350002529425828,0.03341338152467528
50.427168,0.5606586758924114,0.04144542798103036
50.43126,0.7072544604961113,0.04942362838672439
50.435352,0.8711987392536357,0.05743488781679552
50.43948399999999,1.0513728454901028,0.06544541587653589
50.443568,1.2557295885051514,0.07330787125417856
50.44766,1.4866284442240123,0.08106506760458378
50.451748,1.739694053171561,0.08878403966878386
50.455844,2.016610124197887,0.09645366777500994
50.459936,2.3162579906281078,0.10407449691238352
50.464076,2.6372861183119403,0.11168892704567693
50.468212,2.976437814449141,0.11929612887094795
50.4723,3.331231460539012,0.12687932879450364
50.47638799999999,3.706141723281079,0.13438931326758694
50.480532,4.0930822331247025,0.1418940973379411
50.48467599999999,4.488662737018641,0.14934212710639874
50.48881599999999,4.8759354215620725,0.15680891042727005
50.492912,5.266197678403744,0.1553947742234084
50.497004,5.642501694142835,0.1544068020378514
50.5011,6.002476575178582,0.1535965569707011
50.505236,6.350253395835171,0.15272341343724355
50.509328,6.6802274050626655,0.15187355228468644
50.513416,6.992742195236402,0.15104562460506962
50.5175,7.291951676031631,0.15014594274571844
50.521648,7.575053471923385,0.14923261884802724
50.525784,7.837007874036932,0.14846762533288688
50.529872,8.07847923177188,0.1477829372135807
50.533956,8.30058621180311,0.14711529847865262
50.53805199999999,8.50052643860565,0.14649894749879075
50.54214,8.676948378029218,0.1459260238224665
50.54628,8.835013881524016,0.14533326856170548
50.550368,8.975177266365314,0.14473240501624282
50.554456,9.098236442203726,0.14415619313830513
50.558544,9.203072742364364,0.14363482052815543
50.562636,9.298547610697417,0.1430651036438576
50.566724,9.382545856428587,0.14252127586177285
50.570804,9.459675706508397,0.1419679060356823
50.574892,9.527367652887285,0.14147632751959005
50.579032,9.59157003899053,0.14098613120280823
50.583164,9.65722326646846,0.1404703930670014
50.587244,9.712232034021714,0.14009694468019865
50.591332,9.76601141000015,0.1397543041229527
50.59542,9.819004294003513,0.13942012760588657
50.599504,9.867843268331622,0.13911688444800258
50.60364,9.914322766734498,0.13882520632383727
50.607724,9.961245164737115,0.13851509396828587
50.61181199999999,10.007381070764652,0.13821193853739655
50.615896,10.051722543042166,0.13792724027443676
50.620032,10.100992999294482,0.13758599649688089
50.624116,10.15093922262194,0.13724752472007665
50.628252,10.199201737099305,0.1369231259974278
50.632332,10.2470099343014,0.13658988701350053
50.636472,10.294917438727895,0.1362225384622954
50.64060799999999,10.339789700154018,0.13586410844387703
50.644752,10.375911242629897,0.13557611602183167
50.648888,10.410005483880346,0.13528563036728689
50.65298,10.44531769903008,0.13494345708384758
50.657108,10.476918904104297,0.13460713833632468
50.66124799999999,10.507390024828101,0.13425840062181374
50.665384,10.531015585251613,0.1339574749943493
50.669464,10.558329320399576,0.1335907276714205
50.673548,10.58372647922205,0.13321464829507687
50.677688,10.606309844844017,0.13283621925521044
50.681828,10.627652401215636,0.13244905769021426
50.685968,10.65200736523656,0.13199819638304136
50.690052,10.675675144506812,0.13151752339058767
50.69413599999999,10.694845421726471,0.131042290026984
50.698216,10.715233672845416,0.1305174209294457
50.7023,10.727092654813978,0.13004540272593013
50.70643999999999,10.740956102656902,0.12952196830273266
50.710528,10.753800191049347,0.1289805189274342
50.714608,10.762822544466344,0.1284455837184957
50.718684,10.767690988208084,0.12793090871255272
50.722824,10.773223781349435,0.1273890927363082
50.726908,10.785025674940334,0.1267710665584447
50.730984,10.792673658855978,0.1261728779209888
50.735064,10.795946283296498,0.12560354850050812
50.73914799999999,10.797535198886933,0.12504150861443597
50.743228,10.79755113052721,0.12448306482678982
50.74730399999999,10.795207586242258,0.12392765120060732
50.751388,10.791966825082293,0.12337973066950667
50.75546799999999,10.791749889247168,0.12280081905776669
50.759548,10.790414286737164,0.12223673468195059
50.763632,10.788402917152014,0.12166899945230943
50.767712,10.77843873826723,0.1211835526069156
50.771792,10.763545575407644,0.12074686465678441
50.77588,10.749549629423072,0.12030226783576398
50.77996399999999,10.734213566963746,0.11988227959507776
50.784052,10.719774721379434,0.11945398601197688
50.788136,10.700406891820323,0.11907422507219566
50.79221999999999,10.682722771111301,0.11868627887058936
50.796304,10.669414009877402,0.11827214097696476
50.80038,10.657899682393527,0.11784474696060848
50.804464,10.644258746459826,0.11744233444959085
50.808544,10.622886451026353,0.11710931419412225
50.812632,10.604992298192995,0.1167563405200514
50.816764,10.587773912434777,0.11640520074335287
50.820844,10.576836044801642,0.11601321687348161
50.82492,10.567360436218726,0.11562279246799911
50.828992,10.566856996385928,0.1151752506152404
50.833076,10.564448397903172,0.11474337288914674
50.837168,10.5558814238708,0.11437749480608665
50.84129599999999,10.552587026188563,0.11398323375229054
50.845428,10.552438596406638,0.11358518380577654
50.84950799999999,10.559578626524742,0.11313802977043591
50.853588,10.570761841418165,0.11268056159619218
50.85766399999999,10.584083082436948,0.11222962722604944
50.861748,10.59696142385599,0.111797594577105
50.86588,10.616906775375194,0.11132875742790307
50.870012,10.642124703244534,0.1108333615588317
50.874092,10.666789006614199,0.1103628393001545
50.878172,10.691121135284058,0.10990936710334474
50.88231999999999,10.718488506954293,0.1094596411301277
50.886456,10.7492232963247,0.10899942942212776
50.890592,10.789040979345163,0.10848513397887692
50.894676,10.827739995690745,0.1079874906045422
50.89876,10.87171158838646,0.10746713417920614
50.902848,10.912205038482067,0.10696765125509106
50.906988,10.955611589002578,0.10644872986649434
50.911124,10.996891531073258,0.10595957531901676
50.91526399999999,11.039744457094097,0.10547005905786892
