Time,Force,Position
47.37812,0.02261232603708716,0.0
47.38220799999999,0.019023458537039864,0.0
47.38629999999999,0.01722902478701621,0.0
47.39039199999999,0.019134183436974726,0.0
47.39447999999999,0.022944500736891766,0.0
47.39856399999999,0.03157307711167253,0.0
47.40265199999999,0.04009092858651842,0.0
47.406736,0.04878217053401588,0.0
47.41081999999999,0.05635474580663177,0.0
47.414908,0.06331103100685662,0.0
47.41899199999999,0.07015659130714658,0.0
47.42308,0.07912876005726481,0.0
47.42716399999999,0.08838504417996948,0.0
47.43125199999999,0.09645999605507588,0.0
47.43534399999999,0.10722659855521775,0.0
47.43942799999999,0.11731743398021756,0.0
47.443508,0.1312185867051344,0.0
47.44759199999999,0.14888199740275007,0.0
47.45167199999999,0.1627831501276669,0.0
47.45575199999999,0.17208749357758973,0.0
47.45984,0.18486997962762503,0.0
47.46392399999999,0.2004548412026306,0.0
47.46806,0.21615042767757112,0.0
47.47219199999999,0.2279249719526597,0.0
47.47626799999999,0.2386915744528016,0.0
47.480352,0.24463991787807973,0.0
47.484432,0.24778588577838753,0.0
47.48856799999999,0.2510425785786302,0.0
47.49270799999999,0.2575445465035827,0.0
47.49683999999999,0.2660623979784286,0.0
47.50092,0.2740152072780673,0.0
47.50499599999999,0.27714975750284226,0.0
47.509136,0.2823001912775106,0.0
47.51327199999999,0.2876720748520487,0.0
47.51741199999999,0.2914709744764329,0.0
47.52149999999999,0.2923567736759119,0.0
47.525588,0.28853503870046204,0.0
47.52972399999999,0.2828081450750536,0.0
47.533856,0.2798836269746155,0.0
47.53799199999999,0.2823424101242484,0.0
47.542076,0.2822202675487806,0.0
47.54614799999999,0.27727986589844916,0.0
47.55027999999999,0.2684184220482658,0.0
47.55441999999999,0.26179431154784555,0.0
47.558556,0.2608856769973009,0.0
47.56263999999999,0.26076353442183314,0.0
47.56671999999999,0.2645624340462173,0.0
47.570804,0.2701557674206252,0.0
47.57494,0.2714958838953765,0.0
47.579084,0.26902568307021074,0.0
47.58317199999999,0.26712052442025225,0.0
47.587256,0.2661125826453055,0.0
47.59134399999999,0.2623022653453885,0.0
47.59548,0.25916771512061354,0.0
47.599616,0.254914498220957,0.0
47.60375599999999,0.25144777329637746,0.0
47.60788799999999,0.24708383149678603,0.0
47.61197999999999,0.23801235552226585,0.0
47.61611599999999,0.2308460381977041,0.0
47.62020399999999,0.21908291159814838,0.0
47.624348,0.20743050989852754,0.0
47.62848399999999,0.19757254194893034,0.0
47.63257999999999,0.1906276744242384,0.0
47.636676,0.18065898157470633,0.0
47.64081999999999,0.16609347945018027,0.0
47.64496399999999,0.1514653117529375,0.0
47.649096,0.13582920228074802,0.0
47.65324799999999,0.11828793415860005,0.0
47.65733999999999,0.10287327448628035,0.0
47.661436,0.08942643903663586,0.0
47.665532,0.07698754536193805,0.0
47.66966799999999,0.0692561858621691,0.0
47.67381599999999,0.06443792678730538,0.0
47.67794799999999,0.05973039261237653,0.0
47.682036,0.05300697488755429,0.0
47.686128,0.04919665758763724,0.0
47.69022399999999,0.04818871581269054,0.0
47.69436399999999,0.05322842468742402,0.0
47.6985,0.05748164158708054,0.0
47.70258399999999,0.06453723401170738,0.0
47.70666799999999,0.07237931841141121,0.0
47.71074399999999,0.07932418593610319,0.0
47.71488,0.09019009566064709,0.0
47.71901199999999,0.10374765601022647,0.0
47.72314399999999,0.11327344926001905,0.0
47.727184,0.12476706673248684,0.0
47.731268,0.13917378462985985,0.0
47.73534799999999,0.15458844430217955,0.0
47.73942799999999,0.16709000354959402,0.0
47.74355999999999,0.17762373857433336,0.0
47.747644,0.1872602567240608,0.0
47.751728,0.19409439934881792,0.0
47.75581199999999,0.19700749977372314,0.0
47.759952,0.19992060019862834,0.0
47.76408799999999,0.20877062637327884,0.0
47.76817199999999,0.21470755212302417,0.0
47.77224799999999,0.22154169474778126,0.0
47.77633599999999,0.22782221287286403,0.0
47.78041999999999,0.23096818077317186,0.0
47.78455199999999,0.23422487357341448,0.0
47.78868399999999,0.23546568282376382,0.0
47.792768,0.23883310052394138,0.0
47.79685199999999,0.23435843382441507,0.0
47.80093199999999,0.22831078317473494,0.0
47.80506799999999,0.22517623294995998,0.0
47.809204,0.21935003210014956,0.0
47.813296,0.20848412237560565,0.0
47.81738,0.1945943873262217,0.0
47.82146399999999,0.18209282807880717,0.0
47.82555199999999,0.17234558502914485,0.0
47.82963199999999,0.1625983419794825,0.0
47.83377599999999,0.1527403740298853,0.0
47.83785599999999,0.14404913208238782,0.0
47.84194,0.13598559788281425,0.0
47.846024,0.12337331373546497,0.0
47.85015999999999,0.11176897136306228,0.0
47.85423999999999,0.09926741211564781,0.0
47.85832799999999,0.08508214401814453,0.0
47.86240799999999,0.07291275947053465,0.0
47.866484,0.05973543314797805,0.0
47.87056799999999,0.04857399037531486,0.0
47.87469999999999,0.03629388092777012,0.0
47.878784,0.02793481368007727,0.0
47.88286799999999,0.02036223840746138,0.0
47.886952,0.013797604909792179,0.0
47.891036,0.008130188287134806,0.0
47.895168,0.004589380114305692,0.0
47.899312,0.003064455491369966,0.0
47.903448,0.009896209491040317,0.0
47.90754,0.01645526579365708,0.0
47.91163599999999,0.025053040997232937,0.0
47.91573199999999,0.03759469375172641,0.0
47.919868,0.05807534950523894,0.0
47.92399999999999,0.08603750241253252,0.0
47.928084,0.12408810211973914,0.0
47.932172,0.17620766782946173,0.0087293612505558
47.93625999999999,0.2411782256424167,0.017650948256201192
47.94039199999999,0.32518098645928484,0.02642844193285847
47.94452799999999,0.43551582785562837,0.034826315947522266
47.94865999999999,0.5711748080565006,0.043049159512215766
47.95280799999999,0.7322686519618364,0.05113534718022151
47.95689599999999,0.9180108675965589,0.05913494825841292
47.960984,1.1296308465354845,0.06700673874607657
47.96507199999999,1.3636504461785006,0.0748503253506944
47.96921999999999,1.6216426504757613,0.08265321876196857
47.973356,1.9051804433774207,0.0904067747764684
47.977436,2.2161689835334375,0.09807972144316433
47.981528,2.5540432287686037,0.1056756922762109
47.98561599999999,2.9073746158082554,0.11327780213434836
47.98970799999999,3.2847664970510206,0.12082660608953286
47.993848,3.684634470871213,0.12829495204758026
47.99798,4.103389669768786,0.1357128793903445
48.002112,4.535194475218395,0.14310375954747526
48.00619999999999,4.976105009669124,0.1504804547471173
48.01028799999999,5.423528929720339,0.15783563208749807
48.01437999999999,5.870941432096021,0.1564316491313907
48.018508,6.319549073019922,0.15477540886411756
48.02263599999999,6.758218822265494,0.15320529385091575
48.026776,7.173248141556628,0.1519899319320232
48.03087599999999,7.564969205593126,0.1509233589192783
48.034972,7.934168506350066,0.1499593188288101
48.039064,8.277600768702737,0.14909970326638605
48.043212,8.596506801901489,0.1483711815765024
48.047344,8.89985877469644,0.14762131074626975
48.051492,9.185629385862164,0.14685264714201066
48.055584,9.445400091148219,0.1461221226655324
48.05967999999999,9.676479239929566,0.14546396216163052
48.06377599999999,9.880329091256424,0.1448667884425883
48.06791999999999,10.06064923752878,0.1442551505163503
48.072076,10.220364196847068,0.1436474088915279
48.076172,10.355675069586907,0.14311542379404238
48.08026799999999,10.46826556459838,0.14263385731184008
48.084364,10.562732491156485,0.14215025158463784
48.08846,10.640205933611636,0.14167148191990822
48.092604,10.703045367889063,0.14118815001472332
48.09669199999999,10.755072528964215,0.14068942662647665
48.10078399999999,10.792709967012579,0.14023490379661047
48.10487199999999,10.8216959933351,0.13981988746915053
48.10896399999999,10.84933048550733,0.13940413436379348
48.113052,10.8770757025795,0.13898662479944174
48.117144,10.903137210801582,0.1385824805117854
48.12128799999999,10.93625431144829,0.1380961673043322
48.12543199999999,10.973281036619316,0.13754139553475894
48.12956799999999,11.001999942439834,0.13703623734755488
48.13369999999999,11.023873287960063,0.13657945093147342
48.13783599999999,11.0492247760804,0.13610057526953329
48.14192399999999,11.077157189925838,0.13560568886430133
48.146012,11.109464963246404,0.13508322766450645
48.15009599999999,11.147045312917104,0.13452613548489936
48.15423199999999,11.178123694662855,0.13402882830607857
48.15835999999999,11.20852630933346,0.13352953266623055
48.16243999999999,11.242174199128776,0.13298957414792414
48.166524,11.274027655174068,0.13246573865386008
48.17060799999999,11.306102561019232,0.1319339906488407
48.17469199999999,11.338288191764331,0.1314006149443442
48.178776,11.361734521234713,0.1309540715019807
48.182864,11.385070125805159,0.13051225249011186
48.18694799999999,11.40650057172565,0.13008839482739204
48.19103199999999,11.424231425246154,0.12969594818609637
48.195116,11.439492077941495,0.1293159281341041
48.19919999999999,11.455084905336639,0.12892419839178154
48.20328799999999,11.465405156381648,0.12857068278434358
48.20737199999999,11.467883323026951,0.12829660922991845
48.21149999999999,11.472266648322217,0.12800500783151042
48.21563599999999,11.478112232667698,0.12771397428289585
48.21976799999999,11.47947173263812,0.12745551345275793
48.223856,11.48251494145863,0.12718981534205312
48.22798399999999,11.478048240579241,0.12698789536591348
48.23212799999999,11.467976788649914,0.12683256142776173
48.236268,11.460486262445686,0.12666247413493625
48.240404,11.453782228216538,0.12649032597975093
48.244536,11.443157151787537,0.12635626468024774
48.248672,11.436453117558388,0.126184564747002
48.252804,11.43132206727939,0.12600942237808768
48.25694399999999,11.425748117400655,0.1258516903335457
48.261084,11.43272378609655,0.12558123295553722
48.265216,11.443964089367636,0.12529044425268882
48.26935599999999,11.460587693888794,0.12496495003644106
48.27348799999999,11.485286250285057,0.12458789420923522
48.277616,11.511004166131801,0.12422916628158481
48.28175599999999,11.534939065904053,0.12391115013431019
48.28590399999999,11.559893325126787,0.1236123891072409
48.290048,11.588436451849564,0.1232897899987986
48.294192,11.618441837622564,0.12296969755471776
48.29834399999999,11.650573831845389,0.12262773501363364
48.302488,11.68708118554334,0.12226247346505183
48.30663199999999,11.720675438816386,0.12192467072757467
48.31077599999999,11.76436052751443,0.12151819728109962
48.314864,11.812531700587535,0.12108481741963523
48.318996,11.86350524918561,0.12063275803290312
48.323128,11.918964882158745,0.1201566979776173
48.32726799999999,11.976894715957044,0.11967336083596922
48.33139999999999,12.030460607955753,0.11924451382147258
48.33553599999999,12.085820933704484,0.11880908384763188
48.339676,12.141291984353153,0.11837140262112006
48.343808,12.191501876327214,0.11799518495082055
48.347956,12.238012175901297,0.11764656708887224
48.352092,12.282728041725356,0.11731213326461991
48.35621999999999,12.319933997849514,0.11703296888446935
48.36036,12.357915028273215,0.116727164626983
48.36449999999999,12.39745762497154,0.11639314987201255
48.36858799999999,12.435870137319451,0.11604696889850485
48.37268399999999,12.477306474992197,0.11567673348807417
48.37678,12.518067045589804,0.11530559068688748
48.38091999999999,12.555017298887494,0.11496388611189905
48.385048,12.59341839355987,0.114601932503915
48.38913199999999,12.632151662932054,0.11422909210709373
48.39322399999999,12.66202348845405,0.11390309469905355
48.39731599999999,12.69133027180084,0.11357287612405939
48.401404,12.71928552099735,0.11323905293540956
48.405548,12.743086860518599,0.11291945370657365
48.40964399999999,12.765868840589372,0.11258382224050459
48.41373999999999,12.78819650338487,0.11223749164978396
48.417824,12.805583764530036,0.11190479007675298
48.42191199999999,12.824311142149957,0.11155403926604245
48.42600399999999,12.8370901763446,0.11122293005036729
48.43009199999999,12.852327993688872,0.110861373068085
48.43418399999999,12.86487416040811,0.11051395231561914
48.43831999999999,12.878871168502037,0.11014274233796419
48.442444,12.892868176595963,0.10977287920066713
48.44653199999999,12.908881068239781,0.1093887736544085
48.45061999999999,12.923553843408849,0.10902409064729204
48.454708,12.933740534202856,0.10868245765811782
48.45879599999999,12.942022066346905,0.10835341660608849
48.462932,12.950414323390891,0.10802040977944823
48.46705999999999,12.952758929785194,0.10773607950984312
48.471148,12.956111477954446,0.1074443190153637
48.475236,12.964958052273701,0.10712400523324321
48.479372,12.97010503419298,0.1068245268857606
48.483516,12.971330973912401,0.10655262519551716
48.48764799999999,12.97244618873189,0.10628464012751832
48.49179199999999,12.972110562176692,0.1060391747143253
48.49593599999999,12.97109916854635,0.1057901085425847
48.50008,12.9717714837661,0.10553642237968927
48.50421999999999,12.967625539910987,0.1053140860255161
48.50831199999999,12.97009228888076,0.10505201099314516
48.5124,12.967630053875732,0.10482486759362733
48.51649599999999,12.966286485545588,0.10458632353361569
48.52053599999999,12.967856017640347,0.10432891110642456
48.524632,12.968639057760031,0.10407225389277511
48.52878,12.963817346829773,0.10384654553880412
48.53291599999999,12.959659985299126,0.10359872965322892
48.53706799999999,12.952921698043376,0.10335822315682472
48.541096,12.944831876637341,0.10311028041483698
48.545188,12.939090113481006,0.10283633720926497
48.54927599999999,12.933115482849267,0.1025434708391307
48.55336799999999,12.926465085142388,0.10224740630053983
48.55745999999999,12.913201994610622,0.10198879882123095
48.56155199999999,12.900836120953866,0.10172584682018652
48.565648,12.895304389921868,0.10141834281299772
48.569688,12.889096891814727,0.1011072068868666
48.57372,12.883553743107194,0.10077392304238161
48.577812,12.881710186799646,0.10042238294268474
48.581848,12.882669006017068,0.10005727456280981
48.58589199999999,12.88732741763447,0.09967372117695929
48.59002799999999,12.89299377102682,0.09928497252458697
48.59411999999999,12.901462499944142,0.0988813902441405
48.598204,12.909820503961525,0.09848192546472631
48.6023,12.915941174629147,0.09810498888471768
48.60639599999999,12.920721728822016,0.09774599161185882
48.61053199999999,12.928193933639925,0.0973761068982795
48.61461999999999,12.938025614383061,0.09700744620178527
48.61871199999999,12.955035030126293,0.09661196024094361
48.6228,12.976530530244583,0.09620011479345231
48.626892,12.995567247213243,0.09581732410371596
48.630984,13.020441582707244,0.09542650199222612
48.635076,13.04476229370157,0.09505432600942934
48.639168,13.075806422420717,0.09464529843640504
48.64326399999999,13.106629101339996,0.09424336409830086
48.64735999999999,13.135214446909513,0.09386551711171659
48.65150399999999,13.163356892879289,0.09350198483518826
48.65559599999999,13.192629423199481,0.09315423666559676
48.659684,13.219886069969778,0.09282151695337218
48.663776,13.241992282965409,0.09252639645002905
48.667868,13.264884987936115,0.0922329980488234
48.671956,13.282737984032089,0.09197340858661417
48.676048,13.300701705027999,0.09171096060890746
48.68013599999999,13.319784092698788,0.0914394625540363
48.68422799999999,13.336064104844606,0.09118018401501929
48.68831999999999,13.354360000540321,0.09090834140370782
48.69246399999999,13.372212996636296,0.09065064588755416
48.696552,13.39006599273227,0.0903943481304808
48.70069599999999,13.402092787978434,0.09017025707887516
48.704832,13.409977091224876,0.08997536355424715
48.70898,13.420774494896223,0.08976528587609989
48.713072,13.425967147517632,0.08957983052762955
48.71716799999999,13.43183556721418,0.08939854129972091
48.72126399999999,13.43345077001107,0.08924955084029812
48.725404,13.443473099382873,0.08906600908563059
48.729548,13.448344994980005,0.08891675960721428
48.73364,13.455908541202174,0.0887593587028954
48.73772799999999,13.46706095492439,0.08859178327292191
48.741812,13.479675627696826,0.08842929870633706
48.74596799999999,13.495314125794103,0.08824852449471929
48.75009999999999,13.507142306591462,0.08808557948312974
48.75423599999999,13.52255935488887,0.08791195267701454
48.75832,13.539438662236497,0.0877436560065941
48.7624,13.556550837059524,0.08759350109090597
48.76653599999999,13.581959413557527,0.08741364056955983
48.77066799999999,13.60703581535573,0.08724446547627504
48.77480399999999,13.634349550503691,0.08705742515298508
48.77893599999999,13.659536677201825,0.08688624084174804
48.78302799999999,13.688423396299942,0.08670164835389753
48.78705599999999,13.721906924673052,0.08650131931034707
48.79114,13.75214517792145,0.08632565966683146
48.79527599999999,13.786083023569834,0.08613674345525199
48.799408,13.820463768817955,0.08593541409844586
48.80354399999999,13.858876281165863,0.08571162232550288
48.807576,13.885747116714086,0.08554197330767489
48.811708,13.91866560291199,0.08533785630199368
48.81584799999999,13.952592030884842,0.0851294294818901
48.81998399999999,13.979229998957662,0.08494458640415428
48.824112,14.000263215980542,0.08478069014683799
48.82825199999999,14.021185708103486,0.0846206388714527
48.832336,14.047934401076242,0.08443372771281923
48.83641999999999,14.072667210499105,0.0842586018035145
48.840548,14.095273411472139,0.08409835774394184
48.84468799999999,14.118998279120055,0.08393012605980166
48.848772,14.137007670818093,0.08378684366630326
48.85291199999999,14.154119845641121,0.0836461322411626
48.857,14.170899845764346,0.0835157016654094
48.861092,14.188577062762581,0.08338316182877778
48.865184,14.20524633798587,0.08325658565987978
48.869272,14.221129121234082,0.08312988794101804
48.87335999999999,14.240035729807135,0.08298705020790398
48.87750799999999,14.258942338380185,0.08284490181629293
48.881648,14.277406047353498,0.08271577572112138
48.885736,14.294751089651928,0.08259596573928177
48.88982399999999,14.317246565725032,0.08244606556617633
48.893908,14.33481305782333,0.08232007223936325
48.898,14.348458507721777,0.08221256651599344
48.90213999999999,14.365803550020209,0.08209311801957443
48.906228,14.390769226918474,0.08194377172757641
48.91032,14.417640062466699,0.08178782913751041
48.914408,14.4403684060152,0.08165688829095226
48.91849599999999,14.464215416238584,0.0815178375259563
48.92258399999999,14.489402542936718,0.08136450068014145
48.92667999999999,14.507976976809964,0.08123530958767473
48.93081199999999,14.528345844433234,0.08110219314245062
48.934956,14.550841320506333,0.08095608963204412
48.939088,14.569969378879254,0.08081243047151769
48.94322399999999,14.591113320802071,0.08065913020074832
48.94735999999999,14.61258943742469,0.08049714510652821
48.951504,14.633057612272362,0.08034094374577123
48.95565199999999,14.652850020044895,0.08018135872876082
48.959796,14.670958718967336,0.08002326102345793
48.96394799999999,14.690518259264463,0.07984858428779323
48.968088,14.708394090711506,0.07967536260916264
48.97224,14.727167139033558,0.07950097138102262
48.976384,14.746161637155478,0.07932009743113844
48.98052,14.767504193527095,0.07912044334743452
48.98465599999999,14.790076141473529,0.07891065957739493
48.98873999999999,14.809391396619722,0.07870064530473167
48.99287199999999,14.822204683840962,0.07850998787909924
48.997008,14.8373660293119,0.07830102675812829
49.00114799999999,14.851962332607629,0.07808541262825132
49.00523199999999,14.867677302578242,0.077862789157982
49.009368,14.8867482725735,0.07761607624684615
49.01350799999999,14.905475650193418,0.07735717617707359
49.017652,14.922408594063315,0.07710270366764184
49.02179199999999,14.945057013883087,0.07682941611613911
49.02592,14.962432857352724,0.07656426108844631
49.03000399999999,14.9779035421724,0.07630596830068559
49.034144,14.99280918481687,0.07604106265496939
49.03828399999999,15.006928335486265,0.0757755449453168
49.04241999999999,15.021490385755396,0.07549870516241489
49.046544,15.033471510299428,0.07522469157743128
49.05067199999999,15.044666142868383,0.07494953662185941
49.05476399999999,15.050366749287331,0.07468723138127101
49.05889199999999,15.062225731255893,0.0743952354639332
49.063024,15.073187496349446,0.07410548879853406
49.06715999999999,15.081457610817962,0.07382113903598862
49.07125599999999,15.089506275486611,0.07354299093108922
49.075356,15.101697432154978,0.07324350619249412
