Time,Force,Position
3.5370159999999995,2.667199642945381,0.1818089901869302
3.53942,2.8027473938947707,0.1788360158993955
3.541803999999999,2.920280029842147,0.1770691745035655
3.544184,3.0277587319449344,0.1756371735336629
3.5465800000000005,3.12350626468081,0.1747215248854131
3.5489680000000003,3.2222361814089933,0.1732052653005148
3.551347999999999,3.327208509517643,0.1707745910990359
3.553744,3.4193806289306123,0.1686394010267256
3.556132,3.4806864111019054,0.167797961118713
3.608704,3.558556702604759,0.1671622514772886
3.611108,3.567169510068241,0.166958886366599
3.613491999999999,3.579459757942593,0.166718588655117
3.615872,3.6002702654818104,0.1662028410974702
3.618276,3.62410658712584,0.1656581276682986
3.620659999999999,3.649945009516287,0.1650516085665939
3.62304,3.67792530228001,0.1643864694661301
3.625432,3.711492588402404,0.1635621115169777
3.6278159999999993,3.746550118592016,0.1626563409275289
3.630196,3.7800248569157926,0.1617505411291124
3.6326,3.812987738560371,0.1608366183932507
3.6349839999999993,3.85740414617601,0.1595780428408124
3.637364,3.905684985657622,0.1582011106803624
3.639768,3.9530818814077,0.1567777567800447
3.642152,3.990235956000216,0.1556703891342246
3.644532,4.024316994659676,0.1546701386186414
3.646927999999999,4.059980825184973,0.1536520357430011
3.6493160000000007,4.091221145336855,0.1528212737569729
3.6517079999999993,4.126233349556093,0.1518428394244351
3.654104,4.156729495603302,0.1509791649339079
3.656488,4.184152605717453,0.1502266404123289
3.658872000000001,4.206081270271553,0.1496898819166522
3.661272,4.231642049266148,0.1490155131526459
3.66366,4.251383517476596,0.1484439339755143
3.6660400000000006,4.266516379716396,0.1479218304896743
3.668436,4.280857846023278,0.1474184791265323
3.670824,4.291427428262802,0.1470810235767307
3.6732,4.302276549756048,0.1467274217680864
3.675596000000001,4.311403109756596,0.1464057959649422
3.67798,4.3285380727428135,0.1458686195009983
3.6803760000000008,4.344322561288671,0.1453902771998252
3.682772,4.356614705020893,0.1450519181470123
3.685155999999999,4.369046618379975,0.1447086726035367
3.687552,4.380407596552417,0.1443964743961462
3.689956000000001,4.394701841031056,0.1440065579742774
3.69234,4.413931452562307,0.1434948980602328
3.69472,4.432229898533778,0.1430061009470285
3.697124000000001,4.451227192639551,0.1424532593810197
3.7616200000000006,4.44699256957911,0.1422731713311724
3.764008000000001,4.446388165101296,0.142204575028802
3.766387999999999,4.444992364690562,0.1421429234279909
3.768784,4.449695414317698,0.1419852800504588
3.771172,4.456772651743586,0.1418059189819007
3.773567999999999,4.476142032901696,0.141307091503539
3.77596,4.494347931074552,0.140798183405399
3.7783440000000006,4.511854981113105,0.1403415840465002
3.780728,4.530665283763775,0.1398879325571637
3.783128,4.556273284586615,0.1392844182287303
3.785516,4.582440363916893,0.1386414358025432
3.787892,4.607164421008196,0.1380012963987548
3.790288,4.627325198099225,0.1375115466723013
3.792672,4.644505487055816,0.1371480582099222
3.795068000000001,4.66596951675896,0.1366669126002081
3.797468,4.6834765667975145,0.1362231664450113
3.799856,4.699121285716511,0.13582686215422
3.8022360000000006,4.717140192434264,0.1354142003507864
3.804639999999999,4.73646235176413,0.135013105994152
3.807024,4.760487560721132,0.1344630027570793
3.8094040000000007,4.786514870424551,0.1338775879074884
3.811807999999999,4.809189604941196,0.1333923978678874
3.814192,4.832376196137036,0.1329260754180109
3.8165720000000007,4.857053031400096,0.1324094218113826
3.8189759999999993,4.882288945170597,0.1318528747636336
3.82136,4.899656225582292,0.1314682422747967
3.823744,4.913670930807209,0.1311753870254658
3.826148,4.933971477525097,0.1307388438199832
3.828531999999999,4.957624599429761,0.1302149181092013
3.830912,4.978623994281952,0.1297394195570798
3.833316,4.995619187641308,0.129344714088723
3.835704,5.018061604732474,0.1288782647457225
3.838084,5.042785661823777,0.1283520783072463
3.840488000000001,5.06886019335544,0.1277712956870848
3.842876,5.092001458580906,0.1272515332835379
3.845255999999999,5.120729717165043,0.1266534299891144
3.84766,5.147036566122183,0.1261300022126815
3.850044000000001,5.169898292093929,0.1256437536389796
3.852428,5.1890353558265625,0.1252112213527578
3.8548240000000007,5.205751009932199,0.1248514734748595
3.857208,5.218602232171861,0.1245617787228349
3.859588000000001,5.231313684784664,0.1242800994135473
3.8619920000000008,5.244304676651186,0.1239800106318976
3.89782,5.19943121761607,0.1238865295710909
3.900204,5.20134077056387,0.1238061489800236
3.902583999999999,5.204461028325168,0.1236938186392157
3.90498,5.21116617869872,0.1235404594591216
3.907364,5.222015300191966,0.1233087066287838
3.90976,5.230722551311935,0.1231214264833943
3.912156,5.245575874298014,0.1228154920167531
3.914540000000001,5.261080823590151,0.122516753405023
3.9169199999999993,5.276957859934625,0.1222402002916636
3.919324,5.293206983331437,0.1219924867591059
3.9217080000000006,5.308385171541611,0.1217661820853593
3.924092,5.320210784565009,0.1216177929346595
3.926496,5.331896627961546,0.1214772040160629
3.92888,5.347167363970336,0.1212957461457759
3.931264000000001,5.3704465029647945,0.1209697100523078
3.93366,5.396658908265447,0.1205954172269595
3.9360440000000008,5.412441500953435,0.1204321828077041
3.938424,5.427944554387703,0.1202892864347352
3.94082,5.44479808226233,0.1201047671441738
3.943208,5.465004185323732,0.1198429366782761
3.9456000000000007,5.484279122825357,0.1195973699367818
3.948003999999999,5.493823095848618,0.1195079864526122
3.950388,5.502296133685241,0.1194408596030991
3.9527680000000007,5.509977775588944,0.1193782483316018
3.9551719999999992,5.513794985626674,0.119373691318274
3.957556,5.520033605291402,0.1193086024857121
3.95994,5.528414095329406,0.1192033366351817
3.962336000000001,5.535211793501575,0.1191032499879823
3.96472,5.54550183648738,0.1189227984732017
3.9671,5.552346756487792,0.11877088641396
3.9695040000000006,5.559331446115064,0.1186088858156675
3.971892,5.569668710929111,0.1183755890093646
3.974271999999999,5.5805650542506,0.1181044274876441
3.976668,5.586945339400056,0.117883900087221
3.979056,5.591323523803098,0.1176979949871425
3.981436,5.591977045967025,0.1175582649695207
3.9838400000000007,5.59519174738481,0.117348450517594
3.986224,5.594961325817203,0.1171666570664518
3.9886079999999993,5.594451364995875,0.1170032466091326
3.991012,5.593010238614768,0.1168518740450046
3.9933960000000006,5.592640047420299,0.1166806949236626
3.9957759999999993,5.595622431412607,0.1164377257553835
3.998172,5.598884354658634,0.1161768128102354
4.000556,5.595628118986214,0.1159958010017928
4.002940000000001,5.59423421443335,0.1157916569036328
4.005331999999999,5.591769374693848,0.1156084736436315
4.007716,5.58623149902129,0.1154778153600196
4.010108000000001,5.58269572409515,0.115315619157315
4.012511999999999,5.5794394884227305,0.1151363357318149
4.014896,5.578045583869868,0.1149346208735841
4.01728,5.579073088944002,0.1146755967340772
4.019679999999999,5.579309198085217,0.1144201968021604
4.022064,5.58033670315935,0.1141627054729876
4.024443999999999,5.584157704912818,0.1138728211930169
4.026847999999999,5.588258245920008,0.1135669743507804
4.029235999999999,5.593569491740696,0.1132313568625065
4.031616,5.598740967934523,0.112903784098914
4.034015999999999,5.610849911927379,0.1124773500861025
4.036403999999999,5.626311431107011,0.1119886262964132
4.038784,5.644706216592839,0.1114655212501091
4.041188,5.658025865399195,0.1110189484922428
4.043571999999999,5.67106597495183,0.1105909790603978
4.045952,5.684897480437384,0.1101634103396319
4.048348000000001,5.705247144841385,0.1096625156668785
4.050732,5.724805413312468,0.1091655130456212
4.0531120000000005,5.744084142529831,0.1086866682812009
4.055516000000001,5.761360771000776,0.1082348747543341
4.057904000000001,5.776635298725306,0.1078129500044657
4.060283999999999,5.78762608570328,0.107466799550813
4.062683999999999,5.799548038241034,0.1071120178451011
4.065072000000001,5.808117415592011,0.1068215493472569
4.067451999999999,5.812403052196435,0.106604281308128
4.069848,5.816688688800858,0.106387249306314
4.072236,5.820182929472364,0.1061721377746729
4.074616000000001,5.82218692607665,0.1060016450407489
4.077019999999999,5.827124188987131,0.1057945675756341
4.079404,5.838067754136862,0.1055081170990478
4.081784000000001,5.841934081860705,0.1053218981835299
4.0937280000000005,5.798501749206695,0.1052686043528612
4.096124,5.789564076519119,0.1052435231668045
4.098520000000001,5.779695238271763,0.1052271132325149
4.100908,5.771037104837907,0.1051845643902401
4.103287999999999,5.766243403270025,0.105097597606528
4.105684,5.765314133568116,0.1049667725758936
4.108072,5.76810952610532,0.1048004104624385
4.110452,5.772115623456024,0.1046100224723266
4.112848,5.781057087859339,0.1043602767350775
4.115236,5.795073688942127,0.1040418658807344
4.117632,5.8100214555846925,0.1037160401710259
4.120028,5.825760618160175,0.1033914078958828
4.122415999999999,5.836704183309907,0.1031142885014857
4.1248000000000005,5.845226338832642,0.1028891540255089
4.127196,5.847602422489266,0.1027502839050278
4.129580000000001,5.852772002825224,0.1025849243493958
4.131964,5.864739281333351,0.1023413630583496
4.134368,5.88071076133431,0.1020465492071071
4.136752,5.906692745067357,0.1016297763820323
4.139132,5.935188686226017,0.1012079695578397
4.141536,5.96768882887751,0.1007406183253944
4.143924,5.992040798916476,0.1003808975770109
4.146304000000001,6.017835791194417,0.1000293115573303
4.1487,6.042559848285721,0.0996962023574551
4.151088,6.070496710936939,0.0993232284305372
4.153468,6.096431472841741,0.0989788808667274
4.155863999999999,6.117850176574512,0.0986653589837818
4.158251999999999,6.138197945120644,0.0983713220591548
4.160636,6.156683382547219,0.0980964190593833
4.163031999999999,6.175029050346934,0.0978326215467273
4.1654160000000005,6.19365425740037,0.0975558738625606
4.1678,6.217354601133278,0.0972267676697303
4.170196000000001,6.25134498785199,0.0967749885530273
4.17258,6.285614913824423,0.0963080886103273
4.174975999999999,6.321747170916413,0.0958269478865325
4.177372,6.36002129838168,0.0953199081547121
4.17976,6.39615355547367,0.0948442641355336
4.18214,6.432425582192519,0.0943670937378465
4.184544000000001,6.459338731485341,0.0940090596838005
4.1869320000000005,6.480664887419495,0.0936912738724092
4.189311999999999,6.498778237793733,0.0934181651123898
4.191712000000001,6.52517953040736,0.0930490875439936
4.194100000000001,6.554002232647982,0.0926418924804774
4.196479999999999,6.583476561194664,0.0922435641649832
4.198884,6.6028006163824005,0.091953975655539
4.201272,6.619331174890804,0.091683617099144
4.203652,6.642659431571373,0.0913557724951847
4.206047999999999,6.664637213811584,0.0910568845793613
4.208436000000001,6.686335456798076,0.0907742076140528
4.210812000000001,6.707242303851649,0.0904932930366137
4.213215999999999,6.726938446091723,0.0902344287304951
4.215603999999999,6.736624084599713,0.0900732291389
4.217984,6.743096917547786,0.0899535497757488
4.2203800000000005,6.753573951988694,0.089798355826053
4.222768,6.763399360123545,0.0896356595055456
4.225147999999999,6.770431271579061,0.0894907259206283
4.2275480000000005,6.78188669340799,0.0892908173614078
4.229936,6.7937614241175,0.0890731552270785
4.232315999999999,6.809128499640647,0.0888051329324514
4.234712,6.829570711843265,0.0884898056403011
4.2371,6.849361297739826,0.0881662848730502
4.23948,6.867289552516829,0.0878588580639831
4.241884000000001,6.880282440241221,0.0875922206844885
4.2442720000000005,6.892111844980358,0.0873031193041485
4.246651999999999,6.9100873215856025,0.0869539723772686
4.249048,6.9308562948701855,0.0865890412567196
4.251436,6.947621066661935,0.0862616026138355
4.253819999999999,6.961871881028068,0.0859345689916555
4.256216,6.972537802781949,0.0856206285583569
4.258604,6.980410227856494,0.0853222754097219
4.2609840000000005,6.986420321811483,0.0850335607782648
4.263384,6.997505552445944,0.0846975219396426
4.265772,7.004726351214432,0.0843893511662419
4.268152000000001,7.007151552557168,0.0841151995609696
4.270543999999999,7.010787458713402,0.0838236061694039
4.272931999999999,7.014143825615917,0.0835447178741631
4.275328,7.012425055838959,0.0833118194794693
4.277732,7.005072070875087,0.083149507911997
4.280116,6.994646049978161,0.0830146733779948
4.282496,6.984359798708095,0.0828731926836343
4.284896,6.975796108930727,0.0827286923142886
4.287279999999999,6.960806808033525,0.0826515160083798
4.289664,6.946608903069243,0.0825760922453357
4.292059999999999,6.936647517023271,0.0824965902314474
4.294444,6.928828001350577,0.0823946901430188
4.296823999999999,6.919146154558326,0.0823017154230956
4.299224000000001,6.909604077392935,0.082202025599795
4.301612,6.905928532839933,0.0820623907875703
4.303991999999999,6.908119520899323,0.0818832957649862
4.306388,6.914966336757604,0.0816828387798749
4.308776,6.926468980414777,0.0814611867054486
4.311156,6.93811139369881,0.0812345816968625
4.313560000000001,6.953618238848814,0.0809850168143944
4.315948000000001,6.96898531437196,0.0807416012854871
4.318327999999999,6.980860045081471,0.0805431343606217
4.320727999999999,6.99394548060448,0.0803275577560102
4.323112,7.010103952060544,0.0800876529099295
4.325495999999999,7.029475229076524,0.0798143269765502
4.327895999999999,7.052850707585337,0.0795122967053152
4.330284000000001,7.072873610907374,0.0792499763280177
4.332663999999999,7.094107219042912,0.0789731423810077
4.33506,7.119484798298143,0.0786583394725054
4.337448,7.14700424792665,0.078323056225055
4.339828000000001,7.169216243450208,0.0780018016332576
4.342231999999999,7.189286368600489,0.0777048569418929
4.344619999999999,7.210427428937409,0.0773978561403282
4.347,7.232639424460967,0.0770824142859976
4.349404,7.248845117745273,0.0768097526327783
4.351787999999999,7.261977775096525,0.0765630449935748
4.354172,7.269104130208526,0.076357844243763
4.356567999999999,7.274787463081553,0.07614307577388
4.358952,7.277397760021523,0.075951723724237
4.361336,7.278145725841936,0.0757683118977186
4.363728,7.280756022781906,0.0755778326399307
4.366116,7.2876500604684304,0.0753485405179352
4.368511999999999,7.298548299647789,0.0750950027598131
4.370908,7.305442337334313,0.0748680311703494
4.373291999999999,7.3175512813271695,0.0746022600977085
4.375672,7.328589290133387,0.0743477143400914
4.378072,7.339906838193325,0.0740806323781659
4.380459999999999,7.3493620551337075,0.0738216180721575
4.38284,7.360959142447367,0.0735455285342618
4.385235999999999,7.373906704201385,0.0732507085091852
4.387624000000001,7.390439158567656,0.072950375196919
4.390015999999999,7.40496951218751,0.0726625999245021
4.39242,7.421781505807501,0.072353217396808
4.394807999999999,7.434449528307798,0.0720730335836763
4.397188,7.450330356368013,0.0717654905638687
4.39958,7.464488622935529,0.0714575672071169
4.401968,7.482139234316682,0.0711102566423774
4.404348000000001,7.498439371257475,0.0707851663291275
4.406751999999999,7.517672774504463,0.0704455939234452
4.409136,7.535043846631896,0.0701116279400505
4.411516000000001,7.551623522826411,0.0697756630652843
4.413919999999999,7.567411803088007,0.0694393701965886
4.416307999999999,7.581058212976325,0.069124000303709
4.418688,7.5977776587977,0.0687892692216837
4.4210840000000005,7.606348932006546,0.0685061253234573
4.423468,7.612918104468976,0.0682342435235161
4.425848,7.619487276931406,0.0679620497217897
4.428243999999999,7.624845744580337,0.0677040010184835
4.430631999999999,7.629273046669489,0.067449937388748
4.433012,7.630068234318146,0.0672381971919185
4.435408000000001,7.62685922047397,0.0670476029975352
4.437792,7.62444160256271,0.066860141274644
4.440187999999999,7.6194628053975935,0.066706464734487
4.442584,7.61955914491195,0.0665237948268877
4.444967999999999,7.623380146665417,0.0663331564976795
4.447348,7.633719307337333,0.0661279301677273
4.449756000000001,7.645501490248226,0.0659363244343272
4.45214,7.657423442785979,0.0657394645299824
4.4545200000000005,7.667343294577315,0.0655528522423205
4.456923999999999,7.677914772674711,0.0653748085327336
4.459308,7.690348581891662,0.0651934905264678
4.4616880000000005,7.699150276668116,0.0650520701616739
4.464088,7.705018705138375,0.0649228816954358
4.466476,7.7084657239816385,0.0648202635558892
4.468856000000001,7.715916944317736,0.0646981124351141
4.471259999999999,7.72429933021361,0.0645739152698217
4.473648000000001,7.7373375439083745,0.0644406124251876
4.476028,7.752238088722698,0.0643035896388883
4.478424,7.76671932465644,0.064184014097524
4.480812,7.784553135776957,0.0640369187121541
4.483196,7.801455781337697,0.0638906693887499
4.4856,7.81570469984596,0.0637441978379139
4.487983999999999,7.831024553540862,0.0635905355845948
4.490368,7.846064867982045,0.0634494083261278
4.492768,7.855098880183977,0.0633368862145187
4.495156,7.856543798280822,0.0632451238755804
4.497536,7.858128486004528,0.0631484166493697
4.499936,7.857291764101235,0.0630770276601071
4.502319999999999,7.8612506396236945,0.0629915840072682
4.504704,7.871355587012264,0.0628746566945577
4.507099999999999,7.878527268094641,0.0627686949250445
4.509487999999999,7.890122459550431,0.0626289331615933
4.511868,7.900786485446444,0.0624905125790158
4.514264000000001,7.914011690596313,0.0623219032115281
4.5166520000000006,7.924443399066846,0.0621585296080745
4.519031999999999,7.937016977910658,0.0619819290509045
4.521431999999999,7.944794959328719,0.0618197173712764
4.523816,7.952852480000499,0.0616475286275807
4.5261960000000006,7.958396043246664,0.0614692251281381
4.528599999999999,7.9588644698133555,0.0613146351979099
4.530988000000001,7.966410133805938,0.0611284591336883
4.533367999999999,7.97996210003777,0.0609178476985415
4.535764,7.994724771083102,0.060696488468779
4.538148,8.006973484702819,0.0604695990406924
4.540532000000001,8.021364068695812,0.0602289590483173
4.542928,8.038827688621861,0.0599731400610578
4.545316,8.05070431518924,0.0597255437786217
4.547712000000001,8.066352825823977,0.0594366725155761
4.550108,8.080558314219736,0.0591378041365791
4.552496,8.088897270003105,0.0588591877953712
4.554876,8.098446930599973,0.058568960538113
4.557271999999999,8.105063324890645,0.0582884079167931
4.559659999999999,8.114752755114374,0.0579939672690433
4.56204,8.123231480524604,0.0577120786854568
4.564439999999999,8.136505803360585,0.0574203947173678
4.566827999999999,8.148848960636789,0.0571316113594041
4.569208,8.161471657166713,0.0568323220473672
4.571604000000001,8.17209225295022,0.0565408376999038
4.573988,8.18671705022656,0.0562359135821929
4.576371999999999,8.207487919369012,0.0559053441395054
4.578768,8.226396457391907,0.0555804031425161
4.581156,8.243302894668384,0.0552649164531246
4.583551999999999,8.25527396489225,0.0549638411173732
4.585948,8.268967596608812,0.0546668642496158
4.588336,8.284523559444931,0.0543695967757808
4.590719999999999,8.299939752654188,0.0540780632893297
4.593116,8.322153644035616,0.0537721324663474
4.5955,8.341946125790047,0.0534886544476346
4.59788,8.355312996424644,0.0532390576592545
4.600284,8.369331493365301,0.0529988047255909
4.602672,8.380137184746042,0.0527749840443544
4.605052000000001,8.394015912059839,0.052540299871232
4.607448,8.407754869746775,0.0523117548880325
4.609836,8.419491726687294,0.0520890965104845
4.612216,8.425222281388562,0.0518847852753518
4.6146080000000005,8.429881900903192,0.0516864971935532
