Time,Force,Position
4.324076,3.9058927727160935,0.1615391839995866
4.326456,3.9233488092106654,0.1614203752600701
4.328852,3.949744414250684,0.1610118780731699
4.331235999999999,3.973486292238227,0.160662055201009
4.333632,4.004025868397939,0.1601185063062826
4.336024,4.03563637974429,0.1595492198644435
4.338412,4.071949940717775,0.1587843822867404
4.340792,4.09899906792172,0.1582090238825348
4.343188,4.1233019202745735,0.1576380578878104
4.345575999999999,4.142948944828535,0.1572015497316208
4.347956,4.169253897927805,0.1565806311894474
4.350356,4.193836289534379,0.1559984856489645
4.352739999999999,4.22791732819384,0.1550863260445472
4.355119999999999,4.265211172413216,0.1540667568666625
4.357519999999999,4.297941736632318,0.1532595502716999
4.359904,4.332115323090395,0.1524581460299521
4.362283999999999,4.372946838093782,0.1514906241578221
4.36468,4.408982755671415,0.1506392061720432
4.367063999999999,4.437569348770824,0.1499532252732145
4.369444,4.463781754071476,0.1492974145142538
4.371843999999999,4.487712519371993,0.1487376546740326
4.374227999999999,4.506707917619896,0.1483235851087189
4.376607999999999,4.5217463362032095,0.1479662092161557
4.379023999999999,4.543210365906353,0.1474127287389177
4.381411999999999,4.559599258930025,0.1470135235642842
4.383808,4.574497907886479,0.1466876376336051
4.386203999999999,4.586555838335354,0.1464891632063988
4.388588,4.5994051647171466,0.1462786849157147
4.390972,4.611602864792882,0.146063501014402
4.393367999999999,4.623940334495478,0.1458378249061479
4.395755999999999,4.636557343451793,0.1455943441386767
4.398135999999999,4.64959366128869,0.1453164157077103
4.40054,4.660116021699972,0.1450810258813189
4.402923999999999,4.664259992819666,0.1449683866820361
4.405303999999999,4.665890006513745,0.1448908527097257
4.410084,4.660816765692141,0.1448455572924588
4.412476,4.662494001214464,0.1447078222131718
4.414876,4.670968934908955,0.1444106574384879
4.417259999999999,4.683680387521757,0.1440548073451101
4.419635999999999,4.6970434664406175,0.143705018352265
4.422032,4.711477480546116,0.1433238584504542
4.424415999999999,4.720696588345282,0.1430808282640105
4.426796,4.723909393905198,0.1429897695803151
4.429207999999999,4.724188933158918,0.1429666180815851
4.431595999999999,4.727821047599415,0.1428419554529584
4.433971999999999,4.73364225424143,0.1425970202071209
4.436368,4.738672064950528,0.1423564651990274
4.438756,4.745564206779183,0.1420787592656601
4.441132,4.7511058741674805,0.141854371618445
4.443548,4.755716375995997,0.1416520078745438
4.445931999999999,4.760047338570796,0.1414729333454768
4.448312,4.760234330025898,0.141400557379478
4.450716,4.763726674839535,0.1412874215250724
4.453104,4.768801811519007,0.1411602277908979
4.455484,4.773457639317899,0.1410681935030092
4.457884,4.782536977490205,0.140847042184045
4.460272,4.786541178983038,0.1407522536305384
4.462652,4.7926872508491485,0.1406012594476966
4.465055999999999,4.797669839730004,0.140432846070017
4.46744,4.802559880812242,0.1402175314557734
4.46982,4.806798295588422,0.1399975904763564
4.472223999999999,4.817834408536771,0.1396332968611617
4.474611999999999,4.833526349284011,0.1391866579418236
4.476991999999999,4.858297628203557,0.1385404142914029
4.479384,4.878133540070491,0.138006546440361
4.481767999999999,4.8932664023102905,0.1376139138905155
4.484147999999999,4.913427179401321,0.1371646140886739
4.486552,4.934891209104466,0.1367300178611089
4.488935999999999,4.957565943621109,0.1362568065347729
4.491315999999999,4.977447181458417,0.1358355289513118
4.49372,4.998539124109223,0.1353804660829437
4.496108,5.023076189745424,0.1348782502359593
4.498488,5.0501744346354815,0.1342932741205686
4.500892,5.074386635047587,0.1337098107077148
4.503276,5.095945108407219,0.1331622039648571
4.505656,5.111729596953076,0.1327806569091222
4.508051999999999,5.128025942178131,0.1324105620987158
4.510439999999999,5.14204064740305,0.1321099975090815
4.51282,5.153913482254691,0.1318653168256458
4.515224,5.162573511546416,0.1317003630753403
4.534328,5.176214233861126,0.1315368954329485
4.536724,5.17165284971872,0.1314994763743212
4.539107999999999,5.170024731882511,0.131407269253918
4.541487999999999,5.167185909232801,0.1313499110770481
4.543904,5.163835229903895,0.1312770515559937
4.546287999999999,5.157691053895653,0.1312473862066976
4.548667999999999,5.153921065686166,0.1312041703258715
4.551072,5.155226214156151,0.1310593244270078
4.553455999999999,5.16202580818619,0.1307824878942972
4.555835999999999,5.170175876656587,0.1304603058400642
4.558232,5.17474105251473,0.1301845475399656
4.56062,5.176512731693539,0.1299511015198064
4.562999999999999,5.180426281245625,0.129667033708054
4.565403999999999,5.183036578185595,0.1293734371137951
4.567788,5.1836447743791485,0.129120231607203
4.570167999999999,5.181459473893367,0.1289095998978594
4.572564,5.183930001206476,0.1286238831931015
4.574947999999999,5.19762173706517,0.1281121468245372
4.577344,5.205027631430891,0.1277378124377049
4.579735999999999,5.209872346542754,0.1274413749722843
4.58212,5.218022415013151,0.1271177800941996
4.5845,5.225892944229829,0.1268172120077547
4.586891999999999,5.226826005647478,0.1266451855768692
4.589279999999999,5.226408592624765,0.1265173654297427
4.591659999999999,5.224640705161694,0.1264340377092918
4.594075999999999,5.2265974799377375,0.1262938395027545
4.596459999999999,5.225760758034445,0.1261962586731482
4.603631999999999,5.208164951913013,0.1261936438635941
4.606012,5.207979856315779,0.1261028694690608
4.608416,5.211519422957658,0.1259561897042215
4.610799999999999,5.215850385532455,0.1258062647070218
4.632296,5.190574833365188,0.1257201331674923
4.634675999999999,5.192484386312988,0.1256369353065755
4.637079999999999,5.199748615193981,0.125436927488722
4.639467999999999,5.211017045567807,0.1251641332906688
4.641843999999999,5.218932900754858,0.1249728849136778
4.644247999999999,5.2315045837408,0.1247152939536678
4.646635999999999,5.245659058592578,0.1244510438992784
4.649016,5.260744699004133,0.1241750045467939
4.651415999999999,5.273968008296133,0.1239254862284403
4.6538,5.2819764112818,0.1237813832987328
4.656179999999999,5.28905364870769,0.123650873459392
4.658576,5.296922282066498,0.1235183089832017
4.660959999999999,5.3034404409849465,0.1234269939514631
4.663356,5.314614427702285,0.1232698622729844
4.665752,5.330723781472238,0.1230326315148755
4.668139999999999,5.354841538227856,0.1226611730606953
4.670524,5.392322373902337,0.1220421378957848
4.672924,5.431013914390313,0.1214047184742525
4.675307999999999,5.46327984375846,0.1208976658364099
4.677692,5.500061831298639,0.1203455784271376
4.680092,5.540848020331652,0.1197337048011619
4.68248,5.578980482312189,0.1191585705243636
4.684859999999999,5.610966872426615,0.1186948465849695
4.687263999999999,5.641230701048343,0.1182526273994015
4.689648,5.673915939297073,0.1177546353606437
4.692027999999999,5.705158155306823,0.1172602570681548
4.694419999999999,5.736260601689716,0.116776890437772
4.696807999999999,5.766012573632247,0.1163317784616585
4.699188,5.797906415948057,0.1158480673092152
4.701592,5.8351549341970586,0.1152672093849767
4.70398,5.873474387632699,0.1146689099808898
4.70636,5.911002445135422,0.1140785961243327
4.708755999999999,5.949880977078503,0.1134487873124388
4.711143999999999,5.989039048275305,0.1128100523900016
4.713524,6.021539190926798,0.1122617049925872
4.715919999999999,6.046682556898683,0.1118452642594126
4.718308,6.0607444839518445,0.1115961629861996
4.720704,6.0715936054450905,0.1114046938890375
4.723108,6.089799503617944,0.1110939473974526
4.725491999999999,6.103209804365047,0.1108435260020389
4.727872,6.109170780633924,0.1106722545803816
4.730276,6.11527152652966,0.1104938549248465
4.732664,6.124585077985311,0.1102613247195197
4.735044,6.133479320560383,0.1100545497713346
4.737435999999999,6.138369361642622,0.109903003181744
4.739823999999999,6.142048697911362,0.1097780051133336
4.742199999999999,6.147218278247321,0.1096120888969014
4.744596,6.156159742650636,0.1093632619481571
4.746983999999999,6.164681898173369,0.1091396671582142
4.749364,6.170131017763048,0.1089612854304682
4.751764,6.177722007726005,0.10875109039483
4.754152,6.182379731382765,0.1085753335028282
4.756532,6.187828850972443,0.1083989823524155
4.758927999999999,6.1882028338826505,0.1082906053227544
4.761312,6.189507982352636,0.1081728238573887
4.763707999999999,6.191372209330062,0.1080228533316113
4.766112,6.194167601867266,0.1078617403812301
4.7685,6.193378101792217,0.1077287717088516
4.77088,6.189655335410974,0.1076322283120339
4.773275999999999,6.18607233865659,0.1075274317258128
4.775663999999999,6.187145169701099,0.107376188452036
4.778039999999999,6.187007295932106,0.1072505658617029
4.780436,6.186729652536254,0.1071334190999028
4.782824,6.185008986901427,0.1070103455288911
4.785204,6.185290422013017,0.1068607381388638
4.787607999999999,6.184361152311108,0.1067361228298173
4.792375999999999,6.171513721787184,0.106673390594075
4.799543999999999,6.142930920403517,0.1066655391776242
4.80194,6.134644874021999,0.1066506980884405
4.804323999999999,6.127709302080838,0.1066031510141579
4.80672,6.127850967565568,0.1064644168674659
4.809123999999999,6.129854964169853,0.1063087393410886
4.811511999999999,6.135863162266974,0.106104886730205
4.813888,6.150950698536398,0.1057894392859414
4.816284,6.175629429657328,0.1053789403685039
4.818667999999999,6.196024420031702,0.1050305024061219
4.821047999999999,6.217350575965856,0.1046736898307967
4.823452,6.239468127832927,0.1043191372607041
4.825835999999999,6.263727550073275,0.1039353810470294
4.828215999999999,6.28505370600743,0.1035831072789035
4.83062,6.306240092314723,0.1032379364309234
4.833003999999999,6.330359744928211,0.1028644391477417
4.835384,6.356761037541839,0.1024524250134136
4.837779999999999,6.38637513571538,0.1019958729932845
4.840164,6.417199938702419,0.1015150426900677
4.842544,6.449887072809016,0.1010256883733972
4.844939999999999,6.483645142102251,0.1005235995473825
4.847327999999999,6.520616016955403,0.0999784236481863
4.849724,6.5537224599425805,0.0994731405597559
4.852127999999999,6.584035406250424,0.0989946417623496
4.854516,6.608621589572736,0.0985725747900717
4.856895999999999,6.63241637696213,0.0981524816042617
4.859299999999999,6.651927423604969,0.097794092440275
4.861687999999999,6.6635698368890015,0.0975188475606827
4.864068,6.666272681627588,0.097337618049844
4.866472,6.676611842299506,0.0970505624347499
4.86886,6.688161707784921,0.096743425375137
4.87124,6.697477155098444,0.0964293811356513
4.873643999999999,6.703207709799712,0.0961360649470027
4.876032,6.713222005247535,0.0957877890505941
4.878411999999999,6.726449106255274,0.0953996825276372
4.880808,6.736091314650758,0.0950331717656332
4.883196,6.743871191926687,0.0946803895361472
4.885576,6.746715702150003,0.0943741750939003
4.887979999999999,6.74983975162704,0.0940542264228354
4.890364,6.749890765171021,0.0937690889159511
4.892747999999999,6.746728973155088,0.0935236592556322
4.895144,6.73956297964632,0.0933174479940763
4.897532,6.736401187630386,0.0930721624062981
4.899911999999999,6.732680317107012,0.092854331525202
4.902315999999999,6.734825979196028,0.0925861906088246
4.904703999999999,6.738042576471681,0.0923057888298288
4.907083999999999,6.742469878560834,0.092005165335072
4.909488,6.748899281396404,0.0916848123566867
4.911871999999999,6.757470554605251,0.0913361072436216
4.914256,6.757614115947852,0.0910859772871631
4.916651999999999,6.754405102103673,0.0908818635075913
4.919039999999999,6.752778880125332,0.0906797194584127
4.92142,6.754597781132384,0.0904676895627477
4.923815999999999,6.75320387657952,0.0902948437463505
4.926204,6.748457396839881,0.0901675421185646
4.928583999999999,6.742500212286743,0.0900594854928355
4.930987999999999,6.740407459599577,0.0899214493420583
4.933375999999999,6.743250073965026,0.0897407385082833
4.935756,6.746092688330472,0.0895604251589394
4.93816,6.749214841949641,0.0893666207678924
4.940543999999999,6.75862283706178,0.0891058812674663
4.942924,6.771895264039892,0.08881651452734
4.945331999999999,6.7840967558313645,0.0885418683985393
4.947716,6.799650822809615,0.08822462621288
4.950099999999999,6.808919048294894,0.0879751058872791
4.952496,6.816557260086093,0.0877651626371573
4.954884,6.823915932623571,0.0875689188451657
4.957264,6.832066001093969,0.0873747773122997
4.959667999999999,6.842218170310783,0.0871638074799495
4.962055999999999,6.860238972886404,0.0868909713192675
4.964435999999999,6.88147258102194,0.0865819543383958
4.96684,6.9044287506501725,0.0862723659447008
4.969223999999999,6.925522589158848,0.0859747523886141
4.971603999999999,6.949409924346861,0.0856629432653843
4.974003999999999,6.976370295467927,0.0853238747503664
4.976388,7.008126264014745,0.0849546615768085
4.978767999999999,7.034807095882092,0.0846319769089341
4.981171999999999,7.061999784428636,0.0843279845722948
4.983559999999999,7.089424790400657,0.0840526096543927
4.985939999999999,7.114428386745681,0.0838125848883328
4.988344,7.135148242344151,0.0836205698195121
4.990727999999999,7.154797162755982,0.083441527381556
4.993107999999999,7.173095608727453,0.0832870082067239
4.995512,7.190183349885427,0.0831515880111774
4.9979,7.207271091043399,0.0830146583639106
5.00028,7.225057680335674,0.0828457738464376
5.002684,7.244846370374366,0.0826621013030461
5.005068,7.265566225972834,0.0824753755620489
5.007448,7.288148412690861,0.0822820262913136
5.009843999999999,7.309939203475968,0.0820906265468106
5.012231999999999,7.33559442612705,0.0818793209263806
5.014612,7.357524986539018,0.0816862288896115
5.017016,7.377593215831431,0.0815012780914758
5.019404,7.39873238031048,0.0813083831261797
5.021784,7.417729674416254,0.0811370487466391
5.024187999999999,7.434445328521889,0.0809934847785037
5.026572,7.453163083373941,0.0808353346697021
5.028955999999999,7.464291744120908,0.0807152064132028
5.031352,7.475048317815537,0.0805749846844208
5.03374,7.490740258562777,0.0804024882779209
5.03612,7.506571968936878,0.0802240659775572
5.03852,7.521612283378061,0.0800443924669625
5.040908,7.536140741140047,0.0798503675231075
5.043287999999999,7.548667098155614,0.0796706073793259
5.045684,7.565477195917736,0.0794508251565732
5.048072,7.583078689612775,0.0792343865404191
5.050452,7.596164125135784,0.0790317720529527
5.052847999999999,7.60552489841968,0.0788451138708067
5.05524,7.61195240539738,0.0786772187407274
5.05762,7.613584314949328,0.0785350073984666
5.060015999999999,7.609489461515746,0.0784220385311242
5.062403999999999,7.604323672895527,0.0783184191961938
5.064784,7.603022316141279,0.0781938799618421
5.067179999999999,7.595994196401504,0.0780975268044583
5.069568,7.58831445035567,0.0779927805034476
5.071947999999999,7.581473322070996,0.0778524300538179
5.074344,7.576774064159599,0.077693242056975
5.076727999999999,7.579291813300951,0.0774786965156845
5.079112,7.582880497628944,0.0772552599532728
5.081508,7.584234763785041,0.077020032250344
5.083895999999999,7.589081374754774,0.0767466739319046
5.086276,7.590715180164592,0.0765001583410037
5.088671999999999,7.597424122253883,0.0762208134937658
5.091059999999999,7.605483538783531,0.0759206135287298
5.093439999999999,7.614474120872959,0.0756198371989622
5.095836,7.622533537402608,0.0753231484333828
5.098224,7.63538855135801,0.0750049986041528
5.100603999999999,7.650385435686688,0.0746687327168234
5.103,7.665801628895946,0.0743160714522628
5.105388,7.681078052478344,0.073967769130976
5.107768,7.697285641620521,0.0736165770619571
5.110163999999999,7.716054410016556,0.0732302297770438
5.112551999999999,7.729096415427059,0.0728677503655276
5.114932,7.746282391957258,0.0724754696482712
5.117331999999999,7.764399534047234,0.0720804036076136
5.119716,7.779164100950434,0.0717182088188073
5.122112,7.788993300801024,0.0713826752276872
5.124507999999999,7.798682731024753,0.0710555928410059
5.126896,7.809163557181399,0.0707333253731771
5.129275999999999,7.818293908897687,0.0704314667848954
5.131668,7.819927714307504,0.0701889564540263
5.134055999999999,7.827195734904234,0.0698929747171295
5.136436,7.825384417328659,0.0696497996109663
5.13884,7.822781703820167,0.06940351198973
5.141228,7.813381292139505,0.0691867070185147
5.143607999999999,7.804120650085703,0.0689640829593666
5.146011999999999,7.793928842472122,0.0687445189225797
5.148396,7.783457495604822,0.0685360739576281
5.150779999999999,7.772566839856942,0.0683442926179062
5.153172,7.766751320788533,0.0681236335306972
5.15556,7.760935801720124,0.0679029657047076
5.15794,7.754421434517415,0.0677102007860117
5.160344,7.755775700673512,0.0674821423681506
5.162732,7.754429017948892,0.0672922023406104
5.165111999999999,7.755084435970688,0.0670927698896203
5.167515999999999,7.755460314738765,0.0669035255346649
5.169903999999999,7.760631790932592,0.0666972720361419
5.172283999999999,7.760728130446948,0.0665189438794225
5.17468,7.757099807722191,0.0663496137395945
5.177068,7.753191945743714,0.0661910628611122
5.179447999999999,7.755569925258205,0.0659910087083465
5.181847999999999,7.754036251078482,0.0658424869648233
5.184232,7.759300275070927,0.0656670913904427
5.186612,7.764796616488848,0.0655174675167601
5.189015999999999,7.773086454586105,0.0653604859380578
5.1914,7.780025818243002,0.0652225801355788
5.19378,7.784823311526623,0.0651004536090137
5.196171999999999,7.790691739996883,0.0649709592064922
5.198559999999999,7.795629002907364,0.0648435136681003
5.200956,7.795211589884653,0.0647546666655465
5.203351999999999,7.792792076115525,0.0646753418519577
5.205739999999999,7.789581166413479,0.0645923674635402
5.208119999999999,7.783297220778378,0.0645268483244245
5.210516,7.779853993650854,0.0644184661584437
5.212904,7.773337730590277,0.0643270293795589
5.215283999999999,7.770313812343334,0.0642020047942224
5.217687999999999,7.764636167043916,0.0640772161736835
5.220072,7.7628229536104705,0.0639391217242546
5.222451999999999,7.762872071296583,0.0637970454612815
5.224855999999999,7.765063059355972,0.0636402738985848
5.227243999999999,7.763901472228585,0.0635113661069157
5.229623999999999,7.762367798048862,0.0633616684168086
5.232028,7.760042727936218,0.0632088408930836
5.234416,7.759068132263937,0.0630379425207856
5.236796,7.762097738084487,0.0628496762008188
5.239191999999999,7.768479919091814,0.0626349086924494
5.241579999999999,7.774862100099141,0.0624197686452632
5.24396,7.778311014800272,0.0622151123929481
5.246355999999999,7.780688994314765,0.0620169348712273
5.248744,7.786419549016034,0.0617916226406996
5.251123999999999,7.796154305210136,0.0615490673723045
5.25352,7.808822327710432,0.0612968021479252
5.255908,7.82149035021073,0.0610457217817232
5.258303999999999,7.833739063830446,0.0608124987138803
5.2607,7.845056611890385,0.0605801597135256
5.263083999999999,7.85809672144302,0.0603522957942664
5.265464,7.872859392488351,0.0601275932333689
5.267859999999999,7.888832768347181,0.0598921776528266
5.270247999999999,7.903595439392513,0.0596688960483163
5.272627999999999,7.919429045624483,0.0594404718522485
5.275024,7.936473356669953,0.0592000099148878
5.277412,7.961526070701089,0.058930508372014
5.279791999999999,7.983505748799168,0.058675918686236
5.282188,8.006696131710749,0.0584116799425033
5.284576,8.026022082756354,0.0581590809486977
5.286956,8.043206163428684,0.0579208593656628
5.289372,8.06239234484743,0.0576756407530413
5.291756,8.087724598132287,0.0574047578469385
5.294136,8.118271757723475,0.0571090003914866
5.29654,8.147747982128024,0.0568210510280584
5.298928,8.175873732092217,0.0565513626837855
5.301307999999999,8.204139251683268,0.0562790165026839
5.303704,8.231194066460821,0.0560186211022821
5.306092,8.255175845305319,0.0557713444105951
5.308472,8.285163926389066,0.0555049564521175
5.310872,8.31100803635312,0.0552586615982168
5.313255999999999,8.338714477436731,0.0550126798081347
5.31564,8.362416717027509,0.0547808948406689
5.31804,8.385187791058506,0.0545490834811865
5.320428,8.403954663596672,0.0543312716405253
5.322808,8.422721536134837,0.0541140619436764
5.325203999999999,8.433340236060474,0.0539297393187133
