Time,Force,Position
4.68432,2.4931520047638096,0.1788771991395118
4.686707999999999,2.6228332231008085,0.1759166697650948
4.689088,2.73961978908564,0.1740832504760964
4.691484000000001,2.847283586785662,0.1724348755092814
4.693872000000001,2.9439622850813163,0.1710771147165108
4.696251999999999,3.026907713263642,0.1705010446034325
4.698651999999999,3.1018466343181696,0.170218166230767
4.701040000000001,3.173342328245174,0.1698492170639353
4.703424,3.235994793141088,0.1694367899462875
4.705819999999999,3.289664259379052,0.168967118121749
4.708208000000001,3.3361658362503785,0.1685164055637092
4.710588,3.37293834450121,0.1682417576407538
4.712987999999999,3.405615999318461,0.1678265089740747
4.715372,3.4310332169704574,0.1673695585988255
4.717756,3.445557883016704,0.1670550093091061
4.720155999999999,3.4503062586142126,0.1669647316484477
4.72254,3.455473943092302,0.1668279015308067
4.724919999999999,3.463667441675204,0.1666545044082203
4.727323999999999,3.477680251042252,0.1663515894818948
4.729711999999999,3.4906221252226626,0.1660887232206452
4.732092,3.5079402879482435,0.1657117113922187
4.734492,3.5314970703385526,0.1651797594127979
4.7368760000000005,3.56129247239359,0.1644834580680791
4.73926,3.594160910381682,0.1636801148813479
4.741656000000001,3.629450757996772,0.1627606878607586
4.744044000000001,3.6627857266936887,0.1618192482842204
4.746423999999999,3.690813241285656,0.161021048040916
4.74882,3.7128344536383713,0.1604543905213001
4.751208,3.7372298537898416,0.159855534109933
4.753588000000001,3.766560620993925,0.1590924839147108
4.755984,3.796310697078588,0.158296160279216
4.758372,3.828202643536528,0.1574107319797055
4.760756000000001,3.861397842606584,0.1565536593329393
4.763152,3.8916125535422017,0.1558791104246241
4.76554,3.921268185970378,0.1552587212254197
4.767932,3.951994753585194,0.1545888136892011
4.770332,3.9809987597073127,0.1539683337080097
4.846776,4.059103264493513,0.1539659311826585
4.8491800000000005,4.063387005240067,0.153819008206448
4.851564,4.068322372292679,0.1536765062892893
4.853948000000001,4.073769596024488,0.153552039434845
4.8563480000000006,4.082801712368551,0.1533493102712145
4.858736,4.096349886884644,0.1530469906808067
4.861116000000001,4.113622723639852,0.1526568420117725
4.863512,4.143839330433339,0.1519034811091305
4.8659,4.176477346853823,0.1510451781415466
4.86828,4.204459535475416,0.1503038947841882
4.870684000000001,4.229787997044535,0.1496191124166697
4.8730720000000005,4.248458530068344,0.1491028622517738
4.875451999999999,4.266756976039816,0.1485647661479261
4.877848,4.280539363839257,0.1481307406651793
4.880236,4.294461521265557,0.1476754333392841
4.8826160000000005,4.309314844251636,0.1471936914701584
4.885020000000001,4.3272412031707725,0.1466193538353542
4.887408000000001,4.339301029477515,0.1462062972719701
4.889787999999999,4.348287819851205,0.1458863018234839
4.892192,4.358577862837008,0.1455722106819127
4.894576000000001,4.373523733621705,0.1451515388971071
4.896955999999999,4.387398669219764,0.1447781716824668
4.899352,4.398759647392207,0.1444429327153821
4.90174,4.412402265564786,0.1440348120987439
4.904120000000001,4.424462091871532,0.143647093747856
4.918452,4.408450973473804,0.1435006980778029
4.925623999999999,4.402446567092423,0.1434736540309816
4.928027999999999,4.40486797671942,0.1433842760810335
4.930415999999999,4.407568925600138,0.143270104455698
4.932796,4.406405442614883,0.1432489951529447
4.9567,4.432519612543311,0.1431677491260978
4.959088,4.443040077096724,0.1431100527524872
4.961468,4.458076599822168,0.1429676480101876
4.963863999999999,4.470179856241417,0.142894114319757
4.966248,4.48670662303408,0.1426887456788726
4.968628000000001,4.501231289080327,0.1425367860496069
4.971031999999999,4.520179465499987,0.1422477364164514
4.973416,4.537544850053812,0.141973181109711
4.975796000000001,4.551837198674581,0.1417825737890312
4.978199999999999,4.570273518415044,0.1414882879057651
4.980584,4.594995679648479,0.1410307021263985
4.982964000000001,4.621068315322271,0.1405324979896094
4.98536,4.650213986929119,0.1399581515168111
4.987748,4.677776866670131,0.1394053659518248
4.990144000000001,4.702174162679471,0.1388778511101584
4.992535999999999,4.729504724995007,0.138295108456178
4.994923999999999,4.757254596191122,0.1376823325697039
4.997304,4.790498912947291,0.1369058704963908
4.999708,4.822439977091343,0.1361229578676054
5.002096,4.8537294149293375,0.1353430789666309
5.004472,4.879431859408663,0.1346711880891025
5.006868000000001,4.907555713514984,0.1339369233657555
5.009256000000001,4.929813035008916,0.1333229466221424
5.011635999999999,4.95728526280918,0.1325842331667607
5.01404,4.975538382810278,0.1320618095675693
5.016424000000001,4.99737639542363,0.1314921338309152
5.018803999999999,5.019586495089318,0.13095567037044
5.0212,5.04538148736726,0.1303703422677071
5.023588,5.075460220391755,0.1296893935567194
5.025983999999999,5.101255212669698,0.129121828552888
5.028388,5.120764363454669,0.1287022666622775
5.030772000000001,5.134918838306447,0.1284109096451744
5.033156,5.148421686852167,0.1281174696511513
5.035551999999999,5.163926636144304,0.1277896381403206
5.037940000000001,5.184878809168251,0.1273890021378786
5.04032,5.201407471818784,0.1270974716476277
5.042716,5.219798465588873,0.1267825616909129
5.0451,5.237118524172322,0.1264937384438535
5.047484000000001,5.25616114424847,0.1261895060423236
5.049875999999999,5.277205865071035,0.1258538627400505
5.05226,5.299321521080237,0.1254918605377357
5.054656,5.314499709290411,0.1252565271538588
5.05706,5.337174443807053,0.1248610749387727
5.059443999999999,5.355984746457724,0.1245324781921963
5.061824,5.381220660228226,0.1240632657057749
5.064216,5.399147019147359,0.1236919295866106
5.066604,5.418563622133713,0.1232754693571027
5.068984,5.434395332507815,0.1229041908926662
5.071384,5.444220740642664,0.1226412436139741
5.073772,5.4543256880312345,0.1223593742602267
5.076148,5.46843483691264,0.1220073931910358
5.078556000000001,5.485756791353959,0.1215870176156404
5.08094,5.504009911355057,0.1211589733258719
5.0833200000000005,5.517327664303544,0.1208146403741421
5.085711999999999,5.525710050199418,0.1205537994184819
5.088100000000001,5.535862219416232,0.1202238106119214
5.186068000000001,5.341934369170265,0.1201096116785305
5.188452,5.343936469916682,0.1200762881824049
5.190835999999999,5.351013707342571,0.1199555001861553
5.193236000000001,5.354366282529347,0.119883078530557
5.1956240000000005,5.36079189364918,0.1197577360555524
5.198003999999999,5.370942167008124,0.1195859244665764
5.2004,5.387890138539236,0.11931466738552
5.202783999999999,5.400833908577516,0.1191071456930883
5.20518,5.41070464268274,0.1189527319768753
5.207576,5.42392795197474,0.1187273833048799
5.209963999999999,5.438873822759436,0.1184881145247434
5.212344,5.458382973544407,0.1181497251271156
5.214740000000001,5.482036095449072,0.1177369549089708
5.217124,5.510624584406347,0.1172501711792618
5.219519999999999,5.544288210043097,0.1166867606148441
5.221912,5.583306511613038,0.1160234212862232
5.2243,5.618600150943866,0.1154071937659694
5.22668,5.656966826207749,0.1147422102727653
5.229084,5.692540004792299,0.1141108423828445
5.231468,5.722526190018178,0.1135544305470824
5.233848,5.745854446698749,0.1130834789022759
5.236248,5.765178501886485,0.1126781674020803
5.238636,5.780777894835109,0.112319414416679
5.241016,5.796377287783732,0.1119595548248399
5.24342,5.809462723306741,0.1116178626170725
5.245804,5.819614892523554,0.1113175269598435
5.248184,5.825390773195197,0.1110544669895744
5.2505880000000005,5.836521329800033,0.110696393302512
5.252972,5.851004461591645,0.1102723222612589
5.255352,5.862414557450199,0.109898490238767
5.2577560000000005,5.874243962189336,0.1095012549165137
5.26014,5.87992729506236,0.1091996960472233
5.26252,5.886029936815966,0.1088757564708907
5.264924000000001,5.8882681467036,0.1086008609595822
5.267312,5.885059132859421,0.1083770225217759
5.269688,5.87891685270905,0.1081904367541334
5.272092000000001,5.874636903678234,0.1079846397888238
5.2744800000000005,5.866492522781446,0.1078243985376384
5.276859999999999,5.861141638563991,0.1076359220369038
5.279264,5.858863790279593,0.1074032771720543
5.281651999999999,5.8624524746075855,0.1070978239625071
5.284032,5.868974425241771,0.1067574024714706
5.286436,5.876148002182016,0.1064240685180619
5.288824,5.884252744682039,0.1060812573197551
5.2912040000000005,5.891007012741703,0.1057724502364986
5.293608000000001,5.898971985614864,0.1054375899580283
5.295992,5.909311146286781,0.105101472534237
5.298375999999999,5.91829983251834,0.104802121676915
5.300776000000001,5.927008979496178,0.1045210906497291
5.303164000000001,5.937580457593572,0.1042228227631264
5.305543999999999,5.948803561997025,0.1039348013520314
5.307948,5.964962033453088,0.1035870191431487
5.310336,5.974694893789321,0.1033392705024693
5.312716,5.986569624498832,0.103058785364246
5.315111999999999,5.997233650394843,0.1028023316813445
5.317496,6.006826741104216,0.1025627226700168
5.319876000000001,6.018561702186866,0.1022916240663502
5.322272,6.035232030322128,0.1019636097923148
5.324655999999999,6.05218189771111,0.1016221895697538
5.327036,6.064987793980398,0.1013389437487741
5.32944,6.075931359130132,0.1010742116444322
5.331823999999999,6.084872823533447,0.1008352980584209
5.334204,6.098098028683316,0.1005357802108084
5.336608,6.113465104206461,0.1002071204083824
5.338996,6.132184754916383,0.0998256977424219
5.341372,6.151835571186083,0.0994386764999707
5.343780000000001,6.172185235590084,0.0990180354586466
5.346164,6.190812338501389,0.0986057417598058
5.348544,6.20557500954672,0.0982299136246412
5.350948000000001,6.219546284659134,0.0978553905904158
5.3533360000000005,6.232074537532571,0.0974753311525041
5.355715999999999,6.240738358540035,0.0971328229656902
5.35812,6.252894524361135,0.0967267231889812
5.360504000000001,6.261837884622318,0.0963658465202021
5.362883999999999,6.273434971935978,0.0959900641767439
5.36528,6.287825555928972,0.0955934031844273
5.367668,6.301145204735328,0.0952152072350048
5.370048000000001,6.3104606520488495,0.0948830810872116
5.372451999999999,6.317494459362234,0.0945884071302342
5.374840000000001,6.327741072235535,0.0942497495635581
5.377216000000001,6.337196289175917,0.0939108990754225
5.379619999999999,6.3477224413029365,0.0935587109140344
5.382004,6.353033687123624,0.0932734604257001
5.384384000000001,6.357273997757673,0.0930044249070891
5.386787999999999,6.3589531291378645,0.0927869384384754
5.389176000000001,6.360492490891196,0.0925777054250545
5.391556,6.359610443017531,0.0924117280252427
5.393955999999999,6.3593800214499225,0.0922538280371142
5.396343999999999,6.367297772494844,0.0920092846228018
5.398724,6.378148789845958,0.0917407773106337
5.401128,6.387369793502993,0.0915148350476105
5.403516,6.400315459399143,0.0912644168315379
5.405896,6.413772981974488,0.0910297045036896
5.4083000000000006,6.43016377085603,0.0907688897233058
5.410684,6.444552458991155,0.0905275099859081
5.413064,6.458149751193361,0.0902871047942786
5.415464,6.469605173022291,0.0900737120141088
5.417852,6.481851990784139,0.0898612155454399
5.420228,6.499034175598597,0.0896058664509162
5.422632,6.514726116345838,0.0893861907256979
5.42502,6.532792244891833,0.0891712895218931
5.4274,6.547925107131632,0.0889815318763595
5.429804000000001,6.566270774931347,0.0887538244390509
5.432188,6.583405737917564,0.088547151285928
5.4345680000000005,6.602962110530777,0.088301940622191
5.436964,6.621727087211073,0.0880566873361669
5.439352,6.638489963144952,0.0878292308086469
5.441736000000001,6.657115170198387,0.0875912942365362
5.444127999999999,6.667312665385575,0.0874493724562618
5.446512,6.669222218333375,0.0873943982383769
5.448892000000001,6.674344576841091,0.0873015751040772
5.451288,6.680537870535445,0.0871973505185812
5.453671999999999,6.690735365722633,0.0870584960569412
5.456056,6.702283335350179,0.0868951626478981
5.458456,6.719325750537778,0.08666606990937
5.460844,6.737578870538876,0.0864208777844402
5.46322,6.75904479609989,0.0861411740252326
5.465624,6.78479446240746,0.0858176666435902
5.468012,6.806819466475914,0.0855176787160532
5.470392,6.833407750544644,0.085161865812582
5.472796000000001,6.859344408307315,0.0848002968579369
5.47518,6.891007829055515,0.0844059156271745
5.47756,6.9194584442438005,0.084047180535599
5.479964000000001,6.95205303055178,0.0836540473144748
5.482352000000001,6.983716451299981,0.0832698974633496
5.484731999999999,7.013238001674905,0.0829071000085003
5.487128,7.046763753542663,0.0825139252975575
5.489512,7.079777648731223,0.082109245919231
5.491892,7.115073183919921,0.0816727121545335
5.494287999999999,7.157725495788229,0.0811625596425197
5.496676000000001,7.201448742843176,0.0806486186556747
5.499067999999999,7.242378493218785,0.0801527643424744
5.501472,7.279863120609003,0.079667771101227
5.50386,7.315997273558862,0.079210625292729
5.50624,7.346916520202388,0.0788040123122416
5.508644,7.374483191659139,0.0784366809366513
5.511032,7.40097892792925,0.078082938101902
5.513412000000001,7.421468361960112,0.077773865639371
5.515808,7.439024529684779,0.0774819051112212
5.518196,7.450434625543334,0.0772397233740361
5.520576,7.460773786215252,0.0770082666343512
5.5229680000000005,7.467528054274916,0.0767875758060591
5.525356,7.474561861588301,0.0765542407867695
5.527735999999999,7.474937740356377,0.0763534201187595
5.530139999999999,7.471029878377899,0.0761911734218706
5.532524,7.470334821959335,0.0759995285049642
5.534903999999999,7.466846268861437,0.0758190268525752
5.5373,7.460424449457345,0.0756550995797052
5.539688,7.458146601172945,0.0754592614777284
5.542068,7.456008522515408,0.0752584875052234
5.544472000000001,7.448935076805258,0.0750868422941144
5.546856,7.439999299975549,0.0749214338747626
5.5492360000000005,7.429573279078623,0.0747829858024038
5.551640000000001,7.418355862248779,0.0746418081393927
5.554028000000001,7.406207279859156,0.0745034233029539
5.556407999999999,7.393127531909755,0.0743680060264627
5.558807999999999,7.375903812840661,0.0742637335657802
5.561192,7.36161336007776,0.0741430487276965
5.563575999999999,7.352118504740612,0.0739994412618748
5.565972,7.343415045336382,0.0738581054278307
5.568356,7.335922290745651,0.0737013667004836
5.570740000000001,7.327079061714561,0.0735657617678975
5.57314,7.319027228616388,0.0734326827663624
5.575528,7.31470005775733,0.0732862525473784
5.577908000000001,7.317589893951021,0.0730873814181531
5.580304,7.321410895704488,0.0728865365492905
5.582692,7.328816790070211,0.0726800477352825
5.585088000000001,7.3399473466750464,0.0724617062586997
5.587484,7.346654392906466,0.0722862085745585
5.589872,7.352010964697529,0.0721325635807702
5.592252,7.358158932421508,0.0719813113126649
5.594647999999999,7.366169231265045,0.0718240330210586
5.597035999999999,7.375390234922082,0.0716518804746832
5.599416,7.384331699325395,0.0714918171776747
5.601812000000001,7.398999926714241,0.0713092412445189
5.6042000000000005,7.419814225969197,0.071087122730599
5.606579999999999,7.444632726716986,0.0708409580484176
5.608976,7.469311457837915,0.0706022129450471
5.611364,7.491848318585569,0.0703820823770871
5.613759999999999,7.512522848213664,0.0701661823746516
5.616156,7.530915737841623,0.0699741898723603
5.618539999999999,7.551450497842858,0.0697651967744234
5.6209240000000005,7.571705718590373,0.0695679834630348
5.623315999999999,7.587677198591335,0.0694049563614644
5.625704000000001,7.594429570793128,0.0693024989938112
5.628083999999999,7.597549828554428,0.0692438953192441
5.630476,7.597085193703474,0.0691906460171323
5.632864,7.594618458106102,0.0691487957509815
5.635260000000001,7.596155924001565,0.0690846121543562
5.637663999999999,7.596622454710388,0.0690290354403112
5.640052000000001,7.600162021352267,0.068953975583491
5.642432,7.606215545419761,0.0688830304820907
5.644836,7.61385186135309,0.068818772530797
5.647220000000001,7.619625846166863,0.0687595101413637
5.6496,7.6226063343013,0.0687085458632834
5.652004,7.621303081689184,0.0686907271233398
5.654392,7.62027936833079,0.0686615684396334
5.656772,7.617253554225978,0.0686429539538111
5.659167999999999,7.613576113815107,0.0686153652934213
5.661555999999999,7.612692170083572,0.0685803735177421
5.663936,7.612879161538676,0.0685371942299264
5.666332000000001,7.610924282620504,0.0685102907939509
5.66872,7.612601518142827,0.0684422676144736
5.671099999999999,7.618562494411704,0.0683417518598121
5.673496,7.630669542546691,0.0682032833581421
5.675884,7.646688244375896,0.0680124026299248
5.678264,7.664569277324656,0.0678173791741502
5.68066,7.680448209526999,0.0676324149218708
5.683052,7.69288201874395,0.067446595124144
5.6854320000000005,7.70666630240126,0.0672420878669972
5.687828,7.717657089379235,0.0670452561837037
5.690216,7.726133918931595,0.0668449397589729
5.692596,7.73209679105834,0.0666405193398741
5.694991999999999,7.741132699118141,0.0664181102277633
5.697380000000001,7.7489579023644435,0.0662096211712879
5.699776,7.753989608931411,0.0660069406673524
5.702171999999999,7.756599905871381,0.065831299349076
5.704560000000001,7.76028113799799,0.0656476667560043
5.706936000000001,7.765545161990435,0.0654710535339729
5.709344,7.7743015307965155,0.0652611045775594
5.711728000000001,7.787993266655209,0.0650314265095404
5.714108,7.8028957073274,0.0647885258920967
5.716512,7.816587443186093,0.0645614531151875
5.7189,7.833212445350981,0.0643252921952333
5.72128,7.853841649008704,0.0640736388885367
5.723675999999999,7.874051543785844,0.0638407481759691
5.726063999999999,7.891979798562848,0.0636277529390611
5.728444,7.914983190019325,0.0633905391516858
5.730840000000001,7.939709142968497,0.0631561522326336
5.733228,7.962293225544392,0.0629367224186852
5.735604,7.985668704053206,0.0627211950234155
5.738004,8.007833477748521,0.0625181478982391
5.740387999999999,8.032791748123172,0.0623111111080963
5.742772,8.060823054430875,0.0620912903964245
5.745168,8.089133899992301,0.0618613303430472
5.747555999999999,8.122519882233199,0.0616078950764746
5.749952,8.160189605220651,0.0613282670437996
5.752348,8.197999097834963,0.0610442410613993
5.754735999999999,8.236227899329856,0.0607461109914817
5.757116,8.27203529119775,0.0604752462995776
5.759516,8.301976150453255,0.0602259609401808
5.761904,8.3305665352684,0.0599935726681597
5.764279999999999,8.354733409710132,0.0597930210656553
5.766676,8.373825147472392,0.0596162521191228
5.769064,8.383837547062345,0.0594781538425964
5.77144,8.388914579599687,0.0593570970409542
5.773847999999999,8.394271151390749,0.0592254331779112
5.776236000000001,8.39455258650234,0.0591161984889512
5.778612000000001,8.393902856054149,0.0590084726396915
5.78102,8.399119658218352,0.0588834537434848
5.783403999999999,8.40619879150211,0.0587563271277337
5.785788,8.41355746403959,0.0586188300788811
5.788192,8.420916136577068,0.0584822588146655
5.790576,8.424130837994852,0.0583664668401505
5.792956,8.428276704972417,0.0582498134534431
5.795351999999999,8.429349536016925,0.058146854022588
5.797739999999999,8.427768640008958,0.0580426409653124
5.80012,8.42697913993391,0.0579424800098884
5.802524,8.426049870232,0.057847546276432
5.804907999999999,8.422187334223894,0.0577605291916196
5.807288,8.416462467096231,0.0576751623520231
5.809684000000001,8.415300879968848,0.0575561985103311
5.812072000000001,8.41670047209532,0.0574101824189848
5.814451999999999,8.421452639408567,0.0572417451909703
5.816848,8.433282044147703,0.0570466892075707
5.819236,8.45111775112609,0.0568313983094282
5.821631999999999,8.471095328477753,0.0566049131592024
5.824028,8.493354545829556,0.0563616486463596
5.826416,8.517615863927775,0.0561130990410525
5.828792,8.533077383107406,0.0558879540703498
5.831187999999999,8.543091678555227,0.0556628193194237
5.833572,8.556039240309245,0.0554310456053724
5.835967999999999,8.566472844637648,0.055192757172099
5.838364,8.574252721913576,0.054951355131264
5.840748,8.578168167323529,0.0547176016507669
5.843128,8.585296418293403,0.0544675225007053
5.845532,8.591213964449773,0.0542281510847251
5.84792,8.595548718740309,0.0539806306340553
