Time,Force,Position
4.751983999999999,3.693255398595864,0.161429425682133
4.754331999999999,3.72490744419685,0.1613540664421124
4.756683999999999,3.748694648154767,0.1611083156467143
4.766051999999999,3.7661034628210968,0.1610484060237061
4.768392,3.7747615962549528,0.1609970902519192
4.770736,3.784490664875447,0.1609009622251126
4.773084,3.793148798309303,0.1608419929651483
4.77542,3.806974616221249,0.1606762209082068
4.777764,3.828062767156316,0.1603992792549911
4.780112,3.853247667382836,0.1600480315980464
4.782443999999999,3.886720509848743,0.1593891530189039
4.784791999999999,3.918098703769616,0.1587133462606327
4.787135999999999,3.950687602503988,0.1579919651375794
4.789483999999999,3.981553939745664,0.1573304024218796
4.791819999999999,4.011349341800701,0.1567028045722842
4.794163999999999,4.044776858296234,0.1558917566934911
4.796511999999999,4.068101323261065,0.1553708405232152
4.798847999999999,4.086630190800146,0.1550072478711126
4.801187999999999,4.102597879085368,0.1547704118527687
4.803532,4.115585079236153,0.1546944910708627
4.805879999999999,4.128572279386936,0.1546175464511012
4.808224,4.139976687671885,0.1545631509239274
4.810567999999999,4.155664836703386,0.1543573833644477
4.812919999999999,4.172144381667807,0.1541501894033235
4.815259999999999,4.189834631445725,0.1539006527049825
4.817604,4.210737686783561,0.1535409678347793
4.819943999999999,4.233038438389997,0.1530442547448956
4.822283999999999,4.245375908092592,0.1527845507971023
4.82462,4.254547794063515,0.1525721963348379
4.826963999999999,4.2672120248480745,0.1522368177625862
4.829308,4.275732284512939,0.152028195001262
4.831647999999999,4.290258846417054,0.1516500451455445
4.833991999999999,4.304133782015112,0.1512747744498165
4.836336,4.316658243172811,0.1509611156145409
4.838684,4.335700863248959,0.1505052347806763
4.841019999999999,4.356186505564081,0.1500480540739769
4.843372,4.378022622319564,0.1495214266484327
4.845719999999999,4.396972694597092,0.1490022400876881
4.848064,4.417273241314983,0.1484282226293048
4.850407999999999,4.440786593592787,0.1477491910618049
4.852752,4.460854822885199,0.1471202196318823
4.980256,4.297757463199882,0.1465086006173848
4.982656,4.298456311334182,0.1464484977177474
4.985048,4.304322843946573,0.1463070395087993
4.987427999999999,4.318709636223828,0.1459790671129552
4.989824,4.344457406673526,0.1453434727314911
4.992216,4.366899823764693,0.1447548382548741
4.994595999999999,4.3940452904829925,0.1440025111758003
4.996992,4.421702613880492,0.1432777895071073
4.999384,4.4552264698903805,0.1424142877648168
5.001763999999999,4.490892196273546,0.141488395199948
5.00416,4.528048166723932,0.1405086380560765
5.006552,4.558918295681346,0.1397027700588221
5.008931999999999,4.595794726878011,0.1387492531553023
5.011328,4.6349527980748135,0.1377235579229958
5.013716,4.672807616659499,0.1367054326503956
5.016096,4.703352880392818,0.1358246311456671
5.018512,4.729893942633304,0.1350476353340571
5.0209,4.754153364873654,0.1343423659878344
5.023279999999999,4.781346053420197,0.1335677824829321
5.025676,4.803743144540989,0.1329044969254272
5.028064,4.823998365288504,0.1323011335115249
5.030444,4.841040780476103,0.1317875123541804
5.032839999999999,4.856640173424727,0.1312785711749378
5.035227999999999,4.865581637828042,0.1309062211366075
5.037608,4.8671663255517466,0.1307235472210854
5.040007999999999,4.868331704394871,0.1305734995240892
5.080619999999999,4.826995916143765,0.1305621672218101
5.083016,4.828998016890183,0.1305194606662453
5.085408,4.832862448756157,0.1304446884109513
5.087787999999999,4.839799916555186,0.1303007302290884
5.090203999999999,4.845154592488378,0.1301686303192835
5.092588,4.856236031407101,0.1299357872888622
5.094967999999999,4.871973298124715,0.1296270301594153
5.097364,4.879981701110382,0.1294621603502023
5.099752,4.884777298536133,0.1293746002943133
5.102135999999999,4.894648032641357,0.1291823016545606
5.104532,4.907452033052777,0.1289395598268013
5.10692,4.920116263837337,0.1287068620570747
5.1093,4.934130969062254,0.1284269931009835
5.111695999999999,4.944793099100396,0.128231937250006
5.114083999999999,4.958248725817873,0.1279913054134774
5.116464,4.973287144401187,0.1277434905402735
5.118863999999999,4.991398598917556,0.1274344627440896
5.121247999999999,5.012024010859539,0.1270998276959482
5.123627999999999,5.038655725040773,0.1266522369440651
5.126024,5.06766162702076,0.1262007630263245
5.128412,5.099880334560664,0.1256819855290339
5.130791999999999,5.133309746914067,0.1251398557392375
5.133192,5.168089633707827,0.1245605071267436
5.13558,5.200727650128312,0.1240321206333059
5.137959999999999,5.229501234682823,0.1235655526758246
5.14036,5.249195481065027,0.123271720594905
5.142748,5.266236000394758,0.1230117753891354
5.145127999999999,5.28793234752338,0.1226804245396568
5.147524,5.312841500211918,0.1222766077961255
5.149912,5.33439807771368,0.1219623347268693
5.152295999999999,5.35087951853597,0.1217464068126773
5.154692,5.371644700104812,0.1214443832571975
5.15708,5.394272212793212,0.1211197540094234
5.159463999999999,5.422254401414804,0.1206841507726944
5.16186,5.450376359663256,0.1202424761329701
5.164248,5.478917626792289,0.119778773306356
5.166628,5.50331492280163,0.1193962190930732
5.169028,5.531204563624605,0.1189373091650103
5.171416,5.552156736648552,0.1185947547037308
5.173796,5.568872390754189,0.1182874285186435
5.176187999999999,5.583306404859687,0.118034345378445
5.178572,5.595738318218769,0.1178168105218325
5.180951999999999,5.607099296391213,0.1176219960115705
5.183348,5.618739813817377,0.1174093794430536
5.185731999999999,5.6379694253486266,0.1170998833658193
5.188111999999999,5.6637644176265685,0.11665903256849
5.190508,5.68955940990451,0.1162192087946754
5.192892,5.718706977369228,0.1157180816563433
5.195272,5.749856645580362,0.1151936145046857
5.197679999999999,5.775698859686547,0.1147143412932651
5.200064,5.800749677859814,0.1142329469302053
5.202443999999999,5.820585589726749,0.113845758159575
5.20484,5.840281731966821,0.1134716103577545
5.207223999999999,5.856113442340923,0.1131514951265103
5.209604,5.870874217528385,0.1128516183161041
5.212015999999999,5.8825619567827925,0.1126015677340957
5.214399999999999,5.894808774544641,0.1123163530389803
5.216779999999999,5.89890741969396,0.1121579947789337
5.219188,5.905147935216558,0.1119606996012091
5.221571999999999,5.913111012231851,0.1117515016247314
5.255076,5.758700049229939,0.111744437476753
5.257464,5.745945166504633,0.1117269095189693
5.259859999999999,5.735192384525742,0.1116808168287873
5.262259999999999,5.726813790345608,0.1116299740502544
5.264648,5.72565220321822,0.1114675681706875
5.267027999999999,5.7255615512774725,0.1112872212092732
5.269431999999999,5.724399964150087,0.1111253792645327
5.271816,5.721608363328622,0.1110152437971574
5.274195999999999,5.720818863253573,0.1108768131929548
5.276599999999999,5.726966830977553,0.110644165329946
5.278984,5.736280382433205,0.1104075989788631
5.281363999999999,5.756116294300139,0.1100468887003037
5.283767999999999,5.774369414301237,0.1096870319815624
5.286155999999999,5.792622534302335,0.109331359794229
5.288536,5.819675453222018,0.1088660021336057
5.290931999999999,5.850313264753956,0.1083721687755727
5.293316,5.879600601845533,0.1079124205449065
5.295695999999999,5.90474396781742,0.107518722653498
5.298099999999999,5.928676628975803,0.1071519703523451
5.300484,5.95889513162716,0.1066881609567577
5.302863999999999,5.990975965398073,0.1062152035068755
5.305267999999999,6.015979561743096,0.105839532048292
5.307652,6.042054093274757,0.1054507993075602
5.310031999999999,6.06812862480642,0.1050660221568763
5.312435999999999,6.092061285964805,0.1047205202546472
5.314823999999999,6.11599394712319,0.1043783334439403
5.317203999999999,6.142208248281713,0.103997983113669
5.319608,6.173637455746567,0.1035471858467056
5.321996,6.2069289943309816,0.1030827817022878
5.324379999999999,6.239429136982475,0.1026271055795184
5.326776,6.270626027021852,0.1021620251192056
5.329164,6.297306858889199,0.1017366059986989
5.331544,6.326920957062739,0.1012801623774179
5.333947999999999,6.35066852262389,0.1008845519615611
5.336336,6.3697602603861485,0.1005340862182543
5.338715999999999,6.385918731842212,0.1002152329089264
5.341119999999999,6.403287908111776,0.0998728553842248
5.343504,6.422007558821697,0.0994995488992737
5.345883999999999,6.444591641397593,0.0990906363450872
5.34828,6.463171522480654,0.0987306385329108
5.350668,6.476024640578186,0.0984249233479309
5.353048,6.4968861616613856,0.0980306482585183
5.355443999999999,6.514023020505471,0.0976670562608528
5.357827999999999,6.52957708748372,0.0973051260293745
5.360207999999999,6.542337657782634,0.0969647904447288
5.362612,6.553096127335132,0.0966469748274095
5.364999999999999,6.559710625767936,0.0963806670856619
5.36738,6.561249987521268,0.0961735507686373
5.36978,6.562137722968542,0.0959599412651139
5.372167999999999,6.563956623975594,0.0957414369945718
5.374548,6.564704589796008,0.095537511386313
5.376943999999999,6.564102081176062,0.0953617761863094
5.379328,6.566432838862313,0.0951606312614354
5.381707999999999,6.57691176916109,0.0948719085435682
5.384111999999999,6.584038124273092,0.094630305073621
5.386499999999999,6.594377284945009,0.0943485772224564
5.38888,6.609931351923258,0.0940103000714378
5.391275999999999,6.6257649581552265,0.0936593221578486
5.393664,6.638665298081001,0.0933365697365202
5.396043999999999,6.6551505306190295,0.0929979951020312
5.398447999999999,6.6734980942766144,0.0926463639917653
5.400832,6.689052161254863,0.0923175329760346
5.403211999999999,6.705118084912312,0.0920019869931566
5.405611999999999,6.722254943756398,0.0916752666499155
5.407996,6.746189500772652,0.0912963164068752
5.410379999999999,6.771986388908462,0.0909062539999026
5.412783999999999,6.797923046671133,0.090506561111571
5.415167999999999,6.822137142941108,0.0901090960883948
5.417547999999999,6.843929829584085,0.0897520636531551
5.41994,6.857574343614536,0.0894765624306784
5.422323999999999,6.870147922458348,0.0892140689554437
5.42472,6.884863371675436,0.0889261703392786
5.427115999999999,6.893432749026414,0.088702669545053
5.4295,6.894924888951501,0.0885482879985118
5.431879999999999,6.90242333111584,0.0883385364744374
5.43428,6.9088508380935405,0.0881429817147694
5.436668,6.907921568391632,0.0880288708963803
5.439047999999999,6.908295551301837,0.0879312444838806
5.441451999999999,6.907598599025405,0.0878458248624453
5.443836,6.9031769845098605,0.0877825232932837
5.446215999999999,6.90075747074073,0.0877016701265892
5.448612,6.898058417717882,0.08763439332143
5.450995999999999,6.89871193988181,0.0875244577118691
5.453371999999999,6.899085922792017,0.0874282725253018
5.455787999999999,6.894664308276472,0.0873650474554452
5.458175999999999,6.889171758574288,0.0873135306759633
5.460551999999999,6.887264101484358,0.0872482221718675
5.462948,6.892014372939736,0.0871410972395663
5.465331999999999,6.898115118835474,0.0870090766394
5.467712,6.914086598836434,0.0868001820583114
5.470128,6.935784841822924,0.0865569694668085
5.472511999999999,6.955992840742196,0.0863453246713854
5.474892,6.977271774848107,0.0861205974666155
5.477296,7.004417241566407,0.085853180068829
5.479684,7.025556406045457,0.0856357346010309
5.482064,7.044413930524371,0.0854481423894866
5.484467999999999,7.066344490936338,0.085232063560049
5.486852,7.085621324295833,0.0850250418728008
5.489232,7.106620719148022,0.0848143873301696
5.491623999999999,7.131484545866187,0.0845790380026432
5.494011999999999,7.152344171091517,0.0843769282528467
5.496391999999999,7.171993091503349,0.0841931397978914
5.498796,7.187498040795486,0.0840489403223284
5.501179999999999,7.202071824527845,0.083910200910021
5.503559999999999,7.216505838633342,0.0837784172706383
5.505964,7.233361262365839,0.0836125392305457
5.508347999999999,7.250915534232635,0.0834168878404451
5.510727999999999,7.262603273487041,0.0832626928629327
5.513132,7.275222178301226,0.0831047563096228
5.51552,7.278249888263907,0.0830050480851329
5.5179,7.274759439308141,0.0829371130835029
5.5203,7.276111809606369,0.0828017880386902
5.522688,7.280676985464513,0.0826350123617266
5.525068,7.281657268710404,0.0824799190724987
5.527471999999999,7.286921292702849,0.082282481000394
5.52986,7.2918132296429565,0.0820636352847971
5.532239999999999,7.298195410650283,0.0818171528280008
5.534643999999999,7.303925965351552,0.0815617670196827
5.537028,7.31184561225434,0.0812483313409272
5.539407999999999,7.31417826579846,0.0809598581469567
5.541811999999999,7.319723724902493,0.0806405150617667
5.544199999999999,7.324105701021273,0.0802977866182019
5.54658,7.333702583446383,0.0799111654372262
5.548984,7.340505969192161,0.0795353090935433
5.551367999999999,7.346517959005019,0.0791571419739842
5.553748,7.348525747325041,0.0788078970792715
5.556152,7.343176758965456,0.0785224020881854
5.558535999999999,7.341180345792648,0.0782000784338679
5.560916,7.335459270380727,0.0778927437537471
5.56332,7.337094971648414,0.0775199186619748
5.565703999999999,7.3396618384758785,0.0771420896251201
5.568084,7.334871928623734,0.0768292871718569
5.570488,7.327148752465395,0.076534417751691
5.572876,7.319425576307055,0.0762388172887944
5.575255999999999,7.311562630521856,0.0759500105245488
5.577647999999999,7.310357613281965,0.0756309492583462
5.580035999999999,7.303658150482022,0.0753661657693325
5.582411999999999,7.30040381066747,0.0750994988732089
5.584815999999999,7.291235716412286,0.0749049245430792
5.5872,7.282719248463159,0.0747180267612661
5.589579999999999,7.269546952715141,0.0745476708449504
5.591983999999999,7.259819779952518,0.0743754370026758
5.594368,7.245808866443338,0.0742412733929977
5.596747999999999,7.235941924053853,0.0740747154545168
5.599151999999999,7.22528358573145,0.0739045962103759
5.601536,7.216487578528602,0.0737272876144249
5.603915999999999,7.215979513565143,0.0734862200758205
5.606319999999999,7.215191909347962,0.0732582424513494
5.608707999999999,7.218128967369896,0.0730169779769222
5.611083999999999,7.218365076511112,0.0728196107091298
5.61348,7.2163195456521905,0.0726459639711221
5.615868,7.217207281099464,0.072455986547048
5.618244,7.221028282852933,0.0722509431092505
5.620639999999999,7.227363242032015,0.0720493847600695
5.623024,7.23262726602446,0.0718575432144919
5.625403999999999,7.230814052591016,0.0717120822790064
5.6278,7.232213644717488,0.0715388081874623
5.630183999999999,7.231890675351263,0.0713660264977339
5.632564,7.233709576358314,0.0711741684764665
5.634959999999999,7.240603614044839,0.0709496030523604
5.637348,7.254527667329009,0.0707198596821979
5.639727999999999,7.265658223933845,0.0704998698482105
5.642143999999999,7.2802811253523165,0.0702420993479112
5.644528,7.294624487517066,0.0699981157870433
5.646907999999999,7.310271102293933,0.0697721641783625
5.649323999999999,7.326848882630578,0.0695444739166511
5.651708,7.340865483713365,0.0693542308075972
5.654092,7.352740214422875,0.0691815421496158
5.656491999999999,7.364475175505525,0.0690156807657444
5.658879999999999,7.3774208414016735,0.0688358762012199
5.66126,7.397723283977431,0.0686033969888657
5.663664,7.422309467299743,0.0683400596521643
5.666047999999999,7.443962384315859,0.068091613684355
5.668428,7.46496367502592,0.0678359771896947
5.67082,7.487315440176338,0.0675620236724804
5.673208,7.511948845326894,0.0672657740328411
5.675603999999999,7.534300610477312,0.0669910717265718
5.678,7.554510505254453,0.0667323818692112
5.680388,7.578864371151289,0.0664487944107725
5.682768,7.600284970741929,0.0661802512924835
5.685163999999999,7.617189512160538,0.0659185863558983
5.687547999999999,7.631812413579008,0.0656773929802671
5.689927999999999,7.642011804624065,0.0654745674554699
5.692332,7.649929555668985,0.065293492216264
5.694719999999999,7.658406385221345,0.0650896456687894
5.6971,7.667954149960344,0.0648792884129162
5.699504,7.67992332432634,0.0646436514531003
5.701892,7.694313908319335,0.0643817731339755
5.704268,7.706190534886714,0.0641149395609094
5.706663999999999,7.717275765521175,0.0638454942179414
5.709051999999999,7.724077255409082,0.0636083652252374
5.711431999999999,7.721659637497822,0.0634219856357243
5.713827999999999,7.723246221079399,0.0632176155882347
5.716216,7.721619999101058,0.0630353471411347
5.718611999999999,7.719714237868996,0.0628647313037148
5.721008,7.718320333316132,0.0627092180962247
5.723392,7.720558543203764,0.0625152054343372
5.725772,7.727220263464811,0.0622870380130335
5.728167999999999,7.728667077419526,0.0620898748361453
5.730555999999999,7.73011389137424,0.0618928943219273
5.732936,7.732771410142455,0.0616832451546452
5.73534,7.743716871150055,0.0614288054556437
5.737728,7.755873036971154,0.061161052552992
5.740104,7.770730151672973,0.0608577769050488
5.742508,7.788380763054125,0.0605520906183649
5.744896,7.800816468128944,0.0602757022184097
5.747276,7.806966331710794,0.0600358230338959
5.749667999999999,7.811905490479145,0.0598090464360909
5.752052,7.817216736299833,0.0596019608753372
5.754447999999999,7.8211775076801615,0.0594125972478244
5.756844,7.822205012754297,0.0592322784390538
5.759232,7.830449524881179,0.0590142289338696
5.761608,7.831477029955313,0.0588332744605675
5.764003999999999,7.83636896689542,0.0586413927186461
5.766391999999999,7.836185767156055,0.0584722323602516
5.768788,7.836282106670411,0.0582925707279862
5.771183999999999,7.838892403610381,0.0581212636707283
5.773568,7.840012456483132,0.0579737133173985
5.775947999999999,7.841923905288802,0.0578297699201092
5.778344,7.840902087788274,0.0576945692356519
5.780727999999999,7.840671666220666,0.0575638347200787
5.783112,7.835366107973584,0.0574558480611999
5.785507999999999,7.831783111219201,0.0573509402308994
5.787892,7.828711971144014,0.0572612907349434
5.790271999999999,7.823638730322412,0.0571793717407757
5.792668,7.822709460620504,0.0570772250683996
5.795051999999999,7.82513276610537,0.0569503779406802
5.797432,7.825414201216961,0.0568359977065106
5.799827999999999,7.832121247448383,0.0566845627585686
5.802212,7.845114135172774,0.0565022358329109
5.804591999999999,7.864113325136417,0.0562989137562734
5.807007999999999,7.8826932062194786,0.0561131217326196
5.809395999999999,7.909281490288207,0.0558996949475923
5.811771999999999,7.933216047304462,0.055684530391964
5.814187999999999,7.964227841746605,0.0554426171466901
5.816572,7.993377305069192,0.0552033375465734
5.818951999999999,8.017591401339166,0.0549802551083181
5.821343999999999,8.040874332049361,0.0547586203342014
5.823731999999999,8.068720542759833,0.054504298690716
5.826111999999999,8.101222581269196,0.0542463610444771
5.828504,8.1335848501517,0.0539949781240827
5.830892,8.16566757978048,0.053754386861748
5.833272,8.19896101422276,0.0535047431019019
5.835663999999999,8.229972808664904,0.0532726538053532
5.838048,8.25884273273377,0.0530525624440983
5.840428,8.288783591989276,0.0528286647190935
5.84284,8.321517947924116,0.0526051517969179
5.845228,8.35932744053843,0.0523646289109597
5.847604,8.388988760540213,0.0521554834614114
5.850003999999999,8.412224469422167,0.0519811624499266
5.852387999999999,8.434529012744342,0.0518093406049086
5.854767999999999,8.452037958640766,0.0516447187320212
5.857183999999999,8.46354060229794,0.0514982888118478
5.859571999999999,8.477976512261305,0.0513463442334811
5.861952,8.487616824798923,0.0512019181095763
5.864363999999999,8.499119468456096,0.0510570990369168
5.866751999999999,8.511553277673046,0.0509119502511291
5.869132,8.523195690957078,0.0507623560598341
