Time,Force,Position
3.843511999999999,2.7692187315202403,0.1774596367376741
3.8459,2.9334399357940466,0.1747297512034201
3.848279999999999,3.0981295666345456,0.1718564908449545
3.850676,3.249087823219586,0.1693765873363217
3.853064,3.382078186630857,0.1673144186501021
3.855444,3.4949115646668365,0.1660080335605302
3.857844,3.5999254270301217,0.1649273136154398
3.860232,3.700704666332965,0.1638102195483749
3.939079999999999,4.0787895893312776,0.1632829298816462
3.9414599999999993,4.096851926161533,0.1630288405312643
3.943852,4.120548478178703,0.1625446875384946
3.946235999999999,4.14694597907659,0.1619360223923146
3.948632,4.165055537735089,0.1616255741960662
3.951024,4.181582304527753,0.1613436412367611
3.953412,4.202160494641492,0.1608615807750746
3.955791999999999,4.221155892889397,0.1604030981589229
3.9581839999999993,4.2388008166969415,0.1600224648062318
3.960571999999999,4.267759496848687,0.1593650069802269
3.962968,4.302584709612822,0.1585618417832936
3.9653639999999992,4.347140886855321,0.157493302761423
3.967748,4.389834732978263,0.1564644335417205
3.970127999999999,4.432947887981786,0.1554133708353772
3.9725319999999993,4.477830826306248,0.1542987826086658
3.974916,4.520758885712538,0.1531918093583713
3.977295999999999,4.558007403961541,0.1521533620541957
3.979692,4.593301043292369,0.151107302652513
3.98208,4.627011890757362,0.1500995241150158
3.984475999999999,4.659791572662575,0.1491141207236464
3.9868799999999993,4.697366851993542,0.1480210613822352
3.989263999999999,4.726282102032783,0.1471476334875842
3.991648,4.753846877631663,0.1463383305102915
4.08006,4.77019044468496,0.1456291927985723
4.082447999999999,4.777872086588665,0.1455250068701438
4.084828,4.786717211477624,0.1454383898827037
4.087223999999999,4.799426768232557,0.1452721612079073
4.089611999999999,4.815349130547404,0.1450239277777442
4.091991999999999,4.828058687302337,0.1448604964863856
4.094387999999999,4.853013165961249,0.1444632754119537
4.096776,4.8806213716726345,0.1440244117749391
4.099155999999999,4.914655188503851,0.1434208835094481
4.101547999999999,4.94910831421565,0.1427859898705286
4.103935999999999,4.983701209554308,0.1421430908670649
4.106332,5.027792751945853,0.1412698423295821
4.108735999999999,5.0730949991508965,0.140365161036289
4.11112,5.122029360796436,0.1393650799008291
4.1135,5.172314196882335,0.1383266386782562
4.115903999999999,5.217663665915621,0.1373998760333951
4.118292,5.257146602336518,0.1365918997665841
4.120668,5.297980013197773,0.135743829697881
4.123071999999999,5.33979181144705,0.1348403850288857
4.12546,5.377227321151155,0.1339948390893724
4.127839999999999,5.408424211190533,0.1332430081282024
4.130243999999999,5.433102942311463,0.1326070098919078
4.132631999999999,5.46090193119369,0.1318547736189513
4.135012,5.487677206717523,0.1310897507669748
4.137407999999999,5.509796654442464,0.130402700383159
4.139792,5.536851469220016,0.1296263237135304
4.142171999999999,5.555386024332703,0.1289998233966259
4.144568,5.572896866086995,0.1283479178580056
4.146955999999999,5.584541175228897,0.1278031342919091
4.149336,5.597256419557439,0.1272380910976684
4.151731999999999,5.610902829445759,0.1266621882810607
4.154119999999999,5.61654083634841,0.1262370729914095
4.235344,5.136662265359717,0.1259403711355249
4.237748,5.138012739800076,0.1258977240733544
4.240131999999999,5.141877171666049,0.1258348212472868
4.242512,5.1517479057712725,0.1256631538534459
4.244916,5.17214100028778,0.125329817309192
4.247304,5.193045951483485,0.1250138588226867
4.249684,5.217815334545162,0.124636385222376
4.252087999999999,5.246309379845952,0.124210603297209
4.254472,5.279087165893297,0.1237071575659704
4.256855999999999,5.314658448619976,0.1231623126795107
4.259255999999999,5.35437370246635,0.1225441961721453
4.26164,5.39637059631286,0.1218773625652715
4.264019999999999,5.431849331240923,0.1212952695961381
4.266423999999999,5.47189134616926,0.1206015272720681
4.268811999999999,5.50420449736565,0.1200403633937123
4.271187999999999,5.529719950389871,0.1195792669303641
4.273584,5.560962166399622,0.1190375444802815
4.275971999999999,5.5861980801701225,0.1185979104363522
4.278364,5.612644698754122,0.1181273814680309
4.280759999999999,5.639231086964983,0.1176480732072527
4.283144,5.667679806295398,0.1171511040527964
4.285523999999999,5.691984554506122,0.1167347381943627
4.287927999999999,5.715497906783926,0.1163252919053411
4.290312,5.735146827195757,0.115975776357254
4.292695999999999,5.746135718315863,0.1157534017877789
4.2951,5.75661275275677,0.1155163973453547
4.297483999999999,5.764296290518344,0.1153144822676648
4.299864,5.767324000481026,0.1151697266525756
4.302268,5.764345408204456,0.1151191606463061
4.304651999999999,5.764859160741523,0.1149926634555033
4.307032,5.7630912732784525,0.1149142541618408
4.309436,5.761323385815382,0.1148361881295351
4.311824,5.766492966151341,0.1146593031486597
4.3142,5.772314172793358,0.1144907284879198
4.316604,5.780277249808651,0.1142849267342804
4.318987999999999,5.79717989536939,0.1139519753972037
4.321372,5.807424612384821,0.113700397484217
4.323767999999999,5.823815401266363,0.1133533567638572
4.326151999999999,5.841696434215124,0.1129662230207688
4.328531999999999,5.8634418990298585,0.112535607417267
4.330931999999999,5.88146270160548,0.1121472662547122
4.333319999999999,5.901345835300656,0.1117392319473306
4.335699999999999,5.920158033809194,0.1113506390682222
4.338096,5.940692793810429,0.1109511265764913
4.340484,5.961879180117723,0.1105547628020692
4.342863999999999,5.983717192731075,0.1101669647280016
4.34526,6.0084884716506215,0.1097436442841472
4.347648,6.034982312062864,0.1093072892001
4.350043999999999,6.05905474284811,0.1089190971507301
4.352435999999999,6.080985303260078,0.1085754466351713
4.35482,6.102124467739128,0.1082344467188119
4.357203999999999,6.120981992218041,0.1079393861264201
4.359603999999999,6.138908351137175,0.1076587026656479
4.361991999999999,6.155903544496532,0.1073899680123118
4.364372,6.172898737855888,0.1071236997110321
4.366771999999999,6.187240204162769,0.1068808620065769
4.369159999999999,6.205446102335625,0.1065933131599637
4.37154,6.216854302336312,0.1063842914747394
4.373944,6.2250496967770825,0.1062270946747414
4.376327999999999,6.228449493792102,0.1061228357956835
4.378708,6.233711621926677,0.1060013422460631
4.381112,6.237251188568557,0.1058893991124479
4.3835,6.2421412296507945,0.1057456985869584
4.38588,6.247171040359892,0.1055948250063149
4.388283999999999,6.254762030322849,0.1053878581756482
4.390668,6.261561624352886,0.1051821249803544
4.393048,6.265148412823008,0.1050256454216318
4.395451999999999,6.26966636685291,0.1048610234550204
4.397836,6.280609932002642,0.1045991484480356
4.400215999999999,6.286478360472901,0.1044025115916231
4.402619999999999,6.296071451182274,0.1041743226358991
4.405007999999999,6.30408175002581,0.1039464208209111
4.407387999999999,6.306085746630096,0.103791489340409
4.409792,6.307018808047744,0.1036529874759839
4.412179999999999,6.304599294278615,0.1035704932250221
4.41456,6.298687435695851,0.1035519811637952
4.416964,6.295708843419282,0.103500627814402
4.419352,6.303252611553996,0.1033445914563991
4.421731999999999,6.3154522074876,0.1031495718645681
4.424135999999999,6.328443199354124,0.1029538755046673
4.42652,6.341294421593785,0.1027668739294321
4.428903999999999,6.3567993708859225,0.102564196829301
4.4313,6.372024780924339,0.1023784906544279
4.433684,6.387389960589616,0.1021868325502937
4.436064,6.401544435441393,0.1020191957711491
4.438468,6.418632176599366,0.101823113899638
4.440852,6.439072492944114,0.1015755828940448
4.443232,6.461794449289,0.1012942320130058
4.445635999999999,6.485587340820525,0.1010050898502889
4.448024,6.513384433844885,0.1006709012670225
4.450403999999999,6.537736403883852,0.1003554419560886
4.4528,6.563810935415513,0.1000317931979147
4.455183999999999,6.5966831651193445,0.0996423563224921
4.457564,6.629974703703756,0.0992324503832448
4.459968,6.666618817474943,0.098770799889474
4.462351999999999,6.709828311992823,0.0982188619253778
4.464732,6.747311043525171,0.0977210237432246
4.467136,6.777484220206153,0.0972802740462078
4.469524,6.800999468341827,0.0968958860454279
4.471904,6.8267963564776375,0.0964792518547324
4.474307999999999,6.852081387934251,0.096050070280562
4.476692,6.87499223159211,0.0956216793866185
4.479071999999999,6.894969808943774,0.0952198388904013
4.481472,6.91401622073566,0.094826500162774
4.48386,6.933342171781266,0.0944202652987733
4.486239999999999,6.9469413598413405,0.0940609553857793
4.488643999999999,6.960261008647696,0.0937188296413215
4.491028,6.9687850600283,0.0934168030570978
4.493407999999999,6.970371643609875,0.0931802976804013
4.495811999999999,6.970235665698753,0.0929495122913657
4.498199999999999,6.965955716667936,0.0927632616949562
4.500579999999999,6.961024141331063,0.0925691931918941
4.502976,6.954509774128352,0.0923744792194762
4.505364,6.946784702112145,0.0921992611674929
4.507743999999999,6.941201500469215,0.0919989493100117
4.51014,6.93026362289309,0.09186231814585
4.512528,6.9233299468098,0.0916885923371975
4.514904,6.917187666659427,0.0915154811147674
4.517311999999999,6.9153291272556086,0.0912917948580179
4.519696,6.908535220799178,0.0911101999884226
4.522076,6.901601544715889,0.0909351927540516
4.524479999999999,6.894248559752016,0.0907799737664458
4.526868,6.888757905907703,0.09061299084773
4.529244,6.8860607487427234,0.0904295203961681
4.531647999999999,6.882944282697163,0.0902662346075011
4.534035999999999,6.883552478890717,0.0900800489348737
4.536415999999999,6.880575782472018,0.0899096650922023
4.538819999999999,6.878390481986235,0.0897398161748107
4.541207999999999,6.878719138926068,0.0895659093757091
4.543588,6.878908026239041,0.0893984320882427
4.545992,6.883892510977765,0.0891949973470059
4.548375999999999,6.891670492395825,0.0889753096280141
4.550756,6.897446373067467,0.0887741996634593
4.553156,6.904153419298888,0.0885673792940518
4.555543999999999,6.903643458477559,0.088433475560973
4.557919999999999,6.904344202469729,0.0882802895580522
4.560324,6.903042845715483,0.0881454357457175
4.562711999999999,6.901741488961236,0.0880106403287162
4.565092,6.900951988886188,0.0878912039259261
4.567492,6.904026920677112,0.0877434217106585
4.56988,6.90509975172162,0.0876127840741299
4.57226,6.9095251579529045,0.0874397832926379
4.574655999999999,6.915301038624547,0.0872419644077813
4.577043999999999,6.9164210914972974,0.087070781248191
4.579424,6.918751849183547,0.0868814637659903
4.581816,6.921362146123517,0.0866796786099459
4.584199999999999,6.928628270862378,0.0864532559750161
4.58658,6.940829762653853,0.086190389971595
4.588984,6.952519397766128,0.0859125037420753
4.591367999999999,6.9671422991846,0.0856142100076119
4.593748,6.9808340350432925,0.085321704027348
4.596152,6.996667641275263,0.0850106756922605
4.59854,7.011011003440013,0.0847289024358594
4.600919999999999,7.029498336724458,0.0844117203752354
4.603323999999999,7.053991972248154,0.0840458575685847
4.605708,7.07713513333149,0.083703827686901
4.608087999999999,7.099998755161106,0.0833752998480839
4.610491999999999,7.123514003296781,0.0830561229003719
4.612879999999999,7.144095985126259,0.0827582393559595
4.615259999999999,7.164538197328877,0.0824685475526009
4.617664,7.188844841397469,0.0821548164666721
4.620047999999999,7.211801011025701,0.0818677777998441
4.622427999999999,7.232615310280656,0.0816034296042686
4.624832,7.256083336588087,0.0813323289345922
4.62722,7.27834065808202,0.0810793625875262
4.6296,7.298456109202674,0.0808488142831087
4.631995999999999,7.312844797337799,0.0806513436537686
4.63438,7.320296017673894,0.0805037420305782
4.636763999999999,7.332682605062603,0.0803237941489757
4.639163999999999,7.347071293197727,0.0801319184656882
4.641551999999999,7.365464182825686,0.0799134873979932
4.643932,7.376779835027754,0.0797487218161273
4.646336,7.394521098349656,0.0795242916109936
4.648724,7.407047455365224,0.0793455441889271
4.651104,7.419573812380792,0.0791684858282945
4.653507999999999,7.436523679769773,0.0789471862195127
4.655892,7.452682151225838,0.0787234562032589
4.658272,7.470051327495401,0.0784854065562459
4.660667999999999,7.487700043018684,0.0782349374008597
4.663051999999999,7.505208988915109,0.0779914429914777
4.665431999999999,7.522438395557811,0.0777617670186535
4.667835999999999,7.537665701454096,0.0775455238158793
4.670223999999999,7.555686504029716,0.0773190594552353
4.672604,7.573847076232198,0.0770879485736969
4.675008,7.594149518807957,0.0768390294452369
4.677391999999999,7.618316393249688,0.0765715564007872
4.679772,7.648861656983008,0.0762860592098019
4.682167999999999,7.684342287768938,0.0759713256241669
4.684555999999999,7.714468242621677,0.0757057687062592
4.686935999999999,7.736725564115609,0.0754859746104466
4.689332,7.754047518556929,0.0752965189616233
4.69172,7.7761650704240015,0.0750843014266436
4.694099999999999,7.795209586358018,0.0748963984398608
4.696496,7.815325037478671,0.0746993238531603
4.698884,7.831576056733353,0.0745215731817396
4.701264,7.84354333524148,0.0743807317933658
4.703667999999999,7.858443880055804,0.0742252100124086
4.706056,7.870411158563931,0.0740854779805055
4.708435999999999,7.88596332968431,0.0739397679570751
4.710839999999999,7.90421644968541,0.0737558772833287
4.713224,7.923028648193949,0.0735513431866495
4.715603999999999,7.945053652262405,0.0733219666310034
4.718007999999999,7.968289361144357,0.073081098914445
4.720395999999999,7.990454134839672,0.0728496160753173
4.722776,8.01210705185579,0.0726067989879617
4.725171999999999,8.029104141073015,0.0723789223347372
4.727556,8.039862610625512,0.0721599006242511
4.729939999999999,8.049550144991372,0.0719502231254685
4.732336,8.06072792342445,0.0717159655142163
4.734724,8.07763246484306,0.071459538737541
4.737103999999999,8.095607941448305,0.0711950766400714
4.7395,8.112140395814576,0.0709211226642667
4.741887999999999,8.125599814247792,0.0706659186327761
4.744283999999999,8.139338771934728,0.0704003708721099
4.74668,8.155219599994942,0.0701185958232746
4.749067999999999,8.172450902495513,0.0698179836739016
4.751448,8.186888708316753,0.0695260871683026
4.753843999999999,8.201466283764848,0.0692284279824928
4.756231999999999,8.210736405107996,0.068935554180298
4.758611999999999,8.21451208089109,0.0686884958231277
4.761016,8.214283555181352,0.0684623051002154
4.763404,8.21512596465825,0.0682299645986534
4.765784,8.213314647082676,0.0680002495138231
4.768188,8.212714034320598,0.0677580313892959
4.770572,8.209692011931525,0.0675416514604162
4.772952,8.209603255848648,0.0673132785260767
4.775359999999999,8.211516600512185,0.0670744044572721
4.777744,8.213849254056305,0.0668204708667884
4.780123999999999,8.215110972413784,0.0665739270331173
4.782527999999999,8.216280142972646,0.0662991285835602
4.784915999999999,8.214655816852176,0.066029683993291
4.787291999999999,8.211820785918205,0.0657726676694214
4.789695999999999,8.212478099797869,0.0654832982650713
4.792083999999999,8.212064478490898,0.0652010634467334
4.794464,8.209508986810649,0.0649327413164454
4.796863999999999,8.208024430317035,0.0646578041736503
4.799247999999999,8.20961290975648,0.0643674428376631
4.801627999999999,8.212132554755701,0.0640751734259754
4.804024,8.219168257926958,0.0637791747565611
4.806412,8.230487701844764,0.0634556059311448
4.808791999999999,8.241527606508852,0.0631412084005033
4.811188,8.243627942627494,0.0628629781897716
4.813575999999999,8.240513372439803,0.0626132049186753
4.815956,8.235396701505694,0.0623722324548857
4.81836,8.23041980019845,0.0621254835999853
4.820744,8.225163359637481,0.061889821213313
4.823127999999999,8.223631581315624,0.0616482202695371
4.825524,8.22074932855341,0.0614242777857294
4.827912,8.221731507657172,0.0611895278774723
4.830292,8.219872968253354,0.0609943827804784
4.832687999999999,8.22187886071551,0.0607877816261002
4.835075999999999,8.222813817991026,0.0605872865246664
4.837456,8.221467135266405,0.0604054950753403
4.839851999999999,8.221051618101566,0.0602221764499472
4.84224,8.222638201683138,0.0600305341720686
4.844636,8.223805476384134,0.0598550528558246
4.847031999999999,8.222039484778932,0.059689140182675
4.84942,8.223486298733645,0.0595047275553197
4.851799999999999,8.224141716755444,0.0593172756942626
4.854196,8.222655264403961,0.0591429812185969
4.856579999999999,8.230387919851648,0.0589292623103652
4.858964,8.248131079031415,0.0586789965917219
4.86136,8.273882641196852,0.0583996014871116
4.863747999999999,8.298703037802513,0.0581210837269274
4.866128,8.325525535154588,0.0578363455314214
4.868523999999999,8.351836175827465,0.0575389339246804
4.870911999999999,8.371209348701315,0.0572640837801426
4.873308,8.389930895269105,0.0569804883699454
4.875703999999999,8.403065448478225,0.0567036463318086
4.878091999999999,8.41661931056793,0.0564114473405021
4.880471999999999,8.430033403030771,0.0561255842334571
4.882871999999999,8.44652053142667,0.0558271860017025
4.885259999999999,8.463007659822564,0.0555286829890473
4.887639999999999,8.482567824151516,0.055219602656874
4.890044,8.504130089226885,0.0549054788731107
4.892432,8.521316065757084,0.0545849922329548
4.894812,8.541155769339758,0.0542683152283935
4.897207999999999,8.55592033624296,0.0539716421863306
4.899595999999999,8.566820471280186,0.053682693693391
4.901976,8.575858275197856,0.0533948820936624
4.904368,8.573023244263885,0.0531405686611289
4.906756,8.564973307023582,0.0529097578393331
4.909136,8.553990103477084,0.0526861197488305
4.911531999999999,8.54687133179656,0.0524554365210978
4.913919999999999,8.538681624929396,0.0522303239885524
4.916316,8.529281213248737,0.0520150628602283
4.918711999999999,8.52695803899396,0.0517770683889621
4.921095999999999,8.525566030298968,0.0515385645992942
4.92348,8.528829849402864,0.0512981072701679
4.925879999999999,8.532605525185962,0.0510717177043452
4.928267999999999,8.5345188698495,0.0508462432110049
4.930648,8.536432214513038,0.0506215449933903
4.933043999999999,8.539276724736355,0.0503965047204621
4.935428,8.535043997533784,0.0501925272665717
4.937811999999999,8.528948939211654,0.0499895060573675
4.940208,8.53016343574089,0.0497896234370235
4.942591999999999,8.526582334844376,0.0495953783499622
4.944987999999999,8.522861464321,0.0494051266367194
4.947384,8.520863155290321,0.0492185717919031
4.949767999999999,8.518585307005921,0.0490409086264501
4.952147999999999,8.520032120960638,0.0488615268235743
4.954547999999999,8.52254987010199,0.048677066718372
