Time,Force,Position
5.660347999999999,2.9603550843418067,0.1776212389161077
5.662736000000002,3.127375472868555,0.173142981562545
5.665120000000002,3.275357033034896,0.1701482844610842
5.667515999999999,3.407278357117397,0.1680365465504484
5.6699000000000055,3.5289587559002045,0.1664007556851955
5.672284000000005,3.644774517928493,0.1648713155023677
5.674680000000002,3.762176863538355,0.1627258434919718
5.6770680000000056,3.8687811011989535,0.1607010855556536
5.679452000000005,3.9501532168047895,0.1594231782773469
5.681851999999999,4.026731630842742,0.1581675790810146
5.684240000000003,4.10214845775331,0.1567245566004701
5.686620000000005,4.1719820830209455,0.1550113462535237
5.746368000000004,4.231098772990718,0.1544571852708083
5.748756,4.2479031831792335,0.1543850889558175
5.7511360000000025,4.264148514860307,0.1543575220984288
5.753532,4.284305500235597,0.1541577928050228
5.755924,4.303112011170529,0.1540180851482052
5.7583040000000025,4.331649486583824,0.1536386589036293
5.760704000000004,4.372990962408538,0.1529261559811678
5.763092,4.412609876740556,0.1522451081899298
5.765476,4.457303927752047,0.1514201009270062
5.767872000000004,4.500787273950038,0.1506361867695002
5.77026,4.541477123468694,0.1499212482406632
5.772640000000003,4.581934655561873,0.1491613894049685
5.775036,4.621740561348994,0.1483974359834884
5.7774240000000034,4.658892740083641,0.1476806631539889
5.779804000000006,4.69511375325851,0.1469812095145946
5.782204,4.725468233820988,0.1464392848410496
5.784587999999999,4.757312958450685,0.1458319958434528
5.786972000000006,4.7833383722962335,0.145320455966279
5.789372,4.800331669797721,0.144988710612541
5.791760000000004,4.811458434686817,0.1448063654159845
5.794144000000003,4.820071242150299,0.1446674481420714
5.79654,4.825099157001528,0.1445976246786632
5.798932000000001,4.834038725546974,0.1443771604053721
5.801316,4.845771790771755,0.1441003148663837
5.8180520000000016,4.840468128382544,0.1438340827614587
5.820444000000002,4.839771176106113,0.1437227576902687
5.822824000000004,4.840284928643179,0.1435718623911738
5.825220000000002,4.842661012299803,0.1433849048538309
5.827608000000005,4.847039196702842,0.1431518669637657
5.829992000000004,4.859193466666073,0.1427025747054783
5.832388000000002,4.86762307439019,0.1423226253261258
5.834776000000005,4.873910811741031,0.1419954939457913
5.837160000000004,4.884714607263902,0.1415843248783468
5.839556000000002,4.899941913160189,0.1410468899496998
5.841944000000005,4.911724096071082,0.1405636305390011
5.844328000000004,4.921132091183221,0.1400992930126981
5.846724000000002,4.926396115175666,0.1397389136824274
5.849112000000005,4.928447333608196,0.1394652295329172
5.8514960000000045,4.923980393122276,0.1393154624477244
5.853892000000002,4.921423005584158,0.1390710769867528
5.856280000000005,4.921659114725372,0.1387729372172985
5.8586640000000045,4.9201254405456485,0.1385568567020431
5.861060000000002,4.926832486777069,0.1381898670609613
5.863448000000005,4.929675101142516,0.1379070886981525
5.865832000000005,4.9312144628958485,0.1376171720969744
5.868228000000002,4.9264679831562095,0.1374876278856839
5.870620000000002,4.92116242490913,0.1374017484880836
5.880168000000005,4.885413630016693,0.1373519930838042
5.882567999999999,4.881131785128007,0.1372964347013686
5.8849560000000025,4.879131580239459,0.1371751521638533
5.887340000000002,4.875408813858216,0.1370765678878813
5.889735999999999,4.872337673783029,0.1369826992287895
5.892124000000003,4.8702902470662375,0.1369198156636505
5.894508000000002,4.870337468894481,0.136860799411377
5.896903999999999,4.872666330722862,0.1367358503563568
5.899292000000003,4.876345666991601,0.1365604621739767
5.901676000000002,4.8794659247529,0.1364290759526998
5.904076000000003,4.882678730312815,0.1363463773710664
5.906460000000003,4.890547363671622,0.1361789942130566
5.908844000000002,4.8963213484853965,0.1360105055902832
5.911244000000004,4.905447908485945,0.1357508065725148
5.913632,4.913875620352193,0.1355454102658689
5.916012000000002,4.926819390390472,0.1352684328084398
5.918412000000004,4.939763160428752,0.1349914553510107
5.9208,4.953405778601332,0.1346604702482536
5.923188000000003,4.964487217520055,0.1344162551483977
5.925584000000001,4.977663304983811,0.1341759713014979
5.927972000000004,4.987906126141373,0.133994707892869
5.930356000000003,4.99577475950018,0.1338325314583554
5.932752000000001,5.00299176655293,0.1336676977923584
5.935144000000001,5.008858299165321,0.1335511773459555
5.937524000000003,5.018449494016825,0.1333740373995013
5.939924000000005,5.03297605592094,0.1331006072157596
5.942312000000001,5.05206589782533,0.1327079963174429
5.9447000000000045,5.069153638983304,0.1323567089930429
5.947096000000002,5.0898262727535295,0.1319588872253202
5.949488000000002,5.113571942456811,0.1315009921913051
5.951876000000006,5.135362733241919,0.1310253531798721
5.954272000000003,5.157712602534467,0.1305163606975934
5.956659999999999,5.178711997386658,0.1300553547495591
5.959048000000003,5.19850068742535,0.1296348931493352
5.961444,5.216846355225066,0.12921116632399
5.963836000000001,5.230256655972168,0.1288777051461321
5.966224000000004,5.242596021532633,0.128567508580019
5.968620000000001,5.2567977182126535,0.1282316740308324
5.971008000000005,5.272629428586755,0.1278308267306361
5.973396000000001,5.289299756722017,0.1273734010439525
5.9757920000000055,5.310114055976973,0.1268295383186645
5.978180000000002,5.330648815978209,0.1263066380733074
5.980568000000005,5.349833101539085,0.1258306083974466
5.982968,5.369716235234262,0.1253066119947138
5.985356000000003,5.38387260594391,0.1248792899609718
5.987740000000002,5.393233379227806,0.1245339860733876
5.990140000000004,5.395796454339532,0.1243048690718089
5.992528,5.401432565384315,0.124016693953974
5.994928000000002,5.404275179749762,0.123770634055273
5.997323999999999,5.404044758182153,0.1235846474228643
5.999715999999999,5.407259459599938,0.1233657923560816
6.002116000000001,5.408332290644445,0.1231929090294352
6.004516000000002,5.407682560196257,0.1230357896080887
6.006904000000006,5.405030729001651,0.1229139794501712
6.009304,5.406894955979077,0.1227377445269409
6.011700000000005,5.416115959636112,0.122416394656388
6.014096000000002,5.427618603293285,0.1220415720553996
6.016492,5.436979376577182,0.1217130930711473
6.018896000000005,5.445641301726776,0.1214317064936655
6.0212880000000055,5.450671112435875,0.1212440435808313
6.023696000000001,5.456632088704751,0.1210467886445753
6.026088000000001,5.46138236016013,0.1208796989068234
6.028488000000003,5.465992861988647,0.1207217808395081
6.0308880000000045,5.470835681242641,0.120598620486962
6.033276000000001,5.477540831616191,0.1204501111450698
6.035672000000005,5.485177147549522,0.1202887963136651
6.038072,5.499331622401301,0.1200419434851867
6.040464,5.513206557999357,0.11981702849795
6.042860000000005,5.529874990276751,0.1195587636801643
6.045259999999999,5.545472487367505,0.1193205847227295
6.047651999999999,5.560930214831399,0.1190947349092291
6.050032000000002,5.575037467854934,0.1189071389223857
6.052432000000003,5.5936607790505,0.1186702049125963
6.054819999999999,5.615217356552261,0.1183898737003362
6.057204000000006,5.636773934054023,0.1181158052217882
6.059612000000001,5.65390700118237,0.1179362476211156
6.062000000000005,5.672622860176554,0.1177550939687199
6.064384000000004,5.689336618424321,0.1176036122678904
6.066780000000001,5.708332016672226,0.1174041798433093
6.069168000000005,5.7324025515996,0.117122762732619
6.071552000000004,5.753400050593922,0.1168955982481387
6.073952000000006,5.781894095894712,0.1165369067069379
6.076340000000002,5.807734414143027,0.1161985803556908
6.078724000000001,5.834645667577983,0.1158433179492219
6.081124000000003,5.8606257554531584,0.115497900978582
6.083512000000006,5.887956317768694,0.1151181376958505
6.085896000000005,5.908349412285198,0.1148405216514109
6.088304000000001,5.926740406055287,0.1145942297955593
6.090692000000004,5.943129299078961,0.1143808163609126
6.093076000000004,5.96166006247591,0.1141292071056662
6.095476000000005,5.976326394006886,0.1139281394500716
6.097864000000001,5.994205531097777,0.1136701390864646
6.100248000000001,6.009570710763054,0.1134293274367211
6.102648000000002,6.021071458562358,0.113238900434564
6.1050400000000025,6.028707774495688,0.1130993867191676
6.107424000000002,6.037694564869376,0.1129249004648239
6.109824000000003,6.041234131511256,0.1128037208925058
6.112212,6.049848834832609,0.112606712633503
6.114596000000006,6.055530271847765,0.112449164872582
6.116996,6.058418212183587,0.1123229660290634
6.119384000000004,6.062656626959766,0.1121624449470455
6.121768000000003,6.059538265056338,0.1121211653496124
6.124188000000004,6.062565975019018,0.1119889862410216
6.126580000000004,6.064290432369583,0.1118442348055314
6.1289720000000045,6.068156760093425,0.1116642852084774
6.131368000000002,6.072534944496465,0.1115003784825236
6.133756000000005,6.082407574459559,0.1112408455832294
6.136140000000005,6.090976951810535,0.1109671302023839
6.138532000000005,6.093959335802844,0.1107485659998809
6.140920000000001,6.095358927929314,0.1105330886818027
6.143300000000004,6.101321800056061,0.1102314135914185
6.145696000000001,6.104770714757194,0.1099427707851429
6.148084000000004,6.106869155017967,0.1096874107051804
6.150468000000004,6.112971796771572,0.1093786792388777
6.152864000000001,6.119214208152038,0.1090608499377108
6.155248,6.120381482853031,0.1088131652560569
6.157648000000002,6.124342254233361,0.1085358978430352
6.160040000000002,6.125509528934355,0.1082886489919139
6.162428000000006,6.130029378822125,0.1079818319169165
6.164812000000005,6.134828767963616,0.1076593541496276
6.167208000000002,6.13627558191833,0.10739663457916
6.169596000000006,6.136279373634069,0.1071264645573048
6.171976000000001,6.131999424603253,0.1069265824749312
6.174372000000005,6.125158296318579,0.1067852215526611
6.176760000000002,6.118456937660766,0.1066357171068995
6.179140000000004,6.10831045601756,0.1065061597765301
6.181544000000002,6.0977446654937735,0.1064002669737738
6.183932000000006,6.09076376758224,0.1062665894140694
6.186312000000001,6.09351383414907,0.1060212481790023
6.188712000000002,6.096775757395098,0.1057909300197594
6.191100000000006,6.096545335827492,0.105627110488385
6.193480000000001,6.099899806872137,0.1054377271471311
6.1958760000000055,6.105815457170639,0.1051922128289085
6.198264000000002,6.111731107469141,0.1049490041807188
6.200644000000004,6.122582124820256,0.104651033912145
6.2030440000000056,6.140370609970399,0.1042716698635709
6.205428000000005,6.161092361426738,0.1038634372298739
6.207808,6.182745278442856,0.1034493775961209
6.2102080000000015,6.2030477210186135,0.1030706102896913
6.212592000000001,6.220928753967375,0.1027374306213782
6.214988000000005,6.240811887662551,0.1023788149947432
6.217388,6.26521107952976,0.1019880759595571
6.219771999999999,6.292543537703165,0.1015669813969846
6.222156000000005,6.323880197369402,0.1010985183581296
6.224556,6.351864281848862,0.1006847226019228
6.226944000000003,6.383293489313719,0.1002553270732154
6.229324000000005,6.409927099352821,0.099872931205116
6.231720000000003,6.434418839018647,0.0995242388167048
6.234107999999999,6.450902175698808,0.0992707433430488
6.2364920000000055,6.467525282005826,0.0990098845718526
6.238888000000003,6.48708165461904,0.0987190623586923
6.241275999999999,6.50249405611256,0.0984832755978808
6.2436600000000055,6.515345278352223,0.0983012444488714
6.246056000000003,6.52526323428569,0.0981504214426177
6.248443999999999,6.530385592793405,0.0980459561523559
6.2508240000000015,6.532574684994925,0.0979717596225741
6.2579920000000016,6.519540263015897,0.0979467588381839
6.260396,6.517864923351443,0.0979092657906226
6.262784000000004,6.514467022194293,0.097878729029293
6.265164000000006,6.510137955477366,0.0978552822334075
6.267560000000003,6.506088428014158,0.0978170040277033
6.269947999999999,6.502458209431532,0.0977568715153422
6.272332000000006,6.504834293088155,0.0976342559628584
6.274728000000003,6.503765253759386,0.0975245148769005
6.277116,6.507491811856369,0.0973734061011528
6.279496000000002,6.513360240326628,0.0971950789053445
6.281891999999999,6.525654279916719,0.0969338635811059
6.284284,6.537156923573891,0.0966722368645693
6.286664000000002,6.546797236111508,0.0964251984206119
6.289059999999999,6.558858958276122,0.0961366694455358
6.291448000000003,6.574273255627511,0.0958007946956432
6.293832000000002,6.591549884098457,0.0954522694366579
6.296236,6.610409304435239,0.0951054182398633
6.298624000000004,6.628477328839105,0.0947581236723856
6.301004000000006,6.649990476228361,0.0944009874192003
6.3034040000000005,6.679651796230144,0.0939586430025777
6.305792000000004,6.709173346605069,0.0935263529475845
6.308171999999999,6.736972335487297,0.0931026148435069
6.3105720000000005,6.770637856981915,0.0926306180562794
6.312960000000004,6.805374313663172,0.0921496835695966
6.315339999999999,6.838760295904069,0.0916998224245409
6.317736000000004,6.869724868517968,0.0912929866195639
6.320124,6.897895944452535,0.0909093896051924
6.322504000000002,6.930583078559131,0.090505267773254
6.324908000000001,6.961547651173031,0.0901087492089241
6.327296000000004,6.991581058227153,0.0897217699150078
6.329675999999999,7.017982350840779,0.089395316309157
6.332076000000001,7.050110406439935,0.0890334994302387
6.334464000000004,7.0833093972257295,0.0886614723852572
6.336843999999999,7.116228848757803,0.0883056158913083
6.339240000000004,7.147797825849519,0.0879779378253708
6.341628,7.179366802941233,0.0876522837776386
6.344011999999999,7.207490657047557,0.0873339786107196
6.346408000000004,7.239199403766133,0.087003574333663
6.348796,7.267463027499315,0.086682842784235
6.351179999999999,7.289068722687189,0.0864073527378951
6.353576000000004,7.308672317128646,0.0861486111662005
6.355964,7.327065206756604,0.0859077380503119
6.358348,7.342524830078367,0.085691196728163
6.360744000000004,7.352117920787739,0.0855165023812642
6.363132,7.357986349257999,0.0853609707647633
6.3655120000000025,7.361852676981843,0.0852212293165653
6.367912000000004,7.360504098399353,0.0851316708856105
6.3703,7.356641562391248,0.0850444208190926
6.372680000000003,7.352639256756284,0.0849635189473438
6.375080000000004,7.346495080748042,0.0849051314556773
6.384632000000003,7.291794317720206,0.0848780148067346
6.387016000000003,7.278200817233737,0.0848570251853178
6.389420000000001,7.262744985627711,0.0848451631604391
6.391808000000005,7.25166544256686,0.0848223687661042
6.394188,7.23886333801331,0.0848020758471148
6.396592000000005,7.226992399019538,0.0847768432157424
6.398980000000002,7.220848223011297,0.0847177916394212
6.401360000000004,7.218056622189833,0.0846204109562586
6.403756000000001,7.221411093234477,0.0844724937613694
6.406144000000005,7.222763463532706,0.0843396125556305
6.408528000000004,7.231984467189741,0.0841537273801003
6.410924000000001,7.246280607526247,0.083927807773421
6.413312000000005,7.264860488609308,0.0836603502498791
6.415696000000004,7.291868081558619,0.0833160637374223
6.4180920000000015,7.319527300813987,0.0829815164107209
6.420480000000005,7.351190721562187,0.0826214489170118
6.422864000000004,7.386066947870304,0.0822322303472707
6.4252600000000015,7.424016210111477,0.0818183598432755
6.427648000000005,7.463315946793008,0.0813801478902634
6.430032000000004,7.5027554531014,0.0809370363918525
6.432428000000002,7.539401462730456,0.080507227527064
6.434820000000002,7.572043270866679,0.0801089059942827
6.437200000000004,7.604685079002902,0.0797099160533882
6.439596000000002,7.635604325646429,0.0793146540486598
6.441988000000002,7.665732176357036,0.0789196155054218
6.444368000000004,7.694789091881006,0.0785349077406543
6.446768000000006,7.715837604419308,0.0782066352109614
6.449156000000002,7.7346044769574736,0.0779063346655159
6.451536000000004,7.744571550577053,0.0776599382685855
6.453932000000002,7.75654072494305,0.077400337379596
6.456320000000005,7.764785237069933,0.0771579499571844
6.4587,7.77116741807726,0.0769241751406368
6.461100000000002,7.777549599084586,0.0766922021995691
6.463488000000005,7.776854542666024,0.076508966901214
6.465868,7.773365989568127,0.07633605543675
6.468264000000005,7.7661527742311165,0.0761776031951046
6.470652000000001,7.7560062925879105,0.0760350647477534
6.4730360000000005,7.748141450944841,0.075868920741808
6.475432000000005,7.743209875607967,0.0756873694230154
6.477820000000001,7.738418069897953,0.0755000946838886
6.4802040000000005,7.734417660120859,0.0753147216133434
6.482600000000005,7.731767724784122,0.0751088318747123
6.484988000000001,7.7313994294475235,0.0748796261151469
6.487372000000001,7.730239738178007,0.0746476780141027
6.489768000000005,7.725075845415657,0.074438724820702
6.492156000000001,7.720982887839944,0.0742207001993466
6.494536000000004,7.721173671010786,0.0739661791000206
6.496932000000001,7.72057305824871,0.0737088437065426
6.499324000000001,7.723836877352606,0.0734321377292577
6.501704000000004,7.724167430150309,0.07317040641463
6.504100000000001,7.721285177388095,0.0729345760032439
6.5064920000000015,7.721196421305217,0.0726905922779008
6.508876000000001,7.716451837423446,0.0724615527187653
6.511279999999999,7.713429815034372,0.0722312366106202
6.513672,7.713620598205214,0.0719744295569066
6.516052000000002,7.712600676562556,0.0717320375026231
6.518452000000004,7.712511920479678,0.0714865591084809
6.52084,7.706277092530689,0.071281797691825
6.523220000000002,7.699111099021922,0.0710804801872017
6.525620000000004,7.692736501446072,0.0708822316544924
6.528008,7.689295170176417,0.070670195785672
6.530388000000002,7.684223825212683,0.0704892252401378
6.532788000000004,7.677662236181731,0.0703339015584695
6.535176,7.673102747897194,0.070167462541642
6.537556000000002,7.677203288904383,0.0699661561412152
6.539952,7.684237096217768,0.0697525587629278
6.542344,7.694064400210488,0.0695327517810184
6.544724000000002,7.703891704203207,0.0693127968573646
6.54712,7.715721108942343,0.0690834650203135
6.549512,7.73369658554759,0.0688187828118943
6.551892000000002,7.7567471988323105,0.0685255439031208
6.554292000000004,7.775793610624196,0.0682545398616887
6.55668,7.796934670961115,0.0680032620898076
6.559060000000002,7.822359472044589,0.0677219682478507
6.561456,7.844291928314426,0.0674756247445762
6.563844000000003,7.865153449397624,0.0672362960667976
6.566224000000005,7.886946136040602,0.0669957758065294
6.568620000000003,7.910461384176276,0.0667550012971615
6.571007999999999,7.932765927498451,0.0665288073841891
6.5733920000000055,7.953068370074209,0.0663132638113913
6.575788000000003,7.973510582276827,0.0660943570807951
6.578175999999999,7.996234434479582,0.0658547201006475
6.580556000000001,8.020308761122697,0.0655973674154005
6.582956000000003,8.043451922206033,0.0653437781706434
6.585343999999999,8.058726449930562,0.0651245986458692
6.587728000000006,8.070927941722037,0.0649238543610276
6.590124000000003,8.083129433513509,0.0647253863929587
6.592511999999999,8.100126522730736,0.0645132797481248
6.594896000000006,8.114981741574685,0.0643167788877127
6.597296,8.122480183739023,0.0641659601081148
6.599684000000003,8.129978625903362,0.0640163425975883
6.602068000000003,8.134543801761506,0.063876613004411
6.604464,8.144091566500505,0.0636833145625353
6.606852000000004,8.150426525679588,0.0635121154348267
6.609236000000003,8.162116160791866,0.0633066489636102
6.611632,8.179020702210472,0.0630725930650039
6.614020000000004,8.19699617881572,0.0628333253346535
6.616404000000003,8.219395165794383,0.0625631326157818
6.6188,8.241794152773043,0.0622933103715128
6.621188000000004,8.265264074938344,0.0620169420809173
6.623572000000003,8.286731896357226,0.061750484053278
6.625972000000004,8.305266451469915,0.0614939568625435
6.628360000000001,8.322730071395963,0.0612451664023813
6.630744,8.341916252814709,0.0609999397702608
6.6331400000000045,8.36403570053965,0.0607444306401903
6.635532000000005,8.387226083451228,0.0604832169495451
6.637916000000004,8.404270394496697,0.060251415476241
6.640320000000003,8.412514906623581,0.0600477679643947
