Time,Force,Position
5.866607999999999,1.7923509153554371,0.1655643489489715
5.869007999999999,1.8009637228189197,0.1651759868968485
5.871395999999999,1.81064746546904,0.1647171788896514
5.873792,1.824335409611994,0.1639743861888279
5.876187999999999,1.8378835841280885,0.1632781665036493
5.878576000000001,1.852362924203961,0.1625367011054344
5.88096,1.8731281057728044,0.1613123998522505
5.883355999999999,1.8872353587963395,0.1604772699871898
5.885743999999999,1.903624251820012,0.1594212667776586
5.888124,1.917079878537489,0.158540392704706
5.89052,1.929604339695188,0.157708525464591
5.892908,1.9370536641734144,0.1572542881093616
5.895292,1.94599323271886,0.1566383355650233
5.8976880000000005,1.954281174958248,0.1560011768144173
5.900076,1.9649433049963905,0.1552794712892525
5.90246,1.977048457273508,0.1545319330299022
5.928744,2.0005561219777053,0.1539982274991273
5.9311240000000005,2.0041410145899583,0.1538453016334725
5.988484,2.1081273718791094,0.153739529101851
5.990888,2.114411317514211,0.1537354516799391
5.993271999999999,2.126841335015424,0.1533977653272298
5.995656,2.14355509326319,0.1528222223323842
5.998052,2.165343988190429,0.1520009955194258
6.0004360000000005,2.194210120543557,0.1508719811813977
6.00282,2.228942785509075,0.1494607692226535
6.005224,2.2628840545416757,0.1480632166804734
6.007607999999999,2.296965093201136,0.1466381828703097
6.009988,2.330394505554538,0.1452242186388081
6.012392,2.366105557908078,0.1436268503894427
6.014776,2.4003735880226422,0.1420332175253077
6.0171600000000005,2.428775085524815,0.1407130880955703
6.019551999999999,2.455034712653711,0.1395281970426141
6.021939999999999,2.481434109409468,0.1383169217933719
6.02432,2.5034099957918103,0.137370286132446
6.026716,2.530972875532823,0.136188039849097
6.0291,2.553740157848083,0.1352256344118931
6.03148,2.5778579146037024,0.1341826583197617
6.0338840000000005,2.599833800986045,0.1332726996019697
6.062552,2.622687943526314,0.1332112704801692
6.064935999999999,2.627296549496963,0.1331772533373006
6.067316,2.6333953995348303,0.1330382862229813
6.06972,2.6404254151324764,0.1328724473971655
6.072104,2.651739171476677,0.1325153379191394
6.074484,2.6574659344622065,0.1323263495618927
6.076879999999999,2.6673366685674305,0.1319668004522481
6.079267999999999,2.677859028978713,0.1316306584142842
6.081664,2.6863792886435776,0.1313621193180832
6.084059999999999,2.690755577188749,0.1312606317024897
6.086444,2.7003467720402523,0.130938089330228
6.088824000000001,2.7116605283844524,0.1305700362654299
6.129452000000001,2.724368189281516,0.1305195488349316
6.134236,2.728464938572966,0.1304609061311221
6.136623999999999,2.730746578573103,0.1303535377165975
6.139004,2.7379635856258524,0.130083510941979
6.141408,2.749976190104354,0.1296654641270919
6.143796,2.761057629023077,0.1292727407055301
6.1461760000000005,2.7704165064491035,0.1289125107811721
6.148572,2.7847107509277422,0.1283866595685537
6.15096,2.800308248018496,0.1278908031102981
6.15334,2.822051816975361,0.127147250788411
6.155744,2.843655616305366,0.1264292953800032
6.158132,2.871125948247761,0.1255374752801761
6.160512000000001,2.893660913137544,0.1248273720381571
6.162908,2.9109809717209942,0.1243075023561318
6.165296,2.926438699184888,0.1238377755709731
6.167676,2.9391029299694464,0.1234519591318858
6.170071999999999,2.9568422974334783,0.122895533595279
6.172459999999999,2.97514074340495,0.1222685774950299
6.17484,2.996232686055757,0.1215645009084455
6.177236000000001,3.0133204272137304,0.1210091477419533
6.179624,3.0305479379985645,0.1204501238447716
6.182003999999999,3.0533624421420686,0.1197709431337676
6.184408,3.0737555366585743,0.1192069575231384
6.186795999999999,3.0890734944956075,0.1188103578265077
6.189176,3.1082558841986154,0.1183356066719584
6.19158,3.1291608353943188,0.1178368607821974
6.193968,3.1509969521498005,0.1173144500398015
6.196348,3.1713900466663065,0.1168003113590047
6.198744,3.193133615623171,0.1162346329213211
6.201131999999999,3.215016954206896,0.1156631328370013
6.203512,3.238530306484701,0.1150088399146925
6.205907999999999,3.256456665403836,0.1144787518950185
6.208295999999999,3.2733120891363314,0.1139737901080058
6.210675999999999,3.294591023242242,0.1133113983247381
6.21308,3.317080662161651,0.1125988587404375
6.215468,3.3411530929468967,0.111886150471762
6.217848,3.3620127181722266,0.111284998922658
6.220248,3.383244430449894,0.1107287373291257
6.222636,3.4006117108615874,0.1102542248264517
6.225016,3.417047825713503,0.1097957809533972
6.268027999999999,3.382647609403556,0.109526489005117
6.270432,3.381623896045161,0.1094733313372643
6.272816000000001,3.3847441538064587,0.1093158417052265
6.275195999999999,3.384651606007842,0.1092474296823207
6.277592,3.3927072308217525,0.1089836037284874
6.279976,3.4039756611955787,0.1086394784776055
6.282356,3.417246192315821,0.108251924317914
6.284751999999999,3.435172551234956,0.1077785818699775
6.287136,3.4512365790345343,0.1073363681352248
6.289528000000001,3.461434074221722,0.1070152878353383
6.291931999999999,3.474285296461384,0.1066626384557745
6.294319999999999,3.4871365187010457,0.1063056303386901
6.296695999999999,3.501058676127347,0.1059163848606114
6.299104,3.5143292072475907,0.105516321860083
6.301487999999999,3.528530903927612,0.1050936345624652
6.303868,3.539799334301438,0.1047398132256606
6.3062640000000005,3.548786124675127,0.1044624451747713
6.308652,3.5637792172880665,0.1040527973587863
6.311031999999999,3.58277651139384,0.1035510145243028
6.313428,3.6005631006861143,0.1031005622369652
6.315811999999999,3.6188615466575857,0.1026848095668753
6.318208,3.6335751000168046,0.1023242631704625
6.320604,3.647077948562525,0.1020140529759716
6.322991999999999,3.661511962668024,0.1016874247573647
6.325367999999999,3.673664336773385,0.1014344784841169
6.327772,3.681532970132192,0.1012910209252381
6.330159999999999,3.6873995027445834,0.1011869215990686
6.33254,3.695128366476529,0.1010578889953047
6.334932,3.704999100581754,0.1008780983140512
6.337316,3.722738468045785,0.1005600612668967
6.3397120000000005,3.736101546964645,0.1002791505479963
6.4042200000000005,3.7647334660344254,0.1000085814632605
6.406623999999999,3.765804401221065,0.0999849125972831
6.409008,3.768737667527261,0.0999387966509058
6.4113880000000005,3.7810298112594816,0.0997035941448312
6.413791999999999,3.793881033499144,0.0994187097760612
6.416180000000001,3.813018097231777,0.0989991293252812
6.418559999999999,3.83187562171069,0.0986055945495447
6.420959999999999,3.852875016562881,0.0981640001511656
6.423347999999999,3.877459304027324,0.0976922019027245
6.425727999999999,3.900600569252791,0.0972133798578177
6.428132,3.9201569418660047,0.0967656579034701
6.430515999999999,3.93906168817316,0.0963052403426808
6.432896,3.961179240040232,0.0957727844566421
6.4352920000000005,3.981574230414607,0.0952557095631035
6.437676,4.000618746348623,0.0947887179048917
6.440056,4.023667463775474,0.0942541243217816
6.4424600000000005,4.044341993403569,0.093714491915012
6.444848,4.066087458218304,0.0931597796084532
6.447224,4.086761987846399,0.0926287344712815
6.449628000000001,4.1030602289293245,0.0921317907046611
6.452016,4.119218700385388,0.0916591847154058
6.454395999999999,4.128951560721621,0.0913176462253395
6.456799999999999,4.130955557325907,0.091080105236418
6.4591840000000005,4.130538144303196,0.0909126213213991
6.461563999999999,4.130120731280484,0.0907452291898547
6.46396,4.129563548630913,0.0905909570373253
6.466343999999999,4.132219171541258,0.0903746100670997
6.468724,4.1380876000115165,0.0901000874416681
6.471128,4.140650675123244,0.0898310608938301
6.473516,4.14279444135439,0.0895958244435684
6.4758960000000005,4.152527301690623,0.0892796716373757
6.478299999999999,4.164681571653853,0.0889053759529661
6.480688000000001,4.175764906430445,0.0885530172065125
6.483067999999999,4.188570802699734,0.088196783534944
6.485467999999999,4.203518569342299,0.0878040184708254
6.487855999999999,4.217255631171366,0.0874454138007414
6.490236,4.235788290426184,0.0870373879750036
6.49264,4.254181180054142,0.086646500355623
6.495028,4.276438501548074,0.0862175365478769
6.497408,4.303211881214038,0.0857632058483172
6.499812,4.327843390506724,0.0853520698242131
6.502196,4.358481202038661,0.0848598694267184
6.504576,4.401643474728297,0.0842374234243684
6.50698,4.44587668260457,0.0836041758818303
6.509364,4.4887594160404864,0.0830066624452045
6.511744,4.530710983916624,0.0824250652159519
6.514151999999999,4.568378811046206,0.0819205048835237
6.516536,4.596687760749761,0.0815536686797403
6.518915999999999,4.623366696759239,0.0812426687338679
6.521319999999999,4.651116567955354,0.0809158529441788
6.523707999999999,4.672999906539079,0.0806583022700901
6.526088,4.693393001055585,0.0804526283070943
6.528484000000001,4.714717261131869,0.080241796147919
6.5308720000000005,4.736460830088735,0.0800058634687599
6.533248,4.755410902366264,0.0797917502014423
6.535651999999999,4.772778182777959,0.0795721327558788
6.5380400000000005,4.788003592816375,0.0793884254082242
6.540419999999999,4.799364570988819,0.0792404571236676
6.542824,4.807652513228207,0.0791324984763372
6.545211999999999,4.811144858041843,0.0790658286892257
6.5547640000000005,4.794757860876038,0.0790321090745631
6.55716,4.789637398226192,0.0789794173123418
6.559548,4.78251483482993,0.0789474343169285
6.561928,4.775532041060526,0.0789062809428203
6.564323999999999,4.778699520650069,0.0787509562126612
6.566708,4.788152841732583,0.0785153489596214
6.569087999999999,4.79453312688204,0.0783151752219451
6.571479999999999,4.801053181658356,0.0781048997791104
6.573864,4.805710905315117,0.07790623176548
6.576243999999999,4.8112997945316565,0.0777034705040568
6.578647999999999,4.809531907068586,0.0775956945991728
6.581032,4.808555415538433,0.0774913291002796
6.583411999999999,4.811443355874254,0.0773556453305266
6.585808,4.8126087347173785,0.077221965763172
6.588191999999999,4.8154966750532,0.0770856902091062
6.590588,4.822388816881855,0.0769101360429431
6.592984,4.830212124270289,0.076727719356697
6.595371999999999,4.837895662031862,0.0765539558330597
6.597747999999999,4.849071544607072,0.0763191842415935
6.600156,4.866393499048392,0.0760173479582194
6.602539999999999,4.87850054718338,0.0757794429491773
6.60492,4.88739478975845,0.0755869089109171
6.607324,4.896428801960384,0.0753844685010143
6.609708,4.909606785282008,0.0751354596758168
6.612088,4.915847300804606,0.0749519675471513
6.614483999999999,4.916081514087953,0.0748266454257206
6.616871999999999,4.92260156886427,0.0746278349965786
6.619252,4.931775350693061,0.0744240368138505
6.621656,4.940017966962076,0.0742237206606626
6.624039999999999,4.945467086551754,0.0740388088881358
6.62642,4.959483687634541,0.0737425548914419
6.628819999999999,4.974710993530827,0.0734248952511444
6.631204,4.98458362349392,0.0731769725800381
6.633588,4.994456253457014,0.072928424726567
6.6359840000000005,5.007681458606884,0.0726323540326537
6.638368,5.013317569651666,0.0723831071697981
6.640768,5.02509975256256,0.0720744789826093
6.643167999999999,5.037813101033231,0.0717606633034382
6.645552,5.044380377637791,0.0715098824082274
6.647931999999999,5.044801582376241,0.0713217237271349
6.650335999999999,5.050297923794163,0.0710854564915898
6.652723999999999,5.059798466704919,0.0708165033079415
6.655104,5.071301110362092,0.0705312162445714
6.657508,5.078799552526431,0.0702818322588507
6.659891999999999,5.0873689298774085,0.0700183060619402
6.662276,5.099151112788301,0.0697166104497708
6.664667999999999,5.10664955495264,0.0694687854737659
6.6670560000000005,5.111634039691364,0.0692163634480609
6.669435999999999,5.123975301109699,0.0688890807988141
6.67184,5.136316562528032,0.068561018210224
6.674227999999999,5.147027810252287,0.068283487884706
6.676608,5.158809993163181,0.0679970551922631
6.679003999999999,5.175015686447488,0.0676552330906923
6.681388,5.195225581224629,0.0672859896754917
6.683771999999999,5.210639878576019,0.0669444556257324
6.686168,5.231780938912938,0.0665744650745513
6.688552,5.24477382663733,0.0662742803861607
6.690936000000001,5.261259059175358,0.0659271562640434
6.693327999999999,5.285612925072193,0.065533611695781
6.695712,5.309827021342167,0.0651444543360612
6.698108,5.330968081679087,0.0647826725517696
6.7005040000000005,5.345963070149895,0.0644725736404656
6.702892,5.355882921941232,0.0642006342998219
6.705271999999999,5.368456500785042,0.0639286266434581
6.707668,5.384894511494826,0.0636386003728143
6.710051999999999,5.402775544443587,0.0633703909569226
6.712436,5.418794246272791,0.0631068156186703
6.714832,5.4385376103411085,0.0628343476584973
6.7172160000000005,5.448502788102819,0.0626682059616411
6.719616,5.460190527357227,0.0625048115423316
6.722011999999999,5.471226640305575,0.0623296139508698
6.724399999999999,5.475976911760952,0.0622098664801141
6.726775999999999,5.476443442469776,0.0621327645489118
6.743516,5.457495266050117,0.0620988411526971
6.745899999999999,5.454841538997641,0.0620980297735035
6.748279999999999,5.459265049371056,0.06205000971831
6.750672,5.473559293849694,0.0619488433181545
6.75306,5.485339580902717,0.0618395878149681
6.755452,5.495257536836184,0.0617362820532934
6.757856,5.500519664970759,0.0616438322250037
6.760244,5.506852728291973,0.0615411485747159
6.762624000000001,5.50531715825438,0.0614783348734281
6.765027999999999,5.5095555730305605,0.0613425919358506
6.767412,5.512211195940905,0.0611958503419327
6.769791999999999,5.511933552545054,0.0610630847521791
6.772195999999999,5.517010585082396,0.0608803425053188
6.774583999999999,5.5254401928065136,0.0606601559071631
6.776959999999999,5.531216073478157,0.0604382132120149
6.779368,5.532196356724047,0.0602341614795298
6.781751999999999,5.536529215156713,0.0599934146525207
6.784132,5.5443544184030165,0.0597087588056251
6.786536,5.552598930529899,0.0594014543373621
6.788924,5.564987413776476,0.0590621049254209
6.7913,5.570158889970302,0.0587775051801918
6.793699999999999,5.576401301350769,0.0584843437851781
6.7960840000000005,5.577708345678625,0.0582173097472053
6.798468,5.570355360714753,0.0579820675021815
6.800863999999999,5.5637937716838,0.0577522634139546
6.8032520000000005,5.555369851533291,0.0575254854278787
6.805631999999999,5.548948032129199,0.0572872301643553
6.808028,5.545599248658161,0.057029615990125
6.810412,5.55132980335943,0.0567204950788858
6.8127960000000005,5.558643149926534,0.0564265155355436
6.815199999999999,5.568749993172975,0.0561296470046938
6.817584,5.581790102725608,0.055821454251157
6.819967999999999,5.595621608211162,0.0555222323124764
6.822372,5.607311243323438,0.055241184530512
6.824755999999999,5.621142748808992,0.0549429525951008
6.82714,5.641911722093573,0.0546159657746373
6.829532,5.658536724258461,0.0543164936436053
6.83192,5.675021956796489,0.0540283642437224
6.834304,5.6930899812003535,0.0537549426839136
6.8367,5.710226840044439,0.0534840483692095
6.839084,5.729226030008081,0.0532104351561093
6.841467999999999,5.748225219971724,0.0529389750008066
6.843864,5.768155575495144,0.0526668325963924
6.846252,5.794883629190734,0.0523765659100459
6.848632,5.822682618072961,0.0520800784681591
6.851028,5.848339736581912,0.0517982669549104
6.8534120000000005,5.875207559904362,0.0515034329248877
6.855791999999999,5.897931412107117,0.0512339215950312
6.858196,5.9157198972572616,0.0509848658109176
6.860583999999999,5.925639749048597,0.0507609723930116
6.862964,5.934628435280156,0.0505393575568726
6.865359999999999,5.941335481511577,0.0503400569265238
6.867748000000001,5.944038326250164,0.0501569142303997
6.870144,5.949534667668086,0.0499729594254463
