Time,Force,Position
8.805464,1.157360916143391,0.1717223134777291
8.807851999999997,1.1824041508851808,0.1709306260644335
8.810235999999996,1.206144133014855,0.1701295240861565
8.812632,1.2280690058532155,0.1693082632574166
8.815019999999997,1.245664811974648,0.1686279617559596
8.8174,1.2601422561926512,0.1679551673255455
8.819795999999997,1.2725722736938636,0.1671000525752942
8.822187999999997,1.2846302041427384,0.166214869509113
8.824568,1.2926839330987796,0.1658037030992603
8.826968,1.3019483668683198,0.1652358000126086
8.829355999999997,1.3088386128391056,0.1647617306982785
8.831736,1.322945865862641,0.1635740726459345
8.834139999999998,1.3346317092591786,0.1627569354825672
8.836528000000001,1.346829409334914,0.1620031908722534
8.838907999999996,1.3610292101570662,0.1609934489240775
8.841311999999995,1.3721559750461625,0.1603166854314402
8.843699999999998,1.3882181069878714,0.1591512517553063
8.84608,1.4053511741162186,0.1578772834631589
8.848484,1.4249056508715632,0.1563215330361738
8.850871999999995,1.4440408187463272,0.1549357893351509
8.853251999999998,1.4595910940088384,0.1538394709758645
8.855647999999995,1.4718360159128163,0.1529257646735102
8.858035999999998,1.4835690811375974,0.1519644251666911
8.860419999999998,1.4934398152428214,0.1511325938164095
8.862815999999995,1.5033105493480454,0.1502734485210802
8.865203999999999,1.512110348266631,0.1495365895770377
8.867579999999997,1.5215617734912743,0.1488232029408566
8.903424000000001,1.5674570500269167,0.1487851856553122
8.905823999999996,1.5749517004755176,0.1486754923232875
8.908211999999999,1.5861710131632314,0.1483563322666626
8.910592000000001,1.6012547577169187,0.1478028542169308
8.912996,1.614336401524189,0.1473711039536253
8.915379999999999,1.6263471101448208,0.1470291033684167
8.917760000000001,1.639149214698371,0.1466515156688876
8.920164,1.6525103977593618,0.1461562376131827
8.922547999999999,1.667222055260711,0.1455303728604483
8.924928000000001,1.6803509208962248,0.1449786898235596
8.927323999999999,1.7002774847039068,0.1440030014347721
8.929707999999998,1.717270782205394,0.1431717755244452
8.932088,1.7358468715727169,0.1423027909267955
9.027676,1.9928842381340728,0.1422347560223844
9.030063999999996,2.00168214119479,0.1421896893819658
9.032443999999998,2.014996102427537,0.1419606473700799
9.034839999999996,2.0269595892199264,0.1418515695644877
9.037228,2.0412047160124525,0.141589477803668
9.039608,2.062806619484588,0.1409165433413929
9.042004,2.087481558889779,0.1400650663209506
9.044391999999997,2.1102941671754127,0.1393092907502526
9.046771999999995,2.1352486458343245,0.1384167680876377
9.049175999999996,2.1536849655747874,0.1378077262969923
9.051564,2.1696073278896355,0.1372556116269622
9.053944,2.1887424957644,0.1365395647436684
9.056343999999996,2.210950699572219,0.1356453380731951
9.058732,2.2340900689398167,0.1347136348112824
9.061112,2.2533650064414408,0.133990787623881
9.063508,2.27678391506276,0.1330942915473639
9.065895999999997,2.2961986221912447,0.1323818303692904
9.068275999999996,2.310817731893977,0.1318633783847252
9.070679999999996,2.3259486982759072,0.1313823724919288
9.12086,2.431385661235512,0.1306997174317762
9.123244,2.435063101646381,0.1306974974297149
9.125623999999997,2.4423254346695047,0.130601157738835
9.128028,2.449727537319488,0.1304849483977929
9.130415999999997,2.457269409596332,0.1303515977343075
9.132796,2.466533843365872,0.1301842179575125
9.135199999999998,2.4845055282553803,0.1296153457914724
9.137583999999997,2.5055502490779444,0.1289223554591859
9.139964,2.527945444340867,0.1281331468848439
9.142367999999998,2.543542941431621,0.1275692661533705
9.144756,2.559792064828433,0.127017869609731
9.147135999999996,2.574178857105689,0.1265217361721245
9.149532,2.585632383076749,0.1261239908544331
9.151919999999995,2.5942924123684743,0.1258177558274103
9.228375999999995,2.6112365921838494,0.1256581663768952
9.230764,2.6129138277061714,0.1254158066106161
9.233143999999996,2.610726631362521,0.1253084065345338
9.23554,2.6119845580042638,0.1251299703432195
9.237927999999997,2.6108210750190075,0.1250864837892446
9.240311999999996,2.61058875759353,0.1250172987970125
9.242716,2.6092855049814143,0.1249926049617992
9.247479999999996,2.6097048138619945,0.1249358277746953
9.249884000000002,2.617433677593941,0.1247075864537116
9.252271999999998,2.631029073938279,0.1242983431398912
9.254652,2.6446244702826163,0.1238991082464616
9.257052000000002,2.663295003306425,0.1233326497168243
9.259436,2.686481594502266,0.122660726707289
9.26182,2.7118100560713843,0.1219046101419788
9.264215999999998,2.738209452827141,0.1211034854726616
9.266604,2.765679784769536,0.1202628545028125
9.268983999999996,2.7991564189511817,0.1192297371935736
9.27138,2.832772822759688,0.1181809837029743
9.273767999999995,2.863176421008278,0.1172512047371564
9.276148,2.89250908407023,0.116386922801184
9.278543999999997,2.919699876758904,0.1156148650554625
9.280932,2.9506153316866923,0.1147505389133968
9.283311999999995,2.977154498069309,0.1139795814311902
9.285711999999997,3.0038334340787856,0.1131981502244395
9.2881,3.027159794901487,0.1125646861400612
9.290479999999995,3.0514173212839664,0.1119133683325643
9.292879999999997,3.0756748476664457,0.1112696561206331
9.295268,3.100072143675785,0.1106113538967991
9.297647999999995,3.114179396699321,0.1102872423573179
9.300044,3.123351282670244,0.1101005197067945
9.302431999999996,3.1325231686411668,0.1099185071117199
9.304811999999998,3.141555284985229,0.1097609304748489
9.307207999999996,3.155010911702707,0.1094630790483198
9.309596,3.1703288695397407,0.1091381677200608
9.311996,3.1881607848023887,0.1087971821842389
9.314388,3.2077152615577336,0.1084439707905757
9.316775999999996,3.225779494245858,0.1081779430274536
9.319156,3.247428619546238,0.1078699672485827
9.321559999999998,3.2730819463394507,0.1074662283484083
9.323948,3.2975245683191634,0.1071099992111363
9.326327999999997,3.322526268806318,0.1066980108964443
9.328724,3.343663537427499,0.1063632032801199
9.331108,3.366523367541377,0.1060121585013952
9.333492,3.389383197655254,0.1056651615020598
9.335887999999995,3.410520466276435,0.1053282587648218
9.338276,3.4335200660171723,0.1049675653815222
9.340655999999996,3.457450831317688,0.1045974570519989
9.343052,3.4805902006852865,0.1042294966762968
9.38606,3.5814242452478497,0.1038609686665243
9.388447999999997,3.5815640148747097,0.1038478728951527
9.390828,3.5818435541284304,0.1038217011949792
9.395612,3.580819840770035,0.1037698953421216
9.398007999999995,3.58566266002403,0.1036146304746319
9.400408,3.593997824091661,0.1033570676717824
9.402795999999997,3.61062093039868,0.1029102530441782
9.405175999999996,3.6285945111460567,0.1024080908718475
9.407579999999996,3.647639027080073,0.1018781522768683
9.409968,3.668965183014227,0.1012910371248925
9.412348,3.6893601733886014,0.1007149747337279
9.414744,3.711245407830196,0.1000559703666607
9.417131999999995,3.7329908726449306,0.0994183805915274
9.419511999999996,3.754224480780468,0.0987649351531019
9.421907999999997,3.767868994810917,0.0982292376155342
9.424295999999998,3.7793716384680898,0.0977503852611658
9.426679999999998,3.788220555072788,0.0972962906239606
9.429071999999998,3.791994334998013,0.096944894644247
9.43146,3.8016346475356286,0.0964977869584688
9.433844,3.81378891749886,0.0960414308931495
9.436239999999998,3.81979711559598,0.0957112644055215
9.438628,3.828738579999295,0.0953363992900403
9.441007999999997,3.83781981402947,0.0949527016600764
9.443404,3.8502536232464206,0.0944890873185186
9.445791999999996,3.8573327565301794,0.094147520404836
9.448188000000002,3.863201185000439,0.0938459196503834
9.450584,3.86799867828406,0.0935707437293699
9.452967999999998,3.872796171567681,0.0932960600802466
9.455351999999998,3.879595765597719,0.0929905568402267
9.457747999999995,3.8819718492543434,0.0927875829190425
9.460132000000002,3.887281199217161,0.0925422454987667
9.462516,3.900039873658206,0.0922178314643822
9.46492,3.9126587784723914,0.0919078176933894
9.467307999999996,3.922996043286439,0.0916543622741366
9.469687999999998,3.941341711086154,0.0912753397081046
9.472083999999995,3.9596873788858695,0.0908963171420725
9.474475999999996,3.982688874484476,0.0904705340593836
9.476855999999998,4.008623636389277,0.0899971044533232
9.479259999999996,4.025339290494914,0.0896861226471724
9.481648,4.037119577547937,0.0894466172093902
9.484027999999997,4.050762195720519,0.0891821674157627
9.486432,4.061331777960044,0.0889754921787904
9.527035999999995,4.073761795461257,0.0889190766541944
9.52944,4.080839032887146,0.0888131090995272
9.531824,4.089918371059452,0.0886781411384363
9.534203999999995,4.0991374788586175,0.0885323373940938
9.536608,4.107145881844285,0.0884179996430063
9.538995999999996,4.117435924830089,0.0882531818843348
9.541376,4.128796903002533,0.0880695392129252
9.543779999999998,4.141740673040811,0.0878885043100218
9.546168000000002,4.157617709385287,0.0876711810230635
9.548547999999997,4.177638716849455,0.0873914320131445
9.550944,4.195145766888008,0.0871144160920333
9.553331999999996,4.215074226553561,0.086779724557216
9.555712,4.23593385177889,0.0864353756421
9.558107999999995,4.253348354018827,0.0861042623459884
9.560496,4.267829589952569,0.0858089401852403
9.562875999999996,4.285523631446226,0.0854570769917744
9.565272,4.300284406633689,0.0851378327014001
9.567659999999997,4.311832376261235,0.0848783388208366
9.57004,4.322449180329004,0.084628754279943
9.572443999999996,4.329061782903938,0.0844332066545219
9.574832,4.338235564732731,0.0841706346666875
9.577211999999996,4.344336310628467,0.0839578927357087
9.579608,4.351787530964563,0.0837081017253651
9.581995999999997,4.359238751300659,0.0834588348079409
9.584376,4.367109280517336,0.0831781478643182
9.586784000000002,4.371906773800957,0.0829411349582004
9.589168,4.3757731015248,0.0827125782845145
9.591552,4.383271543689139,0.0824013226019646
9.593947999999996,4.388116258801003,0.0821030045609568
9.596336,4.387094441300477,0.0818699920782312
9.598715999999996,4.391799386785481,0.0815861912409182
9.601120000000002,4.395293627456986,0.0813322480732511
9.603507999999998,4.39999857294199,0.0810522641255794
9.605888,4.407217475852608,0.0807722550833842
9.608283999999998,4.419511515442698,0.080430409445184
9.610672,4.433667886152347,0.0800825926536262
9.613051999999996,4.452759623914605,0.0796818899922874
9.615448,4.472130900930585,0.0792589422322484
9.617835999999995,4.490291473133067,0.078861438372637
9.620216,4.513387412388161,0.0784099999229037
9.622611999999997,4.53070936682948,0.078073736371589
9.625,4.548171090897659,0.0777308279103613
9.627379999999995,4.56535327571212,0.0774132886949616
9.629779999999997,4.582255921272859,0.077115452406234
9.632163999999996,4.601812293886073,0.076813248807381
9.634543999999998,4.626164263925039,0.076472870705231
9.636939999999996,4.652518334710422,0.0761148802138512
9.639328,4.673517729562611,0.0758370123781762
9.641723999999996,4.695168750720859,0.0755729582447249
9.644127999999997,4.719333729304721,0.0753102083654865
9.646515999999998,4.737632175276193,0.0751034500526501
9.648896,4.755790851620804,0.0749079588686396
9.651291999999998,4.774880693525196,0.0747105273950975
9.65368,4.793039369869808,0.0745191114694175
9.656059999999997,4.80998734140092,0.0743561241297227
9.658459999999998,4.824002046625838,0.0742211090400191
9.660848,4.838947917410534,0.0740837843181914
9.663227999999997,4.857478680807484,0.0739372159311494
9.665624,4.879082480137489,0.0737584115918234
9.668011999999996,4.899755113907715,0.0735869082981886
9.670392,4.930997329917467,0.0732934277645483
9.672792,4.963030941860136,0.073008609523206
9.675179999999996,4.991200121936832,0.072751370303828
9.67756,5.016575805334194,0.0725045875183514
9.679963999999998,5.039297761679079,0.0722660565073782
9.682352000000002,5.057224120598215,0.0720596109178329
9.684731999999997,5.07366023545013,0.0718940283265792
9.687135999999995,5.095311256608378,0.0716730838254183
9.689524,5.121897644819238,0.0714174680848952
9.691904,5.147972176350901,0.0711414836498629
9.694299999999998,5.178050909375397,0.0708325543369463
9.696688000000002,5.204544749787639,0.070530833971194
9.699067999999995,5.228756950199744,0.0702651873709959
9.701464,5.255250790611988,0.0699685669175799
9.703851999999998,5.278019968785117,0.0696891392763074
9.706232,5.299857981398468,0.0694152696396479
9.708627999999996,5.317179935839788,0.0691544598821538
9.711019999999998,5.335060968788548,0.0688652124061199
9.7134,5.352150605804391,0.0685743405786719
9.715795999999996,5.372453048380149,0.068253098300899
9.718179999999997,5.378740785730989,0.0680400535968077
9.720563999999996,5.378370594536521,0.0678580809755825
9.72296,5.381213208901968,0.0676412745790545
9.725347999999997,5.391412599947026,0.0673531890002038
9.727731999999996,5.402543156551861,0.0670633110822806
9.730128,5.4138134827835565,0.0667632287302512
9.732512,5.425270800470355,0.066402989922569
9.734896,5.434586247783877,0.0660689143900929
9.737291999999997,5.435381435432533,0.0657716993636865
9.73968,5.437247558267829,0.0654644931708363
9.742075999999996,5.438322285170206,0.0651543710465737
9.744472000000002,5.444192609498334,0.0648218844324954
9.746859999999998,5.451832717147401,0.0644405596119421
9.74924,5.4590535159158895,0.0640860424368665
9.751635999999998,5.467996876177074,0.06373287198697
9.754024,5.471073703825868,0.0634082241727339
9.756408,5.475733323340499,0.0630930930781459
9.758807999999997,5.472524309496321,0.0628229292084789
9.761192,5.465590633413031,0.0625625015160843
9.763571999999996,5.453581820650268,0.0623395177892742
9.765975999999997,5.450372806806091,0.062068681320402
9.768363999999998,5.453961491134084,0.06176267963072
9.770744,5.455408305088797,0.061478136929415
9.773139999999998,5.449638111990763,0.0612510967812178
9.775528,5.441726048519451,0.0610446007198087
9.777907999999996,5.440751452847167,0.0607991690477711
9.780311999999997,5.439869404973501,0.0605991406250061
9.782699999999998,5.435122925233861,0.0604151191138917
9.78508,5.431959237360059,0.0602406642180305
9.787484,5.428516010232535,0.060082539507661
9.789871999999995,5.422791143104875,0.0599522557986801
9.792251999999998,5.415064175230796,0.0598342045882952
9.794652,5.4046362584760015,0.0597667496301832
9.797039999999996,5.390902988362673,0.0596834004358441
9.799419999999998,5.378380423062844,0.0595822899902422
9.801815999999995,5.376659757428017,0.059428461832715
9.804204,5.375218631046911,0.0592591118028012
9.806584,5.380295663584252,0.0590756959857092
9.808979999999998,5.388957588733845,0.0588923195737332
9.811368000000002,5.396688348323661,0.0587101142412581
9.813747999999997,5.399343971234004,0.058561133222896
9.816151999999995,5.399066327838153,0.0584258226556869
9.81854,5.401582181121637,0.0582855467575236
9.82092,5.4108957325772895,0.0581180469294167
9.823315999999998,5.422211384779359,0.0579395187904744
9.825699999999998,5.4283121306750965,0.0578023955382116
9.828083999999995,5.4304086750780005,0.0576866192629056
9.83048,5.436369651346878,0.0575561081180267
9.832867999999998,5.448476699481865,0.0573857010584858
9.835251999999995,5.456439776497158,0.0572442676008336
9.837648000000002,5.464402853512452,0.0571023012897731
9.840035999999998,5.471294995341106,0.0569696488696601
9.842416,5.480608546796757,0.0568029279391998
9.844811999999996,5.491225350864527,0.0566638656307579
9.8472,5.498769118999239,0.0565452681806984
9.849584,5.5005861241484215,0.0564449428221103
9.851979999999998,5.501471963737826,0.0563460903375583
9.854368,5.5014266377674526,0.0562492250320446
9.856747999999996,5.502312477356856,0.0561515373936281
9.859147999999998,5.504920878438957,0.0560584785908204
9.861536,5.508739984334558,0.0559481877328429
9.863931999999998,5.5154923565363525,0.0558266920432236
9.866327999999996,5.521453332805229,0.0556999032575708
9.868716,5.522618711648354,0.0555878059563048
9.871099999999998,5.519919658625504,0.0554878085496106
9.873495999999996,5.518710849669875,0.0553565750683096
9.875884,5.52206532071452,0.0551749646450636
9.878267999999998,5.524628395826247,0.0549874999090433
9.880663999999996,5.524258204631779,0.0548125400394759
9.883052,5.527240588624086,0.0546036256453753
9.885436,5.535437878922726,0.0543614803884782
9.887831999999996,5.546708205154421,0.0541023722980836
9.890215999999995,5.560632258438591,0.0538512494734736
9.892595999999998,5.578048656536398,0.053563089396776
9.894991999999997,5.597467155380621,0.0532652151635488
9.897379999999998,5.611810517545372,0.0529904690966392
9.89976,5.628947376389458,0.0527148553997751
9.902155999999998,5.643150968927349,0.0524487843419981
9.904544,5.653629899226126,0.0521862121958243
9.906923999999997,5.664388368778624,0.051909300376186
9.909323999999998,5.674215672771343,0.0516320923832987
9.911707999999996,5.67910760971145,0.0513729973284672
9.914104000000002,5.684139316278418,0.0511080538676361
9.9165,5.690381727658885,0.0508279168088868
9.918892,5.701699275718823,0.0505230270654018
9.921271999999997,5.708453543778488,0.0502638648627927
9.923668,5.711715467024516,0.0500430139395977
9.926052,5.71697949101696,0.0498152552351678
9.928432,5.718239313516571,0.0496031899559177
9.930836,5.72164100638946,0.0493770340586215
9.933223999999996,5.718896627396236,0.0491825660449741
