Time,Force,Position
9.32678,1.0945351474931988,0.1909614085246038
9.329176,1.1122235014132482,0.1903282584946365
9.331564,1.1307504730944593,0.1894139547485334
9.333944,1.153608407350467,0.1875937334866435
9.336348,1.1692040085833522,0.1863738080763341
9.338732,1.1760470327258947,0.1860347264674734
9.341116,1.1802363298159626,0.1859384536390639
9.343508,1.1878707498914232,0.185592610635427
9.345896,1.197647040340161,0.1849562892100251
9.34828,1.2119866107891737,0.1836176040150453
9.35068,1.2242315326931517,0.1822837552899682
9.353068,1.2436934616498796,0.1799857408689076
9.355448,1.2614328291139107,0.1778393658113561
9.357844,1.2774496350852456,0.175861292821555
9.360232,1.292395505869942,0.174000687481294
9.362612,1.30464042777392,0.1726814847893455
9.365016,1.316745580051038,0.1713919228359566
9.367404,1.3328077119927468,0.1698011755761418
9.369784,1.3509644924794897,0.1682303154853568
9.37218,1.36963312964543,0.1668491305975367
9.384128,1.3996551615523367,0.1666643481550262
9.386524,1.4037046890155442,0.1666270682500636
9.388912,1.4111067916655278,0.1661838607195894
9.391292,1.4158551672630364,0.1659642992063151
9.393688,1.4252593706594368,0.1654076221871354
9.396072,1.4350356611081745,0.1649562499671336
9.398452,1.4494677793558035,0.1641672602397203
9.400852,1.4596161568568786,0.1638253665006862
9.40324,1.4722784917835687,0.1633600258678248
9.40562,1.485964540068654,0.162967163189938
9.408016,1.5016526891001558,0.1623987288510033
9.410404,1.5189708518257374,0.1615849285220531
9.412796,1.5382911152977354,0.1606102440547853
9.415192,1.5606844147027892,0.1594476283175438
9.41758,1.5802842174285077,0.1584949977221651
9.41996,1.5960195882882529,0.1578384299432741
9.422364,1.6166903262006098,0.1567871456179684
9.424752,1.6372212944861069,0.155754847597447
9.427132,1.6619887816899148,0.1545512593758883
9.429528,1.6944851326256696,0.1527971216688616
9.431916,1.726701944307704,0.1511545207642221
9.608728,2.1492599760392443,0.1502681024541854
9.611116,2.152053472718579,0.1501606801906555
9.613496,2.1584318620101666,0.1499332872977751
9.615896,2.1656016472346726,0.1496898871722001
9.61828,2.1749133028324565,0.1493262301040957
9.62066,2.189020555855992,0.1487284038757836
9.623064,2.206480384066302,0.147913633330859
9.625456,2.2278046441425863,0.1469204119682034
9.627836,2.2539245016446228,0.1457107827609576
9.630232,2.282046459893076,0.1443936506282042
9.63262,2.30881794370117,0.1432200715578378
9.635,2.335589427509264,0.1420019091917606
9.6374,2.36184905463816,0.1407837349225227
9.639784,2.3923924225136104,0.13934196522952
9.642164,2.4230755600159206,0.1378504069481917
9.644568,2.452687762331593,0.1364292820502445
9.646956,2.481368799087487,0.1350578175351984
9.649336,2.4997597928575765,0.1342602568344413
9.65174,2.51493798106775,0.133652196431328
9.654128,2.5293247733450057,0.1330666300003399
9.656508,2.536634328196372,0.1328146152022139
9.658904,2.5467373797270736,0.1324804382110071
9.661292,2.553395308272382,0.1322346353238511
9.663672,2.5594016105116326,0.1319768415575504
9.666072,2.5675497831241594,0.1316228996207826
9.668456,2.577048430177046,0.131178833906566
9.67084,2.585336372416434,0.1308113973792181
9.673236,2.5917619835362657,0.1305101183552159
9.675624,2.5923210620437063,0.1304285008226542
9.678004,2.593019910178007,0.1303274822723903
9.680404,2.5938585279391684,0.1302071841242826
9.682792,2.602705548685997,0.1297847230669793
9.685172,2.607268828686272,0.1295513749028687
9.687568,2.6094106990595485,0.1294572328796362
9.689956,2.6155567709256595,0.1292176858959977
9.692352,2.622913547605269,0.1289142496763198
9.694748,2.632132655404435,0.1285611257707546
9.697136,2.6445645687635166,0.1280584972455554
9.69952,2.658346956562957,0.1274722896756529
9.701916,2.671710035481817,0.1269453078373943
9.704304,2.690288020707009,0.1261990682891551
9.706684,2.7011371422002552,0.1257182531738513
9.709084,2.7150120777983133,0.1252236943973957
9.711472,2.7316805100757056,0.1246537979847456
9.713852,2.7451361367931826,0.1242316164028423
9.716252,2.757241289070301,0.1238955355535489
9.71864,2.771208772466976,0.1235127059840189
9.72102,2.786759047729487,0.123121279192819
9.723416,2.8093865604178867,0.122481591607295
9.725804,2.833736634598983,0.1218287652819079
9.728184,2.85822647840694,0.1211681816371618
9.730584,2.872426279229092,0.1208784705959687
9.732968,2.8954258789698293,0.1203295492779732
9.814208,3.071852366750848,0.1202134845081841
9.816604,3.073202841191207,0.1201441088293044
9.818992,3.0773468123109007,0.1200109377537081
9.821376,3.082421948990373,0.1198558514371593
9.823768,3.086985228990648,0.1196742004903272
9.826156,3.0915485089909223,0.1194948623482537
9.828536,3.095040853804558,0.1193514194199126
9.830936,3.0965310978717784,0.1192680520275455
9.833324,3.105378118618607,0.118940199126941
9.835704,3.1119434993652986,0.1187060360036394
9.8381,3.1209302897389875,0.1183744396845364
9.840484,3.13406105123237,0.1179107940204911
9.842868,3.151056244591726,0.1173457915655082
9.845264,3.165769797950945,0.1168753508997381
9.847656,3.184347783176137,0.1163150725478945
9.850036,3.20893207064058,0.1156030724627452
9.852432,3.234819610717139,0.1149143049468568
9.85482,3.253490143740949,0.1144435392324833
9.857216,3.274954173444094,0.1139310119417942
9.859616,3.300562174266932,0.1133148960854996
9.862004,3.32752064953013,0.1126469069641222
9.864388,3.3514060888602715,0.112065042357611
9.866784,3.3767817722576328,0.1114182723551927
9.869172,3.402297225281854,0.1107582259101943
9.871556,3.425391268679077,0.1101857720888612
9.873952,3.4512788087556365,0.1095784652275845
9.87634,3.478516823272554,0.1089090392885387
9.87872,3.5010990099905808,0.1083218368245773
9.88112,3.5243328230146647,0.1077570838521757
9.883508,3.547426866411888,0.1072055095898041
9.885892,3.563303902756363,0.1068410556582831
9.888288,3.582114205407034,0.1064252741593522
9.890676,3.6007847384308427,0.1060283219709265
9.89306,3.62173691145479,0.1055629217174246
9.895456,3.639243961493344,0.1051394759833638
9.897844,3.647951212613312,0.1048959355896168
9.900228,3.657217542240721,0.1045999403823723
9.902624,3.668765511868267,0.1042268215726874
9.928904,3.629242937050605,0.1041968551912057
9.931308,3.625565496639735,0.1041745918356013
9.933692,3.6271029625351976,0.1040268370898643
9.936076,3.6247759965646855,0.1039503872849584
9.93848,3.6235199657808135,0.1038473354848766
9.940864,3.620401603877384,0.1037716011245613
9.943244,3.6185864945860704,0.1037208728825605
9.945648,3.6218465219742297,0.1035628969268176
9.948036,3.625106549362388,0.1034066399354554
9.950416,3.629157972683465,0.1032497473361164
9.952812,3.638144763057155,0.1029965587981245
9.9552,3.645688531191868,0.1027288682143097
9.95758,3.657236500819414,0.1023768434382911
9.959992,3.670507031939657,0.1020177385810757
9.96238,3.683265706380702,0.1016319502027826
9.96476,3.698445790448745,0.1011662164122674
9.967152,3.708690507464176,0.1007998096911562
9.96954,3.720285698919965,0.1003812323992272
9.97192,3.72922716332328,0.0999885770225556
9.974316,3.7428244555254864,0.0995387601451746
9.976704,3.759355014033888,0.099041298780638
9.979084,3.7758855725422897,0.0985503561673216
9.981488,3.792276361423832,0.0980776850502831
9.983876,3.808527380678513,0.0976183225790878
9.986256,3.8230558384404976,0.097175852167641
9.988664,3.8382359225085407,0.0967491652259621
9.991052,3.853695545830304,0.0963007276211387
9.993432,3.8699465650849856,0.0958595825465544
9.99584,3.883124548406612,0.0954771786756965
9.998228,3.8987239413552346,0.095028478932531
10.000612,3.914742643184439,0.0945485086048299
10.003012,3.9355569424393946,0.0940054199598774
10.005396,3.956790550574931,0.0934343323663363
10.00778,3.974299496471354,0.0929107902720202
10.010184,3.994601939047112,0.0923606805854556
10.01258,4.014904381622871,0.0918172661459056
10.01496,4.037488464198765,0.0912210597443911
10.017356,4.056719971587885,0.0906980830376039
10.019744,4.077813810096562,0.0901528782661923
10.022128,4.091458324127012,0.089692639980421
10.024524,4.104311442224543,0.0892374114736441
10.026912,4.118095725881854,0.0887788633625864
10.029292,4.132950944725802,0.0883054596070056
10.031692,4.145804062823333,0.0878586424603462
10.03408,4.159588346480643,0.0874060125020063
10.036464,4.171510299018396,0.086971650165593
10.03886,4.184642956369649,0.0865115728087825
10.041248,4.195773512974483,0.0860833240753608
10.043632,4.212910371818569,0.0855737103764792
10.046028,4.228556986595436,0.0851232415732346
10.04842,4.241782191745304,0.0847343530003218
10.0508,4.253145065775617,0.0843679153748539
10.053216,4.263948861298489,0.0840479627290176
10.0556,4.276754757567777,0.0837027682870409
10.057984,4.2884897186504265,0.0833800240132659
10.06038,4.300876306039134,0.083074243373606
10.062768,4.3108414838008455,0.0828261272550637
10.065148,4.326533424548085,0.0825222998043233
10.067544,4.344879092347801,0.0822099555650449
10.069932,4.3686719838793255,0.0818642957292572
10.072312,4.393768128022968,0.0815513309186867
10.074708,4.4155116969798325,0.0813021897480516
10.077096,4.437115496309836,0.0810683983924642
10.07948,4.462723497132676,0.0807862819147912
10.081876,4.486981023515155,0.0805432505876701
10.084264,4.511890176203692,0.0803114744264144
10.086644,4.533446753705453,0.080143229624937
10.08904,4.557005431953631,0.0799531021019924
10.091428,4.576140599828396,0.0798432775662562
10.129648,4.7417369246948615,0.0797477125342457
10.132044,4.744949730254777,0.0797012487458745
10.134432,4.747231370254914,0.0796603482639781
10.136816,4.746719513575715,0.079637828597404
10.139212,4.750910706523653,0.0795258682602483
10.141604,4.752587942045976,0.0794129953575262
10.143984,4.756686587195296,0.0792519723346604
10.14638,4.765208742718031,0.0790213985625947
10.148768,4.776012538240902,0.0787515710799505
10.151152,4.783371210778381,0.078487622463662
10.153548,4.787517077755944,0.0782668910087559
10.155936,4.794735980666562,0.0780112916109902
10.15832,4.805959085070015,0.0777157507603787
10.160716,4.814808001674713,0.077410716180365
10.163108,4.8228655223464925,0.0771001641641013
10.165488,4.830923043018272,0.0767905899823223
10.167884,4.84005149887669,0.0764657559921625
10.170272,4.847597162869272,0.0761324002246644
10.172656,4.860357733168187,0.0757331569015195
10.175052,4.8709764330938246,0.075364358916532
10.177444,4.879453262646185,0.0750257775319207
10.17982,4.885368912944689,0.0747481064449781
10.182236,4.897570404736161,0.0743952330487055
10.184624,4.911634227647191,0.0740326814774531
10.187004,4.917410108318834,0.0737670364816373
10.1894,4.922115053803839,0.0735141513562178
10.191788,4.92840279115468,0.0732736915645015
10.194172,4.931337953318744,0.0730845957634843
10.196568,4.935204281042587,0.0728923819839919
10.198956,4.939722235072488,0.0727132240629126
10.201336,4.9526679009686365,0.0724362144435821
10.203732,4.963751235745229,0.0721706947520219
10.20612,4.971529217163288,0.0718988478243355
10.2085,4.980889990447182,0.0716367561004998
10.210896,4.994115195597051,0.0713496013068371
10.213284,5.0070608614932,0.0710805389886328
10.215664,5.01907536182957,0.0708156737059333
10.21806,5.036816625151471,0.0705201198053776
10.220452,5.050274147726817,0.0702757072539629
10.222832,5.067735871794997,0.0699995845348639
10.225232,5.083195495116762,0.0697374265545929
10.22762,5.097072326572688,0.0694666726209374
10.23,5.104803086162504,0.0692567561977713
10.232396,5.110671514632763,0.0690550560181665
10.234784,5.121475310155635,0.0688148937994913
10.237168,5.137354242357978,0.0685304502448286
10.239564,5.147226872321071,0.0682967163627611
10.241956,5.158449976724524,0.0680329511551243
10.244336,5.1675312107547,0.0677956143885245
10.246748,5.175821048851956,0.0675531828882567
10.249136,5.1787562110160215,0.0673748857932954
10.251516,5.183693473926503,0.0671822737262678
10.253916,5.189002823889322,0.0670200782068112
10.256304,5.195383109038779,0.0668474881969424
10.258684,5.201763394188236,0.0666768768037656
10.26108,5.207212513777915,0.0665092095297348
10.263468,5.21480350374087,0.0663190327523915
10.265848,5.2185300618378525,0.0661518430000212
10.268248,5.228030604748608,0.0659048081496282
10.270636,5.2358085861666686,0.0656585056139299
10.273016,5.249592869823978,0.0653706295310953
10.275416,5.262166448667789,0.0651007673317061
10.277804,5.277813063444657,0.0648059072194766
10.280184,5.294390843781303,0.064508191980089
10.2826,5.30896652337153,0.0642246942267632
10.284988,5.319538001468923,0.0639708427142756
10.287368,5.327455752513844,0.0637136016409709
10.289768,5.336304669118541,0.0634548324545234
10.292156,5.345433124976959,0.0631801592726002
10.294536,5.356563681581794,0.0628925468064984
10.296952,5.3679737774403495,0.062589153220736
10.299336,5.377102233298768,0.0623172314137901
10.301716,5.3874413939706844,0.0620275255500188
10.304116,5.393916122776628,0.0617567211348694
10.306504,5.397597354903237,0.0614944792753241
10.308884,5.404491392589762,0.0612018604709674
10.31128,5.407381228783452,0.0609343699173124
10.313668,5.4070582594172265,0.0606968026967243
10.316064,5.403242945237367,0.0605074545702178
10.31846,5.3974255303110885,0.0603303530567569
10.320848,5.390025323518974,0.060142503184329
10.323228,5.386629318219693,0.0599307238559008
10.325632,5.382162377733774,0.0597291220552615
10.32802,5.379557768367412,0.0595242852576249
10.3304,5.376301532694991,0.0593047107580313
10.332796,5.372253901089652,0.059078102501427
10.335184,5.376214672469983,0.0588043141243776
10.337564,5.378033573477034,0.0585502034951887
10.339968,5.381854575230503,0.058286101788335
10.342352,5.385815346610832,0.0580157700809735
10.344732,5.387634247617885,0.0577636459622407
10.347136,5.38773058713224,0.057506231349048
10.349524,5.3886183225795135,0.0572565069688893
10.351904,5.392159785079262,0.0570094239586359
10.354308,5.398215205004625,0.0567738144666668
10.356696,5.401988984929851,0.056565637800363
10.359076,5.412280923773524,0.0563476643196416
10.361472,5.429789869669948,0.0560821857286591
10.36386,5.4450171755662335,0.0558414646743199
10.36624,5.458754237395301,0.0556318433246332
10.36864,5.471932220716926,0.0554547962440002
10.371028,5.482037168105497,0.055298043587528
10.373408,5.493864676986765,0.0551469813997133
10.375804,5.502898689188696,0.0550005866287379
10.378192,5.518450860309076,0.0548467979291703
10.380572,5.540381420721046,0.0546936292393618
10.382968,5.559750801879155,0.0545823046417484
10.385356,5.58326415415696,0.054445518656125
10.387736,5.6032851616211286,0.054349713717429
10.39014,5.6179514931521055,0.054296269793337
10.392528,5.635551090989275,0.0542322268119067
10.394908,5.655013019946003,0.0541662767442235
10.397312,5.671681452223394,0.0541041269057143
10.3997,5.684764991888534,0.0540385879521275
10.40208,5.696125970060977,0.0539680808564426
10.40448,5.707906257114002,0.0538758007228894
10.406868,5.715961881927913,0.0537882889065082
10.409248,5.717452125995132,0.053758035806172
10.411644,5.725228211555322,0.0536860183534097
10.414032,5.737427807488927,0.0535740457620434
10.416416,5.747765072302975,0.0534638440776086
10.418812,5.758242106743883,0.0533460805197946
10.4212,5.768347054132453,0.0532013001138601
10.42358,5.78045410226744,0.0530481666711357
10.42598,5.78469251704362,0.0529236165201941
10.428368,5.784275104020908,0.0528038972912014
10.430748,5.783345834318999,0.0526636392928763
10.433144,5.77519955756434,0.0525638951329151
10.435536,5.767332820063404,0.0524496144101264
10.437916,5.76947658629455,0.0522926536174641
10.440312,5.771620352525695,0.0521363292447996
10.442696,5.773484579503122,0.0519942790541316
10.44508,5.778282072786743,0.0518435562338386
10.447476,5.787735393869255,0.0516896034360078
10.449864,5.795326383832211,0.0515366761589086
10.452244,5.803429230474364,0.0514051605936931
10.45464,5.810740681183601,0.051267247442405
10.457028,5.820613311146696,0.0510919048565057
10.459424,5.8258301133108965,0.050920846318632
10.46182,5.828905045101821,0.0507657312128242
