Time,Force,Position
10.950643999999995,3.2977726774008524,0.1575787234348299
10.95304,3.3043833841179184,0.1574458109348555
10.955427999999998,3.3122047956484826,0.1572490335057701
10.957808,3.3213766816194057,0.1569734298383876
10.960208000000002,3.333621603523384,0.1565776653725662
10.962592,3.342933259121167,0.1562827050081197
10.964972000000005,3.358810295465642,0.1557011413391212
10.967371999999996,3.37431524475778,0.1550860830339548
10.96976,3.38223109994483,0.1547227256701691
10.972140000000003,3.387073919198824,0.1544762904711444
10.974536,3.393918839199236,0.1541589018736055
10.976923999999997,3.407281918118096,0.1536433237672166
10.979308000000003,3.425300824835848,0.1529746291945215
10.981704,3.446625084912132,0.1522369689334026
10.984088,3.470975159093228,0.1514709632699603
10.986472,3.4895512484605518,0.1509835194735183
10.988868000000004,3.504774762641099,0.1506535794484771
10.991256,3.5198585071947863,0.1503388618519577
10.993636000000002,3.5312175895093607,0.1501387522761916
10.996048000000002,3.5429959807045157,0.1498901231421956
10.998435999999998,3.553843206339891,0.1496710149201802
11.000832000000004,3.5651097408558483,0.1494195846047017
11.003236,3.576236505744945,0.1491830184963424
11.00562,3.5895051410073187,0.1488709532208879
11.008004,3.602913545896552,0.1485514478960465
11.010399999999995,3.62046592190548,0.1480843074621385
11.012788,3.632663621981216,0.1478259030545841
11.015172,3.641508746870175,0.1476986609776931
11.017564,3.652867829184749,0.1475198496383
11.019952000000004,3.667160177805519,0.1472444779164038
11.022332,3.6801020519859287,0.1470447958877231
11.024732,3.6894590335540856,0.1469370997569512
11.027116,3.698676245495383,0.1468456427092523
11.031896000000003,3.708777401168215,0.1468086404164322
11.034284,3.714876251206082,0.1466773417400249
11.036664000000002,3.7215341797513903,0.1464865678406944
11.03906,3.72833187792356,0.146280571512842
11.041452,3.736200511282367,0.1460329124016639
11.060560000000002,3.769017935726478,0.1458658386427175
11.062948,3.779585622108134,0.1457189535613481
11.065344000000003,3.791923091810729,0.1454653175127459
11.06774,3.804400331140185,0.1451998103109849
11.070127999999997,3.817436648977081,0.1448812757942665
11.072508,3.832195528306674,0.1445350924565366
11.074911999999998,3.846442550957069,0.1441722217211022
11.0773,3.8626916743538815,0.1437552339481814
11.079680000000003,3.88652989185578,0.1431530424739101
11.082079999999998,3.911811131596655,0.1425599450991106
11.084468,3.938535393576506,0.1419708147781919
11.086848000000003,3.9683326914894126,0.1413022602222192
11.089247999999998,4.001854651641432,0.140562805184681
11.091636,4.034305676606813,0.1398720999747487
11.094016000000003,4.071180211945609,0.139050681621686
11.096420000000002,4.110615926538261,0.1381229866857729
11.098807999999998,4.145675352585743,0.1372665851607744
11.101188,4.1867410808724745,0.1362361645348689
11.103583999999998,4.225944478039651,0.1352438634992954
11.105972,4.259421112221296,0.1343966502885795
11.108352000000004,4.288241918604051,0.1336536841370399
11.110756000000002,4.312546666814773,0.1330068705479803
11.113143999999998,4.334941862077696,0.132470238416511
11.115527999999998,4.361201489206592,0.1318587594354202
11.117924000000002,4.385039706708491,0.1313354502725345
11.120311999999998,4.408086528277472,0.1308259654765224
11.122692,4.432576372085428,0.1303212614524357
11.125087999999998,4.456786676639665,0.1298493962067824
11.127476,4.473268117461954,0.1295502010548208
11.12986,4.486444204925711,0.129289406558844
11.148968000000004,4.4848160870895,0.1291699501760573
11.151352000000005,4.4872374967164985,0.1290918002182682
11.153748,4.488727740783719,0.1290289762519864
11.156136000000004,4.492220085597355,0.1289208562680134
11.158516,4.495712430410992,0.1288122740634139
11.160912000000003,4.502185263359065,0.1285783197675346
11.1633,4.502279707015551,0.1284501119819321
11.165680000000002,4.506006265112533,0.1282049262708648
11.168080000000003,4.504797456156903,0.1280629470709323
11.170468,4.50121445940252,0.1279356672435555
11.172863999999995,4.49497773559566,0.1278459100594481
11.175260000000002,4.493536609214554,0.1276629740705459
11.177647999999998,4.492886878766366,0.1274749420707805
11.180028,4.485811537198346,0.1274545656747374
11.182432,4.483671562682937,0.1273280808921587
11.184815999999998,4.488189516712837,0.1270721098345562
11.187196,4.494290262608574,0.1268064201653361
11.189596000000002,4.500251238877452,0.1265526591595114
11.191983999999998,4.50528104958655,0.1263149325968504
11.194364,4.50365293175034,0.1262068419952218
11.196759999999998,4.500302252421433,0.1261200449430955
11.199148,4.49387853715947,0.1261048543851802
11.201528000000003,4.4943922896965365,0.125942416648785
11.203927999999998,4.495976977420242,0.1257532394352032
11.206316,4.500355161823283,0.1255173877938331
11.208696000000003,4.504314037345743,0.125318558641089
11.211095999999998,4.510786870293818,0.1250957768958717
11.213484,4.514698523988034,0.1249610973003262
11.215864000000003,4.525268106227561,0.1247077398879917
11.21826,4.537420480332921,0.1244469127438779
11.220647999999995,4.55171472481156,0.1241341047319852
11.223028,4.564286407797502,0.1238429318504656
11.225428,4.5776494867163615,0.1235492460876336
11.227812,4.599300507874609,0.123069074740247
11.230196,4.623093399406135,0.1225453190096857
11.232591999999997,4.648096995751158,0.1220008207972987
11.23498,4.6733801313499015,0.1214399525794351
11.237360000000002,4.699734202135285,0.1208569147882282
11.239759999999997,4.727159208107306,0.1202479187030258
11.242148,4.757098171504942,0.1196158902848131
11.244543999999998,4.789690861955052,0.118955203960165
11.246940000000002,4.8204212212856055,0.1183184551584643
11.249327999999998,4.849801106175801,0.1177446100390079
11.251708,4.878901451812275,0.1171972501044676
11.254103999999998,4.907862027821889,0.1166684558592213
11.256492,4.933609798271588,0.1162117104420873
11.258876,4.959497338348148,0.1157484344797605
11.261271999999998,4.985664417678427,0.1152645159409989
11.263660000000002,5.010528244396591,0.1147746153825005
11.266044,5.034740444808697,0.1142800036196386
11.268439999999998,5.058952645220802,0.1137909877464201
11.270828000000002,5.082093910446269,0.1133237882720623
11.273207999999997,5.104583549365677,0.1128515843128538
11.275607999999998,5.122929217165393,0.1124656437695145
11.277996000000002,5.135408352352718,0.1121734556419556
11.280375999999997,5.140530710860434,0.1120261290409351
11.282772,5.146304695674207,0.1118880321311842
11.285159999999998,5.154080781234397,0.1117188628473929
11.28754,5.1618568667945866,0.1115500812278546
11.28994,5.169912491608497,0.1113628943705729
11.292327999999998,5.180389526049404,0.1111189750716824
11.294711999999995,5.195941697169785,0.1107923042506963
11.297116000000004,5.209119680491411,0.1104740204277655
11.299504,5.221366498253258,0.1101674888389375
11.301884,5.2289574882162135,0.1099148732752706
11.30428,5.240040822992807,0.1095833740120239
11.306672,5.2492618266498425,0.1092741445862143
11.309052,5.2583430606800174,0.1089745547146836
11.311448,5.2630007843367785,0.1087646699547962
11.313836000000002,5.268449903926458,0.1085543144720057
11.316215999999995,5.272688318702638,0.1083740995831345
11.318616,5.279999769411874,0.1081441462546615
11.321004000000002,5.286891911240527,0.1079423323553627
11.323383999999995,5.2912700956435685,0.107752561596664
11.325788000000005,5.3003041078455,0.1075089852700983
11.328176,5.314041169674566,0.1071554432289927
11.330556,5.322051468518103,0.1068742688956294
11.332956000000005,5.323124299562611,0.1066969862615771
11.335344,5.327130396913314,0.1064795165587434
11.337727999999998,5.331416033517738,0.1062448083459924
11.340124000000005,5.32941582862919,0.106120228642857
11.342508000000002,5.327555393367502,0.1059875660706433
11.344892000000002,5.327137980344791,0.1058627591904218
11.347288,5.328862437695358,0.1057007225949848
11.349676000000002,5.335382492471674,0.10548026422971
11.352055999999996,5.340831612061353,0.1052807376017466
11.354452000000002,5.350145163517006,0.1050354882923459
11.356839999999998,5.360809189413017,0.1047553057467208
11.359223999999998,5.37761928717514,0.1043834757013836
11.361620000000002,5.393358449750624,0.1040312006781908
11.364007999999998,5.410028777885887,0.10367044111014
11.366391999999998,5.424697005274732,0.1033398237970526
11.368792,5.438713606357518,0.1029999990802423
11.371180000000004,5.459248366358754,0.1025980146658501
11.373564000000002,5.47927126968079,0.1021831714744611
11.37596,5.497803928935609,0.1018147746699355
11.378348000000004,5.525276156735872,0.101333254271559
11.380732000000002,5.558754686775388,0.1007696705880671
11.383128,5.5870183105085705,0.1002872236931236
11.385516000000004,5.614862625361173,0.0998349448571146
11.387900000000002,5.643126249094356,0.0993522304888458
11.390296,5.66296216096129,0.0990003361635496
11.392684000000004,5.676000374656056,0.0987256898200784
11.395063999999998,5.6841032212982086,0.0985135493263627
11.397468000000003,5.6944877079405,0.0982617357011791
11.399856,5.704732424955931,0.0980203790621282
11.40224,5.713906206784723,0.0977994108202584
11.404636000000004,5.721869283800015,0.0976050474579178
11.407024,5.72848188637495,0.097446705569418
11.409404000000002,5.735374028203606,0.0972718539212525
11.411804000000004,5.742685478912842,0.0970731526273556
11.414192,5.751859260741634,0.0968597080860896
11.416572000000002,5.765968409623039,0.0965928030796572
11.418971999999997,5.777144292198248,0.0963608773722713
11.421356000000005,5.788040635519737,0.0961470572132986
11.423740000000002,5.798936978841225,0.095933237054326
11.426136,5.8041065591771845,0.0957745579020376
11.428524000000005,5.809136369886283,0.0956254163228424
11.430903999999998,5.817658525409017,0.0954144709251399
11.433300000000004,5.824318349812195,0.0952180070531772
11.435692000000005,5.834563066827625,0.09500112096947
11.438071999999998,5.854026891642223,0.0946706970208075
11.440472,5.879636788322929,0.0942608418343554
11.442860000000003,5.909111116869609,0.0938117416363775
11.445239999999998,5.9335103087368175,0.0934288275552867
11.44764,5.95590739985761,0.0930688251880667
11.450028000000003,5.975650763925929,0.0927243249235727
11.452412000000002,5.993252257620969,0.0924086804627487
11.454808,6.01127306019659,0.0920729607618594
11.457196000000003,6.031016424264907,0.0917336077636111
11.459580000000004,6.050620018706365,0.091405319189548
11.461976,6.070642922028403,0.0910582287015828
11.464364000000003,6.085590688670967,0.0907706492889065
11.466748000000004,6.099886829007475,0.0904758173774601
11.469144,6.112460407851286,0.0901870116642561
11.471532000000003,6.12438236038904,0.0898891657994736
11.473916000000004,6.136024773673071,0.0896060209651412
11.476315999999995,6.143942524717992,0.08934913331499
11.478704,6.149718405389635,0.0891210619776488
11.481088,6.156704990874776,0.08887104735312
11.483483999999995,6.163691576359917,0.0886231371498572
11.485875999999998,6.165603025165587,0.0884306976849223
11.488256,6.169796113971392,0.0882053809936878
11.490656,6.173337576471142,0.0879718347278824
11.493043999999998,6.177810204530669,0.0877321456144334
11.495427999999997,6.181770975910997,0.0874749770036035
11.497836,6.183450107291189,0.087250943923153
11.500228,6.189273209791075,0.0869802475823156
11.502603999999998,6.187087909305293,0.0867868201073396
11.505000000000004,6.181969342513316,0.0866193321963739
11.507384000000002,6.174848674974921,0.0864713083442594
11.509763999999995,6.1633044970631135,0.0863847395037074
11.512155999999996,6.154041959151443,0.0862633144805373
11.514544,6.145151508292109,0.0861661135761557
11.51692,6.139985719671889,0.0860455952692815
11.519323999999996,6.136542492544365,0.0859209862954705
11.521712,6.1344497398572,0.0857679860174335
11.524088,6.130215116796759,0.0856404861122926
11.526491999999998,6.1278428248558745,0.0855013470617663
11.52888,6.127472633661406,0.085343682602988
11.531260000000003,6.121375679481407,0.0852274347095556
11.533659999999998,6.116349660488047,0.0850977441277021
11.536043999999997,6.106620591867552,0.0850434690143092
11.538424,6.099405480672672,0.0849870284211512
11.540816,6.08818616798496,0.0849680146930055
11.543204000000005,6.081343143842417,0.0849356150882484
11.545596000000003,6.07771292525979,0.0848638432350886
11.548000000000002,6.073011771490524,0.0848051898602265
11.550387999999998,6.077250186266705,0.0846665464954123
11.552768,6.083770241043022,0.0844946798092672
11.555172,6.088148425446062,0.0843477404098531
11.557555999999998,6.09480824984924,0.0841664867676928
11.559936,6.10011759981206,0.0840141092512939
11.56234,6.104915093095681,0.0838450211325171
11.564723999999998,6.106639550446246,0.0837082527298191
11.567104,6.107432842237035,0.0835771871709124
11.569508,6.106596120333742,0.0834886998766158
11.571896000000002,6.114698966975896,0.0833224769209787
11.574272,6.122941583244909,0.0831498805479334
11.576676,6.127831624327147,0.0830231944081946
11.579059999999998,6.140590298768192,0.0828330023429566
11.58144,6.15148664208968,0.0826528329993966
11.583844,6.163733459851527,0.0824446051910928
11.586232000000004,6.17318678093404,0.0822535113554879
11.588608,6.189577569815581,0.0820038108311474
11.591016000000003,6.199962056457872,0.0818071698012335
11.593400000000004,6.210998169406221,0.0816208603071379
11.595779999999998,6.221242886421653,0.0814331743986689
11.598184000000003,6.228274797877168,0.0812839978797049
11.600572,6.235027170078961,0.0811503757075861
11.602952000000002,6.247646074893148,0.080972651436608
11.605356,6.259054274893835,0.0808144111622826
11.60774,6.2726043452678,0.0806329218363414
11.610120000000002,6.285083480455124,0.0804637471796898
11.612524,6.299704486015725,0.0802715927503469
11.614908,6.317118988255662,0.0800668293338404
11.617292,6.339888166428791,0.07980440793743
11.619688000000004,6.359724078295725,0.0795680218645305
11.622072000000005,6.3794202205358,0.0793404184681977
11.624456000000002,6.401398002776011,0.0790830845624033
11.626848000000004,6.420302749083167,0.0788564951360216
11.629236,6.445865423935633,0.078595012901132
11.631616,6.473290429907653,0.0783267385743585
11.634016000000004,6.499784270319895,0.0780628472526929
11.636404,6.523205074799083,0.0778275219803159
11.638784,6.552911720771243,0.0775331408958971
11.641188,6.58289790599712,0.077227050078955
11.643576000000005,6.61260455196928,0.0769353530115003
11.645955999999998,6.642311197941437,0.0766436559440457
11.648359999999997,6.672949009473374,0.076350399007817
11.650744000000005,6.699862158766199,0.0760751773707931
11.653123999999998,6.729708574365217,0.0757820836096986
11.655520000000005,6.753688457351846,0.0755260531614429
11.657908,6.779530671458031,0.0752626677951951
11.660288,6.8024396192580205,0.0750192763351924
11.662692,6.824696940751953,0.0747698500589678
11.665076,6.841087729633494,0.0745583131348879
11.667456,6.85454525220884,0.0743655410916687
11.66986,6.868002774784186,0.0741737869694354
11.672248000000003,6.882531232546171,0.0739737375734063
11.674627999999998,6.896268294375237,0.0737716134637879
11.677031999999995,6.9024162620992175,0.0736052596336615
11.679416000000003,6.9068416683305,0.0734401402345402
11.681796,6.914060571241119,0.0732651296841175
11.684199999999995,6.923561114151875,0.0730649197462861
11.686588,6.931059556316214,0.0728795867226786
11.688968000000004,6.939489164040331,0.0726922822557038
11.691364,6.950340181391445,0.0724743843276426
11.693752000000003,6.962541673182919,0.0722352035834254
11.696132,6.972880833854836,0.0720033183089064
11.698535999999995,6.986293030459808,0.071750591758435
11.700920000000004,7.000915931878279,0.0714850658197688
11.703304000000005,7.021405365909141,0.071188586868392
11.7057,7.041755030313142,0.0708994922430985
11.708084,7.062104694717144,0.0706099374670704
11.710464000000002,7.07938132318809,0.07034299348256
11.712868,7.099451448338371,0.0700672381171558
11.715252,7.1223150701679865,0.0697836494148426
11.717632000000002,7.145318461624463,0.069495584556832
11.720036,7.163106946774607,0.0692465005289408
11.72242,7.179824496738112,0.0690066234293809
11.724800000000002,7.203199975246926,0.0687419138299018
11.727204,7.226435684128878,0.0684841042511202
11.729591999999997,7.2468778963314975,0.068235490817747
11.731972,7.264386842227921,0.068002607322658
11.734368000000003,7.282035557751206,0.0677653464127437
11.736756,7.297682172528072,0.0675406712856665
11.739136000000002,7.310907377677941,0.0673465896196757
11.741532,7.32385304357409,0.0671656789175798
11.743920000000005,7.338009414283737,0.0669711761353173
11.746299999999998,7.350955080179886,0.0667924807315565
11.748704000000004,7.360967479769839,0.0666282692745291
11.751092,7.37191104491957,0.0664633917590189
11.753472000000002,7.383413688576743,0.0662761085247355
11.755876,7.399060303353608,0.0660637121050164
11.758263999999995,7.414846687757336,0.0658453551604902
11.760640000000002,7.430912611414782,0.0656166911849294
11.763047999999998,7.446466678393032,0.0653746552887434
11.765436,7.4590874790650865,0.0651447931018296
11.767816000000003,7.4759920204836945,0.0648831315408406
11.770220000000002,7.495038432275581,0.0646065336133209
11.772604,7.507426915522158,0.0643508630598342
11.774984000000003,7.520746564328514,0.064093824178762
11.777388000000002,7.537279018694785,0.0638148194764284
11.779775999999998,7.555534034553752,0.063538178531201
11.782156,7.57364928078586,0.0632689511399145
11.784551999999998,7.590041965525271,0.0629975941491473
11.78694,7.602709988025568,0.062732326206687
11.789320000000004,7.615517780152725,0.0624625047020798
11.791724000000002,7.623250435600411,0.062218476969269
11.794111999999998,7.630331464742039,0.0619655905248685
11.796492,7.63555016276411,0.0617160399265941
11.798896,7.639465608174065,0.0614492233818984
11.801284000000004,7.643241283957159,0.0611892647415616
11.803663999999998,7.642081592687642,0.0609493716434778
11.806060000000002,7.643203541418263,0.0606898014838189
11.808448,7.644045950895163,0.06044225209814
11.810828,7.639673454065729,0.0602238904552986
11.813232,7.63930515872913,0.0599884888802867
11.815620000000004,7.638005697832753,0.0597550464532165
11.817999999999998,7.632562265816682,0.0595435177969452
11.820396000000002,7.630052100106807,0.0593214400228484
11.822784,7.627309616971455,0.0590733009778177
11.825164,7.6194919971566275,0.0588482693605345
11.827568,7.613024851782162,0.0586060718100128
11.829956000000005,7.604555605661277,0.0583718941095664
11.832335999999998,7.59915939547345,0.0581226561137529
11.834740000000004,7.600980192338371,0.0578372754902527
11.837128,7.601078427710595,0.05754901538179
11.839508000000002,7.606251799762291,0.0572375842527608
11.841904,7.612496107000626,0.0569206016595292
11.844292000000005,7.621673680545158,0.0565950471462389
11.846676000000002,7.6250772692759154,0.0563180803040931
11.849072,7.6235454909540605,0.0560565152665339
11.851456,7.623876043751762,0.0557924770982215
11.853839999999998,7.623647518042025,0.0555514068142185
11.856236000000004,7.620905034906671,0.0553019654623692
11.858620000000002,7.626310724383846,0.0550180865022754
11.861004,7.628922917181685,0.0547376441498075
11.863408,7.630324405166025,0.0544689034579807
11.865796000000003,7.636940799456699,0.0541741990762594
11.868175999999998,7.644767898560871,0.0538688002251993
11.870579999999997,7.652035919157601,0.0535860464359412
11.872964000000003,7.664379076433805,0.0532837835266364
11.875348000000002,7.675651298523369,0.0529896671883366
11.877744,7.687203059866654,0.0526845347501501
11.880132000000003,7.700477382702635,0.0523861257527875
11.882511999999998,7.709607734418922,0.0521074887856543
11.884912,7.721671352441405,0.0518233016556248
11.887296,7.732803804904109,0.0515406723300773
11.889676,7.739792286247121,0.0512754302161218
11.892072,7.744918436470575,0.0510114375243431
11.894460000000002,7.755259493000361,0.0507235152964229
11.896839999999996,7.771327312515677,0.0504279502250301
11.899244000000005,7.786324196844355,0.0501381536071921
11.901632,7.796665253374141,0.0498491101388602
