Time,Force,Position
12.774052000000005,2.483064409235629,0.1653093397781983
12.77644,2.4862299929673024,0.1652302288221006
12.778824,2.493911634871006,0.1649670694198415
12.781220000000005,2.503176068640546,0.1646617770983617
12.783612000000003,2.508296531290392,0.1645914053212928
12.785992,2.516210490619573,0.164391849206505
12.788396,2.523844910695034,0.1642444563352516
12.790784000000002,2.5341330578229693,0.1639864721689587
12.793164000000004,2.5542919390561285,0.163212657649664
12.795560000000002,2.570446618796454,0.1626574966924915
12.797948000000003,2.585018506670944,0.1621446704214358
12.800328,2.598519459358795,0.1617134746868163
12.802732,2.6095990024196487,0.1614578290164654
12.805120000000002,2.6236118117866973,0.1610589158301069
12.807500000000005,2.6392546348478256,0.1605058685370094
12.809904000000005,2.6553167667895345,0.1598825787141616
12.812292,2.6726821513433587,0.1592932169400679
12.814672000000002,2.6864154214566875,0.1589667234778031
12.817076,2.7026626489956302,0.1585681047027684
12.819464000000004,2.724776409146963,0.157921680950056
12.821844,2.750941592619373,0.1570220454876284
12.824240000000003,2.7799002727711177,0.1560492339742631
12.826628,2.8068568521764465,0.1551915283676246
12.829008000000002,2.833813431581775,0.1543338227609862
12.831404,2.866916082853213,0.1532109569262406
12.833792000000004,2.897784315952758,0.1521138501797411
12.836176000000002,2.9239967212534115,0.1511727152458116
12.838572,2.954353097673758,0.1500699480535469
12.840960000000004,2.977632236668216,0.1492856840979447
12.843340000000005,3.0045434901031705,0.1483002178722076
12.845736000000002,3.032525678724764,0.1472683324882676
12.848124000000006,3.0606476369732163,0.1462402701994315
12.850504,3.0887695952216694,0.1452078735501514
12.852908,3.118614114962819,0.1441586217726867
12.855292000000006,3.1511123617564434,0.1430626262140701
12.857676000000003,3.182399903736569,0.142021288779181
12.860072000000002,3.2123841931045782,0.1410040709900214
12.953252,3.3175378250947225,0.1405915353530711
12.955636000000004,3.3301529381931694,0.1405302125030167
12.958020000000005,3.343978756105115,0.1404224907274069
12.960416000000002,3.3619485451367543,0.1401747237616311
12.962804000000006,3.379638794914673,0.1399541668154939
12.965200000000005,3.3997504543195896,0.1396341182961555
12.967596,3.4218642144709226,0.1392580576127141
12.969984000000004,3.4433263483161984,0.1388822104886479
12.972368000000005,3.4674894310421918,0.1383702091239659
12.974764,3.4947255497012404,0.1377594315725639
12.977152000000004,3.525454013173925,0.1369949694604706
12.979532,3.5584641166467468,0.1361502317609306
12.981932,3.591753759373289,0.1352754208190046
12.984320000000004,3.617174768741025,0.1346253747913843
12.9867,3.640593677362342,0.1340440120275442
12.989104000000005,3.6632211900507423,0.1334781563225017
12.991492,3.685197076433085,0.1329058850816867
12.993876,3.706521336509368,0.1323215714530659
12.996268,3.732269106959067,0.1315874079044813
12.998656000000004,3.757085711848987,0.1308879791227732
13.001040000000003,3.780459294499932,0.1301939189223682
13.003436,3.801970546031319,0.1295545950238919
13.005824000000004,3.816264790509957,0.129135049469863
13.008204,3.826834372749482,0.1288031765049478
13.010600000000004,3.841268386854981,0.1283776684292601
13.012988,3.850347725027287,0.1281258063677706
13.015368000000002,3.857844271333757,0.1278907111619004
13.017764,3.8653408176402255,0.1276582352973603
13.020152000000005,3.872278285439256,0.1274823649738925
13.022532000000004,3.87656202618581,0.1273517533549358
13.024932,3.883779033238559,0.127155136147139
13.027316,3.888482082865694,0.1269902677956892
13.029700000000004,3.8939765284257466,0.1268210890561773
13.032096000000005,3.908131003277525,0.1264603602574898
13.034484,3.9222854781293024,0.1260996314588022
13.036868000000004,3.9353690177944425,0.1257711771223773
13.039264000000005,3.953667463765914,0.1253114369812858
13.041652,3.97610988085708,0.1247491232471315
13.044048000000004,3.990543894962579,0.1243791887444439
13.046444,4.001625333881302,0.1241103421303271
13.048832000000004,4.015360499852499,0.1238061924322809
13.051212,4.028444039517638,0.1234962151291056
13.053608000000004,4.045951089556193,0.1230503416421576
13.055996,4.063038830714167,0.122638594579082
13.058376000000004,4.079195406312362,0.1222523138973569
13.060772,4.098425017843612,0.1217859635289027
13.063160000000003,4.114861132695527,0.121371147819077
13.065540000000006,4.129155377174165,0.1210162539033452
13.06794,4.143729160906524,0.1206389528098394
13.070324,4.158023405385162,0.1202840588941075
13.072708,4.169524153184466,0.1199885308830162
13.075104000000003,4.177812095423854,0.1197783576888172
13.077492,4.186379576916963,0.1195455196586493
13.079876,4.191734252850154,0.1194025230152765
13.082272000000003,4.194947058410071,0.1193158407521834
13.089440000000003,4.196669619902767,0.1192916425758719
13.091828,4.200906138821078,0.1192494496287241
13.094224000000004,4.209566168112803,0.1190841179378549
13.09662,4.215432700725194,0.1189673181709327
13.099008000000005,4.223673421136338,0.1188418687980332
13.101388,4.234567868599958,0.1186871090759962
13.103792000000006,4.248814891250354,0.1184420251730014
13.106180000000002,4.260128647594553,0.118253449849848
13.108560000000004,4.272513339125393,0.1180414895816794
13.110960000000006,4.288482923268484,0.1177833017384137
13.113348000000002,4.307385773717771,0.1174705858273944
13.115732,4.324938149726699,0.117207555203165
13.118128,4.348636597601737,0.1168192439068585
13.120516000000002,4.3708448014095564,0.116492107194184
13.1229,4.397988372269989,0.1160694945114505
13.125296,4.4248524038767,0.1156746842786792
13.127684000000002,4.450273413244434,0.1152733281868249
13.130064000000004,4.48184049447828,0.1147458225546296
13.132464,4.511405474965709,0.1142586626343259
13.134852000000002,4.537525332467745,0.1137998419193792
13.137232000000004,4.565135434037,0.1132890061600199
13.139628000000002,4.589812269300061,0.1128371045803908
13.142020000000002,4.611416068630065,0.1124513610295147
13.144400000000005,4.632368241654012,0.1120568397591243
13.146796000000002,4.648804356505928,0.11171970072168
13.149184000000004,4.66151580911873,0.1114411496779066
13.151568000000005,4.674367031358392,0.1111574029127617
13.153964000000002,4.688428958411553,0.1108381208098636
13.156352000000004,4.699557619158519,0.1105696530853773
13.158736000000005,4.712036754345843,0.110261916742942
13.161132000000002,4.722933097667331,0.1099603713603319
13.163520000000004,4.733457353936482,0.1096278963571519
13.165904000000005,4.7389064735261615,0.1093928936401608
13.168300000000002,4.744914671623282,0.1091160283477874
13.170688000000006,4.752924970466818,0.1088101584864499
13.173068,4.758141772631021,0.1085388220269399
13.175464000000003,4.766152071474557,0.1082334754402584
13.177852,4.768156068078844,0.1080300591336337
13.180236,4.774164266175965,0.1077616629559892
13.182632000000003,4.782034795392641,0.1074673760830757
13.185020000000002,4.782408778302847,0.1073253252769289
13.187404,4.785995566772969,0.107118844170453
13.189800000000004,4.791584455989508,0.1068791757879016
13.192188000000002,4.7995475330048025,0.1066365596569728
13.194568000000004,4.81044387632629,0.1063487644018357
13.196968000000004,4.821200450020918,0.1060715295962531
13.199356000000002,4.825531412595715,0.1059237842636462
13.201736000000004,4.830793540730291,0.1057652409942204
13.204132,4.840991035917479,0.1055315095866508
13.206520000000005,4.8478359559178905,0.1053741044434674
13.2089,4.856543207037859,0.1051964743038582
13.2113,4.865902084463886,0.1050278968839169
13.213684,4.878333997822968,0.1048091301654068
13.216068,4.888344501555052,0.1046507095301582
13.218464000000004,4.892348703047885,0.104587879727869
13.220852,4.899006631593194,0.1045023133462456
13.223236,4.903802229018945,0.1044390326067937
13.225632000000004,4.912602027937531,0.1043131968958688
13.22802,4.914324589430228,0.1043017120259632
13.230404,4.91898041722912,0.1042484589913345
13.232800000000005,4.934717683946735,0.1040183702276916
13.235188,4.946171209917794,0.1038722421662205
13.237584000000004,4.958695671075493,0.1037083148037343
13.239980000000005,4.969637340367356,0.1035466354062891
13.242368,4.981510175218997,0.1033768984689379
13.244748,4.994453945257275,0.1031882747924748
13.247144,5.013543787161666,0.1028977779211025
13.249532000000002,5.031562693879418,0.1026284925104543
13.251916,5.041712967238364,0.1024696053061886
13.254312,5.05000090947775,0.1023296851750712
13.256700000000002,5.056798607649919,0.1022397051700688
13.259084,5.0674607376880605,0.1021017592393238
13.26148,5.072907961419871,0.102051914221181
13.263868000000002,5.082499156271373,0.1019336579367143
13.266252,5.0951633870559325,0.1017659736561355
13.268648,5.109038322653992,0.1015710762718591
13.271036000000002,5.12184232306541,0.1013952661036226
13.273420000000002,5.133994697170771,0.1012131089251672
13.275816,5.1541554742618,0.1009155087832673
13.278204000000002,5.174456020979688,0.1006135445438103
13.280588000000002,5.18716747359249,0.1004003672506685
13.282984,5.2018810269517095,0.1001589916203676
13.285372000000002,5.21566341475115,0.0999301310722866
13.287756000000002,5.226372766617535,0.099745527746338
13.290152,5.236011183297283,0.0995810033874161
13.292544,5.24006260661836,0.0994703109120169
13.294924000000002,5.243322634006518,0.0993606118760689
13.29732,5.249655697327734,0.099206880817068
13.299708000000004,5.26106389732842,0.098979679626396
13.302092000000002,5.27689560770252,0.0986716873559883
13.304488,5.291284295837644,0.0983538799947429
13.306876000000004,5.302227860987376,0.0980576447666438
13.309260000000002,5.313590735017688,0.0977309156605913
13.311656,5.325093378674861,0.097399048167244
13.314044000000004,5.337806727145532,0.0970440846310965
13.316424000000003,5.347726578936869,0.0967161144372568
13.318820000000002,5.359508761847762,0.0963711091063401
13.321208000000006,5.370080239945156,0.0960542616571438
13.323592000000003,5.375856120616799,0.0957904921799552
13.325988000000002,5.379210591661444,0.0955793983191201
13.328376,5.38256506270609,0.0953668542967469
13.330760000000003,5.382334641138481,0.0951779517354838
13.333156000000002,5.382476306623211,0.0950171269975411
13.335544,5.390905914347328,0.0947394757312363
13.337924,5.396821564645832,0.0944683783775586
13.340320000000006,5.410046769795702,0.0941399176740063
13.342708000000002,5.425134306065127,0.0937997186860782
13.345092,5.436357410468578,0.0935023214009878
13.347488000000006,5.444367709312115,0.0932542477886169
13.349876000000002,5.449025432968876,0.0930654593775452
13.35226,5.455825026998913,0.092844455177538
13.354656000000006,5.460994607334872,0.0926741522357986
13.357044000000002,5.469097453977025,0.0924721240923078
13.359424000000004,5.475198199872763,0.0922953469077276
13.361820000000002,5.47994847132814,0.0921532572695584
13.364208000000003,5.485769677970157,0.0919952003892916
13.366608,5.492149963119614,0.0918043265338276
13.369004000000004,5.49839047864221,0.0916221016583396
13.371392,5.506633094911224,0.091417291067832
13.373776,5.513712228194982,0.0911837479784565
13.376172000000004,5.524376254090994,0.0909297569323285
13.37856,5.540767042972535,0.090624464887473
13.380940000000002,5.54970850737585,0.0903741569591875
13.383340000000004,5.549291094353139,0.0902507129014428
13.385728,5.549665077263345,0.0901279821019372
13.388108000000004,5.547385333121078,0.0900191236313052
13.390508000000004,5.541101387485976,0.0899561876055139
13.392896,5.533886276291096,0.0899002165725555
13.395276000000004,5.529744201029271,0.0898054686793185
13.397676000000004,5.526533291327224,0.0897033639504022
13.400064,5.521180511251901,0.0896326287497915
13.402444000000004,5.517178205616936,0.0895289764452033
13.40484,5.511034029608695,0.0894567576597383
13.414396000000004,5.459546072140776,0.089419984494544
13.416776,5.447535363520144,0.0894061095360719
13.419176,5.437386986019068,0.0893772157930755
13.421564000000004,5.430683731503387,0.0893373233198058
13.423944,5.425470721054924,0.0892569666481835
13.426348000000004,5.417464213927126,0.0891961476084104
13.428736,5.4208186849717706,0.0889974034805778
13.43112,5.432321328628943,0.0887055550142729
13.433516000000004,5.446897008219171,0.0883795633648144
13.435904,5.4654768893022325,0.0880160836285887
13.438288,5.48712980631835,0.0876190834476868
13.440684000000005,5.51264715520044,0.087190322149662
13.443072,5.541237540015587,0.0867339482593399
13.445452000000005,5.575042831137066,0.0862231482005938
13.447852000000005,5.612852323751377,0.0856776614831471
13.45024,5.652803686738967,0.0851098438106167
13.452624,5.695967855286471,0.084504410101544
13.455020000000005,5.746721117939064,0.0838473234011868
13.457408,5.801478582084488,0.0831497546334014
13.459788000000003,5.858238146976331,0.0824421896620553
13.462184,5.9202126181745065,0.081683813986692
13.464572000000004,5.977111952693207,0.080981503684715
13.466956000000003,6.02842429385324,0.0803156490391884
13.469352,6.079876404640132,0.0796505699071107
13.471744,6.129326414680608,0.0790150702375925
13.474124000000003,6.178496885467363,0.0783963604091588
13.476524000000005,6.223243845880704,0.0778483270345184
13.478912,6.263195208868292,0.0773386210356573
13.481296,6.299933766295966,0.0768681824171022
13.483692000000003,6.334809992604082,0.076415989063002
13.486084000000004,6.3668927222328655,0.07598019749262
13.488464,6.398044286301868,0.0755533036934555
13.490860000000003,6.423329317758482,0.0751700644142168
13.493248,6.440745715856289,0.0748450952463064
13.495632,6.454157912461261,0.0745529942700026
13.498028000000003,6.466638943506455,0.0742677116563311
13.500416,6.475907168991734,0.0740164244557835
13.502796000000004,6.48037979705126,0.0737932018491269
13.505196000000003,6.4857835906705645,0.0735676274641482
13.507584,6.490395988356951,0.0733411806550374
13.509964000000004,6.489793479737007,0.0731614726298055
13.512364000000003,6.492403776676976,0.0729503978286167
13.514752,6.501392462908535,0.0727218324138349
13.517132000000004,6.508518818020536,0.0725015567929478
13.519532000000003,6.510290497199346,0.0723318433201077
13.52192,6.5134126508185135,0.072138753078312
13.524300000000004,6.513741307758347,0.0719558612377664
13.526696,6.513650655817599,0.0717928850551534
13.529084000000005,6.515562104623268,0.0716162544425352
13.531468000000004,6.513329582309243,0.0714738164599425
13.533864,6.512819621487915,0.0713314167970573
13.536256000000002,6.511238725479947,0.0711993944600524
13.538636000000004,6.512311556524455,0.071063949631432
13.541036000000004,6.519111150554492,0.0709019906028775
13.543424000000002,6.52563120533081,0.0707530614594161
13.545808,6.527867519360574,0.0706443399006658
13.548208000000002,6.532245703763613,0.0705155171086508
13.550596,6.53848621928621,0.0703802644025218
13.552980000000003,6.542864403689251,0.0702522915830574
13.555376000000004,6.540305120293263,0.0701667978287725
13.557764,6.534812570591078,0.0700974211643593
13.560144,6.527969546448535,0.0700516534090705
13.562544000000004,6.51754162969374,0.070011742913146
13.564932,6.5089760440585005,0.0699652307158142
13.567316000000003,6.507627465476011,0.0698631886196948
13.569712000000004,6.5050681820800245,0.0697778001882565
13.5721,6.503440064243812,0.0696890011243121
13.574484000000004,6.5080977879005735,0.0695492394905551
13.576884,6.511824345997557,0.0694128252434507
13.579272000000003,6.517692774467816,0.0692568070971355
13.581656000000002,6.519696771072102,0.0691189973046549
13.584052,6.52076960211661,0.068984045426546
13.586440000000003,6.523472446855197,0.0688136729768659
13.588824000000002,6.521100154914312,0.0686779141217319
13.59122,6.520078337413786,0.0685191384649297
13.593608000000003,6.523060721406093,0.0683350279443515
13.595992000000004,6.52697427095818,0.0681491938241972
13.598388,6.531027590137126,0.0679575438763231
13.60078,6.536151844502711,0.0677572796340702
13.603160000000004,6.546211465920907,0.067528708277253
13.605564,6.560275288831938,0.067274201166183
13.607948,6.572756319877132,0.0670114232334564
13.610332,6.582164314989271,0.0667694818917092
13.612728000000004,6.5867767126756585,0.0665480600760834
13.615116,6.590457944802267,0.0663315209531873
13.617496000000004,6.59227684580932,0.0661197828329504
13.619892,6.598099948309205,0.065885317626978
13.622280000000003,6.598196287823561,0.0656745135527651
13.62466,6.598572166591636,0.0654507827159717
13.627056000000003,6.597877110173073,0.0652358674582581
13.629444,6.602396960060843,0.0649826197257209
13.631824000000002,6.608918910695029,0.0647183831641909
13.634228,6.610086185396023,0.0644986893970534
13.636616000000004,6.613954408977735,0.0642346998098299
13.638996,6.616891466999669,0.0639729670351553
13.641392000000003,6.619176898715544,0.0637011136005472
13.64378,6.621462330431421,0.0634311334704451
13.646164,6.622956366214378,0.0631575786642207
13.648560000000003,6.622448301250918,0.0628949316952064
13.650948,6.622731632220379,0.0626372057880602
13.653328000000002,6.626227768749754,0.0623558125153813
13.655728000000003,6.633448567518242,0.0620670863331489
13.658116,6.643602632592924,0.0617650119838038
13.660496000000002,6.656550194346942,0.0614560910020996
13.662892,6.665493554608126,0.0611683522788695
13.665280000000005,6.679232512295061,0.060865747468276
13.667664000000002,6.689758664422081,0.0605896504245734
13.67006,6.697863406922105,0.0603414235079718
13.672448000000005,6.705688610168406,0.0601064731558179
13.674828000000003,6.714444978974488,0.0598696537931308
13.677224000000002,6.721850873340209,0.0596552842813414
13.679616000000005,6.730327702892571,0.0594344754683868
13.681996000000003,6.740806633191347,0.0592028301889676
13.684392000000004,6.7515178809156025,0.0590022280617326
13.686784000000005,6.767024726065609,0.0587891927637231
13.689164000000003,6.787187399014506,0.0585714774029187
13.691560000000004,6.801343769724153,0.0583808995793523
13.693948,6.81536037080694,0.0581973826513527
13.696328,6.828957663009147,0.0580321700331545
13.698728000000004,6.843905429651712,0.0578485439077806
13.701116,6.858713426667417,0.0576739002175667
13.703500000000004,6.873521423683123,0.0575009643816352
13.705896000000005,6.890611060698965,0.0573088005036403
13.708280000000002,6.909051172155166,0.0570985935760037
13.710664,6.930424549917563,0.0568792248087936
13.71306,6.951006531747043,0.0566577117457648
13.715448000000002,6.973078757643743,0.0564124787154781
13.717832,6.999294954660132,0.0561446023584106
13.720236,7.023648820556969,0.0558785810230562
13.722624000000003,7.048142456080665,0.0556073551064725
13.725008000000004,7.071193069365383,0.0553214751373557
13.727404,7.089168545970631,0.0550586338377706
13.729792000000003,7.11221915925535,0.0547755818566179
13.732172000000006,7.133686980674232,0.0544829466622451
13.734572,7.149148499853865,0.0542147308745492
13.736960000000003,7.159814421607746,0.0539591237847868
13.739340000000006,7.178908055227875,0.0536571608174709
13.741736000000005,7.198141458474862,0.0533504380343432
13.744124,7.217933940229291,0.0530199218686707
13.746508,7.236375947543362,0.0527099960149567
13.748904000000003,7.249882587804821,0.0524161225342823
13.751292,7.256731299520971,0.0521316905811883
13.753676,7.261438140863844,0.0518613497884922
13.756076,7.265865442952997,0.0516037500641544
13.758464000000004,7.269501349109231,0.051341655232451
13.760848000000005,7.268341657839715,0.0510875183166457
13.763244,7.264900326570062,0.0508515105714636
13.765632000000004,7.261598764927267,0.0506105097492004
13.768012,7.263372339963945,0.0503513128962883
13.770412,7.26742755500076,0.0500757607504028
13.772800000000004,7.273856957836331,0.0498171408591147
13.77518,7.283219626978095,0.0495512817313176
13.777576000000003,7.286436224253748,0.0493102812310389
13.779964,7.29044421746232,0.049074627440788
13.782348,7.297665016230809,0.0488215637030648
