Time,Force,Position
13.995536,1.4222902576722136,0.162315696819663
13.997924,1.435509775248475,0.1622246633604129
14.000308,1.451290472078594,0.161790797638311
14.002704,1.4680023344684916,0.1613390607262032
14.005092,1.4908602687244996,0.1604546886197425
14.007476,1.517862174100202,0.1593212248247479
14.009872,1.547797345782099,0.1580566629847148
14.01226,1.578012056717717,0.1567460381857294
14.014656,1.6085063069070549,0.1553557109344985
14.017055999999998,1.639280096350113,0.1539689589940025
14.019443999999998,1.6692624898602533,0.152567486010643
14.021828,1.700874897064473,0.1508918771101212
14.024223999999998,1.737702210575025,0.1488582276261471
14.026608,1.7695941570329654,0.1471940006108908
14.12456,1.8514195323425409,0.1463735653734875
14.126948,1.8578904694327456,0.1461926708023218
14.129343999999998,1.868086068762064,0.145840046713603
14.13174,1.8792128336511609,0.1454459118385844
14.134128,1.8986275407796451,0.1445131315166055
14.136508,1.9151089816019344,0.1437374136863051
14.138903999999998,1.9325215879840023,0.1429166042832332
14.141291999999998,1.9480718632465133,0.1422177335078311
14.143672,1.961899577016328,0.1416071149680103
14.146071999999998,1.976937995599641,0.140882647127668
14.148456,1.993047349369593,0.1400911789764118
14.15084,2.003010631273434,0.1396719298448465
14.153235999999998,2.0129739131772757,0.1392717167816209
14.155624,2.0215867206407574,0.1389871229464589
14.158008,2.029128592917601,0.1387669594638118
14.160408,2.038393026687141,0.1384808444976929
14.162795999999998,2.0493800219493776,0.1381333412622452
14.196252,2.125346448078039,0.1381045619277087
14.201024,2.137170165243568,0.1380441249200047
14.20342,2.146015290132527,0.1378828592493734
14.205808,2.160726947633877,0.1374699981524009
14.208192,2.179722345881781,0.1368463547832875
14.210592,2.200999384129822,0.1361110540763571
14.212976,2.2196226953253886,0.1354710176455293
14.21536,2.238106236894095,0.1348610894615712
14.217756,2.259523044768996,0.1341360622069405
14.220144,2.290158960443064,0.1330344474097584
14.222528,2.322237898356107,0.1319247837197126
14.224932,2.3603231385084014,0.1305213772422979
14.22732,2.397057904220336,0.1292445587223838
14.229696,2.4311389428797967,0.1280407386448172
14.2321,2.4614953193001434,0.1269814509817911
14.234488,2.493574257213188,0.1259006683706567
14.236868,2.526724130312869,0.1247722449986633
14.239264,2.557360045986937,0.1236791374893167
14.241652,2.58943898389998,0.122623427943322
14.244032,2.625661892932717,0.1213524905759739
14.246436,2.6497324278600933,0.1206034111659931
14.248824,2.674873897974108,0.1198064233644724
14.251204,2.697221871408788,0.1191152206537269
14.253607999999998,2.7137033122310763,0.1186541431897705
14.255992,2.7265526386128704,0.1184097903112147
14.258372,2.7361891594347485,0.1183101123900246
14.260775999999998,2.747408472122462,0.1182000070659601
14.263163999999998,2.761561051116371,0.1180021271214753
14.267948,2.7812061798124628,0.117881924984212
14.270336,2.789120139141644,0.1178348110259793
14.272716,2.795311536978129,0.1178165044509216
14.275116,2.8019222436951945,0.1177460943768378
14.277499999999998,2.8126769215319536,0.1175384764759947
14.27988,2.8262250960480486,0.1172675323167186
14.282284,2.837631400190865,0.1170759891873835
14.284672,2.851039805080099,0.1168321692727125
14.287052,2.8689642681413643,0.1165019805794218
14.289456,2.885166169709933,0.1162037320246262
14.29184,2.902439006465141,0.1158759743706706
14.29422,2.927440706952296,0.115334177644572
14.296624,2.950300537066173,0.1148651486334118
14.299012,2.975022698299607,0.1143606580108632
14.301391999999998,3.0016071906525976,0.1138109447996881
14.303788,3.0256777255799734,0.1132804832482305
14.306176,3.04988803013421,0.1127313348954827
14.308556,3.0722360035688894,0.1122282521275065
14.310952,3.0917904803242338,0.1118020766853144
14.313339999999998,3.108132151519664,0.1114899832574476
14.31572,3.1274070890212875,0.1110945264069908
14.318124,3.143329451336136,0.1108346123553743
14.320512,3.16204531033032,0.110523422084137
14.322892,3.1815525652574217,0.1102164624298537
14.325288,3.197707244997747,0.110035421667553
14.327676,3.2127909895514337,0.1098920510529105
14.330056,3.2312273092918966,0.1096359899391662
14.33246,3.246730362726165,0.1094549434602272
14.334848,3.2566464228017624,0.109379327012535
14.339628,3.2698206144076503,0.1093684598718988
14.342012,3.276151781870995,0.1093513807154756
14.344395999999998,3.2858355245211155,0.1092236478468667
14.346792,3.290863439372345,0.1091808297609031
14.349175999999998,3.295099958290656,0.109140274090603
14.35156,3.30469115314216,0.1089418990283909
14.353955999999998,3.315213513553442,0.108727765779425
14.356343999999998,3.3270863484050825,0.1084542695992888
14.358724,3.333372189898054,0.1082774659782428
14.361119999999998,3.34259129769722,0.1080352517409307
14.40172,3.255122227911386,0.107821452618664
14.40412,3.249722226007819,0.1078153151063671
14.406508,3.2509801526495608,0.1076847943959603
14.408888,3.2505155177986063,0.1075719107765583
14.411284,3.254427171492823,0.1074123813543983
14.413668,3.2629946529859306,0.1071786316006403
14.416052,3.273843774479176,0.106872723717469
14.418448,3.289535715226417,0.1063945958407938
14.420832,3.303365324854101,0.1059443916241297
14.423232,3.320919596720897,0.1054355743712373
14.425627999999998,3.3458306452673043,0.1047347886747305
14.428012,3.3719523986272097,0.1039804008964262
14.430396,3.3992848568006138,0.1031879212184163
14.432792,3.421821717548266,0.1024906298354426
14.43518,3.4428683342287,0.1018705465081284
14.43756,3.4660568212824097,0.1011945921231975
14.439963999999998,3.494180675388732,0.1004283010152952
14.442348,3.522956155801112,0.0996880977018443
14.444728,3.5528025714001306,0.0989366636018385
14.447124,3.581066195133313,0.0981764281109055
14.449512,3.610121214799413,0.0974205533074665
14.451892,3.6291657307334297,0.0968781105627826
14.454288,3.649932808160142,0.0963363720404223
14.456676,3.6684182455867176,0.0958564146900315
14.459072,3.6793145889082064,0.0954954752451261
14.461472,3.688208831483278,0.0951795504438973
14.463855999999998,3.6986858659241855,0.0948700218864749
14.46624,3.705670555551458,0.0946661647165839
14.468635999999998,3.716240137790984,0.0944265088300309
14.47102,3.724667849657232,0.0942389583264454
14.473404,3.729603216709844,0.0941542118440612
14.4758,3.7362611452551526,0.0940588289538738
14.478188,3.746783505666434,0.0939096710732949
14.480568,3.760378902010772,0.093701650729974
14.482964,3.7749054639148873,0.0934821643925197
14.485352,3.7911545873116985,0.0932585221731296
14.487732,3.8035392788425377,0.0930956326009528
14.490132,3.812990704067181,0.0929771565269243
14.49252,3.81787884929155,0.092974204170207
14.4949,3.828633527128309,0.0928848716292165
14.497296,3.838736578659011,0.0927830573982157
14.499684,3.8528438316825455,0.0926115116975608
14.50208,3.861503860974271,0.0924929768255663
14.504476,3.873516465452772,0.0922936816745762
14.506863999999998,3.891535372170524,0.091992616536586
14.509248,3.908623113328497,0.0917034030397532
14.511644,3.921986192247357,0.091458541332794
14.514031999999998,3.9372116022857737,0.0911926762702743
14.516412,3.9517853860181327,0.0909173396065483
14.518812,3.96756987456399,0.0906088466003257
14.5212,3.986427399042903,0.0902496115293759
14.523583999999998,4.005424693148676,0.0898818890191252
14.52598,4.015342649082143,0.0896641043637185
14.528368,4.022978965015473,0.089501565487698
14.530751999999998,4.030103424269605,0.0893145244671747
14.533156,4.033223682030903,0.089190560769834
14.53554,4.03699556609826,0.089080564795651
14.537924,4.045190960539031,0.0888763680578086
14.54032,4.060882901286271,0.0885292560948906
14.542708,4.072570640540678,0.0882467766030665
14.545087999999998,4.084910006101143,0.0879795616232985
14.547488,4.099391242034885,0.0876748398864502
14.549872,4.11745737058088,0.0873464392999203
14.552255999999998,4.13859653505993,0.0869795047226666
14.554652,4.158664764352341,0.0866374925154343
14.55704,4.1819457992046685,0.0862438611857723
14.559423999999998,4.20336450293744,0.085861543050719
14.56182,4.226133681110569,0.085444386379289
14.564203999999998,4.249414715962896,0.085056189488446
14.566584,4.269622714882169,0.0847122510916041
14.568988,4.285174886002549,0.0844100935731422
14.571376,4.301518453055848,0.0841140906679228
14.573756,4.324939257535035,0.0837198575052158
14.576152,4.3494309972008605,0.0833050229923614
14.578539999999998,4.372712032053188,0.0829196556987317
14.58092,4.4002768076520695,0.0824644341218894
14.583324,4.425467395452197,0.0819999137856896
14.585708,4.444232372132492,0.0816471403031062
14.588088,4.45484917620026,0.0814111694966468
14.590483999999998,4.4696099513877225,0.0811184008750165
14.592871999999998,4.482648165082488,0.0808302103669898
14.595256,4.495686378777254,0.0805468780503498
14.597651999999998,4.5091439013526,0.0802373036061081
14.600036,4.515384416875197,0.0800278495838458
14.60242,4.522556097957572,0.0798137600558924
14.604815999999998,4.524652642360476,0.0796635367321787
14.607204,4.533686654562408,0.0794390103593572
14.609595999999998,4.537226221204287,0.0793061638424323
14.611996,4.53946253523405,0.0791471358816467
14.61438,4.55105772668984,0.0788666064088264
14.616763999999998,4.5682399115043,0.078551814873656
14.61916,4.583979074079784,0.0782229005022244
14.621548,4.599578467028408,0.0779098822784874
14.623928,4.617319730350308,0.0775689322444141
14.626324,4.642278000724957,0.0771492328482685
14.628711999999998,4.662952530353053,0.0767919650368121
14.631096,4.686001247779903,0.0764461306806257
14.633492,4.717989533752199,0.0760174940573132
14.635875999999998,4.75291108603069,0.0755586364381463
14.638256,4.779544696069793,0.0751998794474101
14.64066,4.810694364280928,0.0748271713275892
14.643048,4.836629126185731,0.074517643022547
14.645428,4.857348981784199,0.0742723818213266
14.647823999999998,4.884726765927977,0.0739807025422625
14.650211999999998,4.909171283765559,0.0737156971207827
14.652608,4.936269528655617,0.073442656713326
14.655004,4.960015198358898,0.0732272890827113
14.70756,4.975471029964922,0.0732219104690938
14.709943999999998,4.96792915768808,0.0732103331389531
14.71234,4.963180782090572,0.0731849563002173
14.714728,4.957361471306425,0.0731731723881616
14.717107999999998,4.951542160522275,0.0731615197244779
14.719508,4.949727051230963,0.0731132144655825
14.721896,4.952055913059344,0.0730186290989323
14.724275999999998,4.9586685156342805,0.0728693211600885
14.726672,4.962208082276159,0.072752637389817
14.729055999999998,4.967889519291314,0.0726083246384494
14.731452,4.968495819626998,0.0725142071272103
14.733852,4.967100019216264,0.0724386752429514
14.736236,4.965192362126334,0.0723407524105764
14.73862,4.9680803024621545,0.0722123685641793
14.741016,4.972318717238335,0.07205435127649
14.743404,4.972552930521681,0.0719307920967646
14.745784,4.976279488618664,0.0717509410442747
14.748188,4.977352319663172,0.0715749161584162
14.750576,4.980706790707817,0.0713644739878602
14.752956,4.990626642499154,0.0710701541751321
14.755356,5.008694666903018,0.0707025183915473
14.75774,5.0211756979482125,0.0703601107197604
14.760124,5.030071836381154,0.0700235915074463
14.76252,5.041249614814234,0.069653477330969
14.764908,5.055640198807226,0.0692457838893338
14.767288,5.067097516494025,0.0688617206225734
14.769688,5.078974143061404,0.0684527586515235
14.772076,5.088708899255507,0.068071077201248
14.774456,5.100725295449746,0.0676574145738981
14.776856,5.110599821270709,0.067266986310389
14.779244,5.126480649330921,0.0668297049669182
14.781624,5.142221707764276,0.0664021242688597
14.784024,5.157543457317048,0.0659995938537406
14.786412,5.166347047951372,0.0656233070377091
14.788792,5.170075501906223,0.0652894000903555
14.791192,5.177668387727048,0.0649323492018077
14.79358,5.182188237614817,0.0646041302487179
14.79596,5.188430648995283,0.0642772061637949
14.798356,5.196675161122166,0.0639395735561746
14.800744,5.197283357315719,0.063691561405735
14.803124,5.190022920150466,0.0634928541094199
14.80552,5.186347375597465,0.0632902713577545
14.807908,5.186676032537297,0.0630590075718764
14.810304,5.187284228730851,0.0628123776542929
14.8127,5.188544051230462,0.0625812529377349
14.815088,5.1899436433569335,0.062342147099745
14.817472,5.192134631416324,0.0621096132767839
14.819867999999998,5.195536324289212,0.0618591605350163
14.822256,5.195725211602185,0.0616402034043824
14.824636,5.202991336341047,0.0613742192732894
14.827032,5.20853489958721,0.0611074864682338
14.82942,5.213007527646736,0.060850627414286
14.831804,5.220553191639318,0.0605720518692675
14.8342,5.232614913803932,0.0602909343761693
14.836588,5.251474334140715,0.0599802083752248
14.838968,5.267540257798162,0.0596758335763071
14.841364,5.28332664220189,0.059386952578929
14.843752,5.298181861045837,0.0591001694066894
14.846132,5.304469598396676,0.0588929685769747
14.848532,5.313970141307433,0.0586539450481957
14.85092,5.32826628164394,0.0583967924289175
14.8533,5.342562421980449,0.0581412341765485
14.855696,5.357510188623015,0.0579024085557993
14.858084,5.370827941571502,0.0577066722678934
14.86048,5.384425233773707,0.0574976664809249
14.86288,5.400676253028388,0.057293314319045
14.865268,5.419720768962405,0.0570871757472416
14.867648,5.4384857456427005,0.0568985921600817
14.870048,5.462186089375608,0.0566878459445726
14.872436,5.480531757175323,0.0565258920533107
14.874819999999998,5.496595784974901,0.0563905173457861
14.87722,5.5155930790806735,0.0562438268758284
14.879608,5.5305861716936136,0.0561184525598125
14.881992,5.546650199493192,0.0559861708951906
14.884388,5.558849795426796,0.0558681616889679
14.886776,5.574913823226375,0.0557383716139056
14.889155999999998,5.5959132180785645,0.0555890331159852
14.891552,5.622639375916284,0.0554275082810516
14.89394,5.657933015247114,0.0551969472913931
14.89632,5.694157820137719,0.0549666993530896
14.89872,5.727309589095271,0.0547560111685483
14.901108,5.7585990269332665,0.0545484719996758
14.903488,5.79081963033104,0.0543427342570084
14.905884,5.825321873728949,0.054114435608288
14.908271999999998,5.857402707499862,0.0539187988420137
14.910656,5.884827713471882,0.0537292897709707
14.913052,5.905315251644876,0.0535686413628729
14.915439999999998,5.924871624258088,0.0534097773883757
14.917824,5.940563565005329,0.0532629030744172
14.92022,5.954672713886733,0.0531030310180329
14.922608,5.971854898701193,0.0529270819827903
14.924988,5.9853124212765385,0.0527549606231154
14.927383999999998,6.0007720445983015,0.0525736927140233
14.929771999999998,6.012227466427232,0.0524108540030456
14.932156,6.0208893915768265,0.0522498761030378
14.934551999999998,6.026757820047086,0.0520919141844499
14.936939999999998,6.028761816651373,0.0519450439408401
14.939324,6.025039050270129,0.0518100518343773
14.941719999999998,6.015961607955693,0.0517129641993722
14.944107999999998,6.006092769708339,0.0516093998724785
14.946488,5.997294866647621,0.0514981036887838
14.948887999999998,5.990359294706462,0.0513855969280311
14.951275999999998,5.979978599779908,0.0512613456522966
14.95366,5.9677355737338,0.0511379715159195
14.956055999999998,5.953118359888936,0.0509945321770675
