Time,Force,Position
12.924248,1.2580515252466486,0.1768732228014387
12.926636000000002,1.2831873077870557,0.1765608709896913
12.929015999999995,1.311583117715621,0.1755508486077886
12.931416,1.3349982346212008,0.1746277271899998
12.933799999999998,1.3490091481303803,0.1743982231114909
12.936183999999995,1.360925413094526,0.174208533113329
12.938580000000002,1.378847980297922,0.1734162179814815
12.940964,1.397561943434236,0.1725943965212835
12.943344000000003,1.4185575465706877,0.171426037348186
12.945743999999998,1.4389015234010811,0.1702626223380573
12.948132,1.452447802059306,0.1697358753897755
12.950527999999998,1.4733508573971406,0.1684535820190779
12.952924000000005,1.4971871790411702,0.1669449790626404
12.955312,1.5222342054986984,0.1652509459549063
12.957696,1.5472812319562266,0.1635396988021904
12.960092000000005,1.5690229050552222,0.1620940934825281
12.96248,1.5890420166615218,0.1607811871056793
12.964860000000002,1.6062676315884865,0.1597288185189856
12.979196000000002,1.6551433962585669,0.1590015596079774
12.981592,1.6663154871180372,0.1587230609278663
12.983980000000004,1.6768359516714502,0.1584407326622358
12.986359999999998,1.6857736243590264,0.1582462822076606
12.988756000000002,1.6935005922331043,0.1581762463358411
12.991143999999998,1.7022984952938205,0.1580176721049141
12.993527999999998,1.7100254631678982,0.1579476362330945
12.995924000000002,1.7221759414153903,0.1574365233225933
13.000692,1.7360470852977097,0.1573777281215317
13.003087999999998,1.7445654491047051,0.15731390119212
13.00548,1.7550859136581185,0.1571171999970701
13.00786,1.7634645078382536,0.1570797967446238
13.010255999999998,1.7718431020183898,0.157039447768933
13.012644000000002,1.7831549625047205,0.1568140097230631
13.015028,1.7967484629911885,0.1563984300197024
13.017423999999998,1.8094107979178784,0.1560257158544387
13.019812000000002,1.8215612761653703,0.1556025569392934
13.022191999999997,1.8414878399730528,0.1545079132287305
13.024588,1.8620660300867928,0.1534765866110377
13.026975999999998,1.8827839898273933,0.152483452354433
13.029372000000002,1.90522451106069,0.1514571204968182
13.031768,1.9304585289733216,0.1503181670295847
13.03416,1.9536904461395368,0.1493271470485907
13.036540000000002,1.9781330681192504,0.1482284301866926
13.038944,2.0042982515916608,0.1471121480484625
13.041331999999995,2.033536470997126,0.1458170153609671
13.043712,2.062634920775731,0.1445683163055468
13.046107999999997,2.091593600927476,0.1433560663619071
13.048499999999995,2.1161759925340498,0.142313134750246
13.117787999999996,2.419391966600507,0.1414710196790506
13.120176,2.428237091489467,0.1413271676171272
13.122556000000005,2.438572460445645,0.1410605250068916
13.124952,2.4486282901481027,0.1408300227487388
13.127339999999997,2.460825990223838,0.1404808170886195
13.129724000000005,2.4730236902995744,0.1401265003606272
13.13212,2.483079520002032,0.1398899804095231
13.134507999999997,2.489410687465377,0.1397913063801245
13.136892000000003,2.503098631608332,0.1393342277583703
13.139288,2.5138533094450914,0.1390075997900943
13.141672,2.5287519584015445,0.1384860830776061
13.144052000000002,2.545932247358135,0.1378303962586424
13.146456,2.563112536314725,0.1371803748633444
13.14884,2.579641198965257,0.1365168196611029
13.151220000000002,2.589511933070481,0.1361015319189446
13.153624,2.6009654590415416,0.1356595599560275
13.156011999999995,2.6156317905725173,0.1350477322083792
13.158392,2.631880913969329,0.1344195343255073
13.160787999999997,2.642915131059809,0.1340679761918676
13.165556000000002,2.6530635085608845,0.1339443911562675
13.167955999999997,2.6573925752778127,0.1339429640916612
13.170340000000005,2.664654908300936,0.133835518504982
13.172719999999998,2.6740591116973365,0.1336283486588209
13.175123999999997,2.6843944806535154,0.1333935015289392
13.177512,2.695940554423192,0.1330902852981533
13.179892000000002,2.708697333006368,0.132721102210338
13.182288,2.719591780469988,0.1323993012956906
13.184676000000003,2.7236885297614384,0.1323309515562112
13.187055999999998,2.728716444612667,0.1322341700954645
13.189456,2.7357464602103136,0.1320692490963389
13.19184,2.7407743750615423,0.1319783139842105
13.196632,2.746174376965109,0.1319339800899132
13.199019999999996,2.753856018868813,0.1317700296013413
13.2014,2.762888135212876,0.131523437700728
13.203803999999998,2.7736428130496344,0.1312479481405565
13.206192,2.7816039942070585,0.1310557709787412
13.208576,2.7872835353643453,0.130974876650497
13.210971999999998,2.80139078838788,0.1305466207478913
13.213360000000002,2.816848515851774,0.1300302090922244
13.215739999999997,2.825368775516639,0.1297613423383768
13.218136,2.830815999248449,0.1296166582435418
13.220523999999996,2.838405093353536,0.1293873870734316
13.222904,2.8450630218988446,0.1291857931870421
13.225307999999998,2.8518607200710138,0.1289691636562587
13.227696000000002,2.860241210109019,0.1287428743630431
13.230075999999997,2.874488232759414,0.1283295299668157
13.232472,2.893530852835561,0.1277762651008862
13.234859999999998,2.909640206605513,0.1273122477971408
13.23724,2.9197432581362137,0.1270574400428573
13.239635999999996,2.9347816767195267,0.1266505949352462
13.242024,2.952613591982176,0.1261698115159915
13.244408,2.9737980824315997,0.1255529194292877
13.246803999999996,2.9959137384408017,0.124922898377412
13.249192,3.019240099263503,0.1242602645574862
13.251572000000005,3.03991273303373,0.1236611468265741
13.253968,3.0648691075505106,0.1229167238966468
13.256355999999997,3.0910361868807894,0.1221091758081554
13.258736,3.111848590277876,0.121517078832444
13.261136,3.1322416847943817,0.1209723626347887
13.263523999999997,3.157290607109779,0.1203021503551694
13.26592,3.181548133492259,0.1196323883712431
13.268316,3.2015219191281843,0.1191243248364586
13.316088,3.284567478540605,0.1190352168217016
13.318496000000003,3.2942512211907258,0.1188880139651183
13.320880000000002,3.307147769400762,0.1186443259928871
13.323259999999998,3.322837814290133,0.118348303837865
13.325656000000002,3.336805297686808,0.1180735448992027
13.328043999999998,3.357570479255651,0.1176425703583045
13.330424,3.3780561215707743,0.1172496120963871
13.332828,3.4004040950054537,0.1168184256166181
13.335216000000004,3.4178167013875216,0.1165100744494421
13.337595999999998,3.4419344581431406,0.115989006664178
13.339992000000002,3.4637705748986227,0.1155449455060386
13.34238,3.48281319497477,0.1151555556133858
13.34476,3.504137455051054,0.1146874092761173
13.347164,3.5326787221800875,0.1140351776499067
13.349552000000005,3.566434895615453,0.1132390940039994
13.351931999999998,3.597118033117764,0.1125339735298728
13.354332,3.6292914146872937,0.1117589290813638
13.356720000000005,3.660813169950765,0.1109795524867077
13.359099999999998,3.691915616333657,0.110243532179176
13.361496000000002,3.727953429769161,0.1094171353947723
13.457064000000004,3.735918402642323,0.108727440599195
13.459443999999998,3.739643064881436,0.1086705493074461
13.461844,3.7457891367475455,0.1085340858545335
13.464232000000004,3.757661971599187,0.1083018104978785
13.466611999999998,3.7726078423838834,0.1080004963960329
13.469008000000002,3.794351411340749,0.1075775711518617
13.471396,3.818888476976949,0.1071101472312091
13.473792000000005,3.837559010000758,0.1067550673384195
13.476188,3.856601630076905,0.1064452993384483
13.478575999999997,3.873642149406635,0.1061797282763403
13.480956,3.891241747243807,0.1058645433470972
13.483351999999996,3.910052049894476,0.1055125609216027
13.48574,3.93300632366484,0.1050794864507637
13.488124,3.960756194860955,0.1045716065950822
13.490519999999997,3.990787706057208,0.1039950640253961
13.492908,4.01616338945457,0.1034867722737204
13.495288000000002,4.038326267292015,0.1030519881301281
13.497684,4.06169984994296,0.1025775619668325
13.500072000000005,4.08814646852696,0.1020384634861104
13.502451999999998,4.114221000058622,0.1014804776756333
13.504848000000004,4.140435301217145,0.1009217648579817
13.507236,4.161434696069335,0.10047626310499
13.509616,4.180152450921388,0.1000916058152336
13.51202,4.196496017974686,0.0997177437088575
13.514408000000005,4.211768649841346,0.099369085338974
13.516792000000002,4.222897310588312,0.0991059779757162
13.519188,4.231232474655942,0.0988764156727934
13.521576000000003,4.243059983537209,0.0985542983022148
13.523960000000002,4.250930512753887,0.098234017512695
13.526359999999997,4.2585215027168415,0.097936667020034
13.528748,4.266764118985856,0.0976523832785324
13.531132,4.271421842642615,0.0974009164811578
13.533527999999995,4.272075364806543,0.0972193087336482
13.535916,4.264860253611664,0.0971592513878277
13.5383,4.258576307976561,0.0970878508566005
13.540695999999995,4.254434232714737,0.096971480269971
13.543084,4.253644732639688,0.0967763008462383
13.562199999999995,4.1489953738972645,0.0966032055624503
13.564588,4.132376059305983,0.096591094051637
13.566968000000005,4.120831881394175,0.0964887076472597
13.571751999999996,4.092341627809123,0.0964634721931551
13.574132,4.078887896949516,0.0964513601787851
13.576532,4.063711604597212,0.0964489294447422
13.578916,4.053982535976717,0.0963925694755552
13.581296000000002,4.041180431423166,0.0963922720295741
13.5837,4.042532801721395,0.0961505174163733
13.586087999999997,4.044816337579401,0.095900384065015
13.588468,4.051104074930242,0.0955912394140146
13.590868,4.059393913027498,0.0952562810643491
13.593252,4.0704772478040905,0.0948940555258759
13.595636,4.084214309633156,0.0945132911552279
13.598032000000003,4.105680235194171,0.0940299554668717
13.60042,4.136457816352968,0.0934481251463
13.602815999999995,4.169889124564239,0.0928570701771831
13.605212000000002,4.200479714267933,0.0923636070031668
13.607599999999998,4.231349843225347,0.0918425093264465
13.60998,4.264733929608376,0.0913219667904172
13.612375999999998,4.298909411924322,0.090807798351284
13.614759999999997,4.328661383866855,0.0903902723185171
13.61714,4.36199824842164,0.0899485773936959
13.619543999999998,4.400270480029037,0.08943810006106
13.621932,4.440265273129132,0.088928617167078
13.624312000000003,4.487849160334312,0.0883514705763356
13.626711999999998,4.5355728171663525,0.0877804721078752
13.629095999999995,4.589814632916841,0.0871476039096115
13.631480000000003,4.631624535308249,0.0867265151371583
13.633884000000002,4.671572106580101,0.0863271595575289
13.636271999999998,4.708027333038316,0.0860122094879628
13.638652,4.740990214682895,0.0857748941527533
13.641047999999998,4.773813326700613,0.0855521963713552
13.643436,4.808498769837887,0.0853183273939195
13.645816000000003,4.840390716295827,0.0851110750376883
13.648212,4.87177080607457,0.0848923031845668
13.650599999999995,4.903011126226453,0.0846886640307285
13.65298,4.941608223057944,0.0843861923167135
13.655383999999998,4.984069751755409,0.0840505260917208
13.657772,5.026810819706594,0.0837054015501118
13.660151999999997,5.071274449150477,0.0833619713016028
13.662556000000002,5.120952984900691,0.0829540351533942
13.664943999999998,5.168257332852152,0.0825433039145173
13.667324,5.216912155243972,0.082111828489032
13.669724000000002,5.264915351329732,0.0816773682430928
13.672108,5.301185482190713,0.0813510249152821
13.674492,5.334382577118639,0.081063362992916
13.676887999999998,5.363343153128251,0.08078168941281
13.679271999999996,5.39644770025756,0.0804480696832119
13.681652,5.429412477760008,0.080123626761967
13.684055999999998,5.462377255262456,0.0797997997342121
13.686444000000002,5.495621572018624,0.0794576640234172
13.688823999999997,5.527143327282095,0.0791209968977909
13.69122,5.557873686612649,0.0787866449702543
13.693607999999998,5.588324506689483,0.078469122821288
13.695991999999997,5.612629254900206,0.0782209865771589
13.698396000000002,5.632417944938896,0.0779929281441913
13.700784,5.641264965685726,0.0778668207732257
13.703164,5.646387324193441,0.0777629449571078
13.705564000000004,5.647505481208323,0.0776971831167369
13.7175,5.599880059748508,0.0776656615037823
13.719896,5.588381207807074,0.0776457961874259
13.722284000000002,5.575299563999803,0.0776193831632172
13.724663999999995,5.563568394632891,0.0775624708315515
13.727060000000002,5.550394203027003,0.0774903884309235
13.729447999999998,5.537639320301697,0.0773934622746537
13.731831999999995,5.524652120150913,0.0772604310750063
13.734228000000002,5.51208422888071,0.0771027350644959
13.736615999999998,5.4995163376105065,0.076944753677131
13.738999999999995,5.484294719287828,0.0767922276546902
13.741396000000002,5.472705215405646,0.07657810657358
13.743783999999998,5.462605955590684,0.0763264524288312
13.746164,5.453577630962359,0.0760609986215189
13.748564000000002,5.451906083013643,0.0757142553458342
13.750951999999998,5.44944313913201,0.0753624026131131
13.753332,5.445397403384541,0.0750011349372407
13.755727999999998,5.4384184013308765,0.074660043158108
13.758116,5.431439399277212,0.0743178287854563
13.7605,5.425950641290767,0.073938986741101
13.762895999999998,5.427539120730211,0.0734945261420405
13.765284,5.430198535356294,0.0730357861395999
13.767668,5.430576309982239,0.0726125833397704
13.770063999999998,5.434538977220439,0.0721808326313011
13.772452,5.438594192257255,0.0717951136257206
13.774832000000004,5.442369868040349,0.0714249356142759
13.777231999999998,5.446005774196584,0.0710636361968492
13.77962,5.449222371472238,0.0707273718093002
13.782016,5.451368033561254,0.0704032203894956
13.784412000000003,5.449789033411155,0.0700928721583875
13.7868,5.4482100332610575,0.069781702929495
13.789184,5.44048496124485,0.0695264067489505
13.791580000000003,5.4352738466542565,0.0692762177841259
13.793968,5.433135767996718,0.0689992358986574
13.796348000000002,5.42964721489882,0.0687513627777806
13.798748000000003,5.429883324040036,0.0684895498242983
13.801136,5.43691713135342,0.0681888557261944
13.803516000000002,5.450608867212113,0.067857740387812
13.805916000000003,5.465743625309781,0.0675439402123318
13.808304,5.478037664899871,0.0672930171690773
13.810684000000002,5.488981230049603,0.0670710741343183
13.81308,5.499365716691893,0.0668801604960982
13.815464,5.507608332960907,0.0667107601199142
13.817847999999998,5.513848848483503,0.0665564553602221
13.820244000000002,5.519437737700044,0.0663899383059063
13.822632,5.525678253222641,0.0662356335462143
13.825015999999998,5.532430625424436,0.0661021097970856
13.827412000000002,5.539043227999372,0.0659765564210903
13.8298,5.547098852813281,0.0658683436676436
13.83218,5.563674737292057,0.0657250474506308
13.834575999999998,5.579179686584195,0.0655925062060953
13.858468000000002,5.623873737595684,0.0655862553513213
13.860847999999995,5.6241532768494045,0.0655709224839637
13.863244000000002,5.626714456103263,0.0655268353340135
13.865631999999998,5.627692843491283,0.0654728745524798
13.868032,5.630813101252581,0.0653983949710576
13.870427999999997,5.6354236030811,0.0652908837039125
13.872816,5.640593183417058,0.0651534956176112
13.875196000000004,5.645111137446959,0.0650034734934774
13.877595999999995,5.6492570044245225,0.0648261340913585
13.879984,5.645674007670139,0.0646852516179746
13.882368,5.647957543528145,0.0645147282591962
13.884768,5.649729222706953,0.0643251528296766
13.887155999999996,5.656855577818955,0.0640867144268163
13.889536,5.667334508117732,0.0638116437346148
13.891936,5.681026243976424,0.0635082406574746
13.894323999999996,5.703005922074505,0.063143170784613
13.896704,5.726475844239805,0.0627461579712397
13.899104,5.751296240845464,0.0623250183230312
13.901491999999998,5.775837098197402,0.0619203601986593
13.903872,5.796513523683367,0.0615311524641457
13.906272,5.817329718796192,0.061136336390359
13.908659999999998,5.835212647602823,0.060759153827495
13.911043999999997,5.859241648275564,0.0603474689049901
13.91344,5.888066246374056,0.0599215299035114
13.915832000000002,5.914888743726132,0.0595103037478706
13.918216,5.939569370704931,0.0591187428666269
13.920611999999998,5.962387666564172,0.0587330070283553
13.923000000000002,5.9850661927965545,0.0583541828277544
13.925384,6.007604949402076,0.0579843097201436
13.927784000000004,6.037220943433487,0.057576698806644
13.930172,6.06483483671848,0.0571856711152268
13.932555999999998,6.089655233324139,0.0568000975124655
13.934959999999997,6.113404694743159,0.0564287355728914
13.937348,6.134360659482844,0.0560634169796798
13.939728000000002,6.153174753849251,0.0557169117271243
13.942124,6.167053481163049,0.0553944833834372
13.944512000000003,6.181583834782902,0.055085913592859
13.946891999999998,6.19983885064187,0.054776411866261
13.949288000000005,6.217442240194779,0.0544550501626133
13.951680000000003,6.246127068666412,0.0540871945677533
13.954059999999998,6.273601192324545,0.053734572307617
13.956456000000005,6.302797877475375,0.0533890251262383
13.958844,6.323706620386817,0.05309397875695
13.961224,6.341402557738343,0.0528230600982191
13.963628,6.356816855089734,0.0525727153212188
13.966016000000003,6.375164418747318,0.0523146784366639
13.968395999999998,6.396817335763435,0.0520748901593256
13.970792000000005,6.421543288712607,0.0518216013669575
13.97318,6.449062738341115,0.0515688327017142
13.975560000000002,6.472298447223068,0.0513468298637538
13.977960000000005,6.493392285731744,0.0511398958474728
13.980348,6.521144052785727,0.0509253168426633
13.982732,6.541958352040684,0.0507330864135139
13.985128000000003,6.564774752042056,0.0505348853377084
13.987516,6.588662087230068,0.0503310504104197
13.9899,6.616413854284053,0.0501220991221606
13.992292,6.639090484658565,0.0499326265412741
13.994680000000002,6.653618942420551,0.0497776576291128
13.997064000000002,6.670521587981291,0.049641317449046
13.999468,6.675271859436669,0.0495534341881878
14.001852,6.681744692384744,0.0494713350434947
14.004236,6.685563798280342,0.0493840515768821
14.006632000000003,6.689243134549082,0.0493024557932763
14.00902,6.692131074884903,0.0492147731762537
14.011400000000002,6.69823182078064,0.0491075979288816
