Time,Force,Position
15.008320000000005,1.793848006220786,0.1466595071873154
15.010708,1.8029254485352229,0.1465292254743537
15.013092,1.813865221969216,0.1462892889702859
15.015488000000005,1.821871729097014,0.1462260935507294
15.017876,1.833091041784728,0.1459191051940524
15.020256000000003,1.84538128965908,0.1455459469946748
15.022656000000003,1.8626069045860445,0.144893740588925
15.025040000000004,1.8790411235800908,0.1442842250405429
15.02744,1.8959871992533348,0.1437173353804183
15.029836000000005,1.914655836419275,0.1430986701998157
15.032224,1.9359782006376904,0.1424002504735378
15.034608,1.957160795229245,0.1417098665895068
15.037004000000003,1.9803454905672169,0.1409811250981887
15.039392,2.009536488144439,0.1399678843934794
15.041772000000002,2.0470154279610493,0.1384930459030881
15.044172000000003,2.087195316658377,0.136836816097921
15.04656,2.120717276810397,0.1355402482526818
15.048940000000002,2.153447841029498,0.1342631104010201
15.051336,2.18603863562174,0.1330277689620724
15.053728,2.2193282783482817,0.1316879034098054
15.056108000000002,2.247822323649072,0.1305844190006022
15.058504,2.279529174509778,0.1293388016867406
15.060896,2.3105843990644264,0.1280628457496787
15.063276000000002,2.339357983618937,0.126870407014258
15.065676000000003,2.367852028919728,0.1257372785662596
15.068064,2.396346074220518,0.1246402426989743
15.070448,2.420835918028475,0.1237561770783356
15.072844000000003,2.447979488888906,0.1228362387840776
15.075232,2.4763337645628365,0.1218563064174263
15.197092000000003,2.847900703261187,0.1212292881338987
15.199472,2.848971638447826,0.1211906716749463
15.201872000000002,2.851253278447963,0.1210946524583314
15.204260000000003,2.851393048074823,0.1210772429258606
15.20664,2.8573993503140738,0.1208865378618733
15.211428000000003,2.861683091060628,0.1207197020216931
15.213808,2.863964731060766,0.1206196148606315
15.216208000000002,2.864384039941346,0.120565423479053
15.218596000000003,2.865082888075648,0.1204742041627718
15.220976,2.866992441023447,0.1203225140547468
15.237716,2.861175026097169,0.1200868908922235
15.240104000000002,2.862897587589865,0.1200582823082379
15.247272000000002,2.871697386508451,0.1198014385474297
15.249652000000005,2.8755618183744245,0.1197003362509836
15.252048000000002,2.885712091733369,0.1193925136961711
15.254436000000004,2.8930688684129784,0.1191484057564428
15.256816,2.9053610121452,0.1187654728681293
15.259212000000003,2.9210057310641977,0.1182502219374049
15.2616,2.932506478863501,0.1178703092291124
15.263984,2.948942593715417,0.1173491351212373
15.266380000000003,2.9680324356198065,0.1167829219431
15.268768,2.982978306404503,0.1163457525964813
15.271148000000004,2.9968532420025604,0.1159436566289882
15.273544,3.013661443906813,0.1154636560407241
15.275932000000005,3.031400811370845,0.1149593543196974
15.278316000000004,3.0496992573423167,0.1143869855186211
15.280712,3.069068638500427,0.1137806206021193
15.283100000000005,3.0855047533523425,0.113245731787671
15.28548,3.102592494510316,0.1127318469508227
15.287876000000004,3.114884638242537,0.1123489140625093
15.290264,3.117957674175593,0.1122538338911303
15.292644000000005,3.128899343467455,0.1119476798105107
15.29504,3.1359765808933444,0.1117390440794974
15.297428000000004,3.1419828831325947,0.1115730105641681
15.299812000000005,3.1447763798119297,0.1115164598005198
15.302208,3.1483612724241827,0.1114562736688079
15.304596000000004,3.1536687265291325,0.1113775257348677
15.306992,3.159767576567001,0.1112987270329917
15.309388000000006,3.17080179365748,0.1111010546345101
15.311776000000002,3.184909046681015,0.1108331042877294
15.31416,3.197573277465574,0.1105577564506608
15.316556000000006,3.216523349743104,0.1101088613272962
15.318944000000002,3.2366841268341324,0.1096110980137692
15.321328,3.2557739687385223,0.1091528772489098
15.323728000000004,3.2757949762026906,0.1086804272979092
15.326116,3.296467609972917,0.1082253663018556
15.328496,3.3159295389296446,0.1078178471107647
15.330896000000005,3.344331036431818,0.1072177206003004
15.333284,3.371009972441295,0.1066393530413462
15.335668000000004,3.399131930689748,0.1060682255493455
15.338064000000005,3.4347504352446707,0.1052810838068989
15.340452,3.460358436067509,0.1047262924757931
15.342836000000004,3.4890394728234035,0.1040912872110471
15.345240000000004,3.5138560777133234,0.1035366626266231
15.347628,3.537881286670326,0.1029874793487683
15.350008000000004,3.565398840440964,0.102331729792435
15.352408000000004,3.588400336039571,0.1017484988185402
15.354796,3.6072578605184846,0.1012672107759392
15.357176000000004,3.619177917198369,0.1009318319072222
15.359572,3.624951902012141,0.1007473041564414
15.361960000000003,3.631657052385693,0.100550226687617
15.36434,3.6390138290653034,0.1003730229529511
15.36674,3.649303872051107,0.1001452931504192
15.369128000000003,3.6580111231710752,0.0999187126412022
15.371508,3.665787208731265,0.0997063613181264
15.373908,3.673703063918316,0.0994828534003336
15.376292,3.680967292799308,0.0992453027177211
15.378676,3.680362888321493,0.0991538307220692
15.381072000000003,3.6798982534705376,0.0990493716654496
15.38346,3.68306573306008,0.0988318622807773
15.385844,3.683811803022624,0.0986923403100738
15.388240000000003,3.6947081463441127,0.0983560544554163
15.390628,3.7093291519047153,0.0979807698282462
15.393012,3.726743654144652,0.0975686959911691
15.395408000000003,3.748534444929761,0.0971310302349102
15.397796,3.767764056461012,0.0967858514669781
15.400176000000002,3.7849915672458447,0.0964709046825993
15.402576000000003,3.80701467545643,0.0960857047472913
15.404964,3.8349043162794056,0.0956006602935179
15.407348,3.862793957102381,0.0951093851208425
15.409752000000005,3.891055684977695,0.0946620029443409
15.41214,3.9131713409868976,0.0943355473991706
15.414520000000005,3.933005356995962,0.0940747198923316
15.416916,3.955213560803782,0.0938183624089587
15.419304000000004,3.9824969012910736,0.093479934564841
15.421684,4.007498601778228,0.093198365264697
15.424080000000004,4.037016360437415,0.0928795260811756
15.426472000000004,4.071050177268631,0.0925189908935646
15.428852,4.1040130589132096,0.0921805758292001
15.431252,4.130829868691678,0.0919586372245676
15.433640000000004,4.156435973656647,0.0917703052769658
15.43602,4.177106711569004,0.091664712869477
15.445588,4.219377457095627,0.091650738327157
15.447976000000004,4.234880510529894,0.0915785505056647
15.450356,4.248940541725187,0.0914944765122205
15.452752000000004,4.262348946614421,0.0913999719256963
15.45514,4.277899221876932,0.0912650714547169
15.457524,4.292006474900466,0.091116627915719
15.459920000000004,4.307603971991222,0.0909120597213841
15.462308,4.324412173895475,0.0906787148078359
15.464692,4.341639684680309,0.0904168366315472
15.467088000000004,4.352860893225891,0.0902452253384697
15.469476,4.365292806584973,0.0900419930564165
15.471856000000002,4.372137726585384,0.0898931268112079
15.474256000000004,4.374466588413765,0.0897778886926913
15.476644,4.377447076548203,0.0896746461807615
15.479024000000004,4.383640370242556,0.0895123947269122
15.481424000000004,4.389321807257713,0.0893262281318145
15.483812,4.396725805765565,0.0891342110446506
15.486192000000004,4.405712596139255,0.0889434346445403
15.488592000000004,4.410974724273831,0.0887887800638235
15.490976000000003,4.416376622035267,0.0886216439525099
15.493360000000004,4.42243014610276,0.0884675740415241
15.495756,4.423036446438444,0.0883588581819075
15.498144000000003,4.422571811587489,0.0882699111324409
15.500528000000005,4.423969507856092,0.0881647653797424
15.502924,4.424156499311196,0.0880893012410435
15.505312000000004,4.42341232520652,0.0880221707850743
15.507696000000005,4.426392813340958,0.0879220158489839
15.510092,4.426579804796062,0.0878470419686758
15.512480000000004,4.424764695504749,0.0877989948053405
15.514864000000005,4.422949586213434,0.0877508133159602
15.51726,4.42234518173562,0.0876738745375818
15.519648000000004,4.422811712444443,0.0875779258544948
15.522032000000005,4.427422214272962,0.0874185639852925
15.524428,4.433802499422419,0.0871897730721516
15.52682,4.437109748638822,0.0870055656085743
15.529200000000005,4.4444211993480565,0.0867708279304053
15.531600000000005,4.446145656698622,0.0865822731389225
15.533988,4.452014085168881,0.0863325490833892
15.536368000000005,4.461886715131974,0.0860315761197165
15.538768000000005,4.472550741027986,0.085731005894214
15.541156,4.480840579125242,0.0854224778034772
15.54354,4.485405754983386,0.0851431103840553
15.545940000000002,4.493183736401446,0.0848125260701424
15.548328000000003,4.496166120393753,0.08453198563678
15.550712000000004,4.50077851808014,0.084193789874098
15.553108000000002,4.504319980579889,0.083871346461526
15.555500000000002,4.505207716027163,0.083563635608627
15.557880000000004,4.50423312035488,0.0832684823504428
15.56028,4.502187589495957,0.0829906000466794
15.562668000000002,4.501212993823676,0.0826943813136826
15.565052,4.501169563711171,0.0823929423346431
15.567468000000003,4.500055198412028,0.0821073821301491
15.569856,4.493865696433413,0.0818889872707676
15.572236000000004,4.486977346320495,0.0817223011984123
15.574632,4.485164132887052,0.0814894693972201
15.577020000000005,4.479346717960775,0.0813056952932835
15.579404000000004,4.479535605273746,0.0810490577121722
15.5818,4.476930995907384,0.0808146201303588
15.584188000000005,4.475397321727661,0.0805660299976846
15.586572000000004,4.476936683480991,0.0802789177741122
15.588972000000004,4.482992103406356,0.0799708220631012
15.591360000000002,4.493703351130609,0.0796289969956865
15.593744,4.497057822175254,0.079391173007377
15.596140000000004,4.503066020272374,0.0791437544701226
15.598528000000002,4.509725844675552,0.0789127931804178
15.600916000000003,4.521321036131342,0.0786326499692018
15.603316,4.53398716277377,0.0783391301109016
15.605704000000005,4.551309117215089,0.0780156328503369
15.608084000000003,4.570772942029685,0.077661622972316
15.610484,4.590236766844282,0.0773086490349753
15.612872000000005,4.605696390166046,0.0769996579028881
15.615252000000003,4.629024646846616,0.076620443508141
15.617652,4.6600817672591335,0.076179807901927
15.620040000000005,4.690766800619313,0.0757092628862212
15.622424000000002,4.720520668419715,0.0752550424936424
15.62482,4.750926162526175,0.0748130883162634
15.627208000000005,4.775837211072582,0.074453939070225
15.629592000000002,4.797535454059073,0.0741372953896663
15.631988,4.815881121858787,0.0738780181968422
15.634376000000003,4.833295624098724,0.073627774505848
15.636760000000002,4.846985464099548,0.0734000058721254
15.639156,4.863748340033427,0.0731433704120481
15.641548,4.886517518206557,0.0728274378136204
15.643928000000002,4.909426466006546,0.0725045158166921
15.646328000000004,4.928051673059982,0.0722380562679873
15.648720000000004,4.943883383434082,0.0719897143143483
15.651104000000004,4.956222748994547,0.0718009679663027
15.6535,4.966560013808595,0.0716319299298091
15.655892,4.976617739368922,0.0714822387798088
15.658272000000004,4.987466860862169,0.0713375556906553
15.660672000000003,5.002180414221388,0.0711658192847774
15.663060000000002,5.00795439903516,0.0710721164713345
15.665440000000004,5.0078618512365445,0.0710234648885228
15.670224000000005,5.007489764184206,0.070992467076633
15.672608000000004,5.008980008251424,0.0709535603654649
15.675004,5.017966798625113,0.0708253229831753
15.677396000000002,5.033891056797831,0.0706430059218767
15.679776000000004,5.046230422358296,0.0704664408798845
15.682172,5.0570795438515415,0.0703292980935947
15.684564000000002,5.069790996464344,0.0701843806333205
15.686948,5.076356377211035,0.0700995993198958
15.689348000000004,5.083992693144365,0.0700037687691997
15.691736,5.089766677958139,0.069916010327452
15.694120000000003,5.099824403518466,0.069778519946727
15.69652,5.1116046905714905,0.0696431651707228
15.698908000000005,5.127808487997928,0.0694503176584117
15.701292000000002,5.146014386170783,0.0692427116757885
15.703692000000004,5.164499823597359,0.0690199558774169
15.70608,5.186198066583849,0.0687650442739143
15.708464,5.205242582517866,0.068514303184728
15.710860000000004,5.2285708391984365,0.0682156161979483
15.713252000000004,5.254180735879144,0.0678862613621669
15.715632,5.281792733306268,0.0675462449931683
15.718032,5.30689077330778,0.0671992337928778
15.720420000000004,5.330778108495791,0.0668761937628703
15.722804000000004,5.349310767750611,0.0666135505837749
15.725204000000003,5.361837124766178,0.0663958116142875
15.727596000000004,5.379159079207498,0.06615279638739
15.729976,5.397179881783119,0.0658694236717982
15.732376000000002,5.414409288425821,0.0655827268534781
15.73476,5.436853601374855,0.0652493749480336
15.737144,5.453571151338362,0.0649437847704797
15.739540000000003,5.473221967608061,0.0646227286357014
15.741924000000004,5.489939517571568,0.0643203466739088
15.744304,5.502652866042237,0.0640457764533911
15.746704,5.512153408952994,0.0638051225223551
15.749088,5.516998124064857,0.0635786804471159
15.751472,5.5176988680570265,0.0633869761044041
15.753868000000004,5.513464244996585,0.0632262060828183
15.756252000000003,5.512814514548396,0.063063001644162
15.758632,5.514818511152683,0.0629013869930852
15.761032,5.51547203331661,0.0627661784206055
15.763420000000004,5.511050418801064,0.0626671249604441
15.7658,5.506349265031799,0.0625831425863804
15.768196000000003,5.5017878808893945,0.0624914737672061
15.770584,5.500718841560625,0.0623536794101982
15.772964000000002,5.506075413351686,0.0621558587496389
15.775364000000003,5.509709423650052,0.0619553632557997
15.777752,5.515065995441113,0.0617592351199453
15.780132000000002,5.5230762942846505,0.061565557093672
15.782528,5.527734017941412,0.0614099417372536
15.784916000000004,5.5399808357032585,0.0612309150197207
15.787300000000002,5.551156718278468,0.0610630367164287
15.789696,5.565126097533012,0.0608898325819313
15.792084000000004,5.58309967828039,0.0606936514655413
15.794464000000003,5.60600862608038,0.0604744501431831
15.796860000000002,5.635715272052538,0.0602287514043967
15.799248,5.67063682433103,0.0599441102549918
15.801632000000003,5.70555837660952,0.059659354377224
15.804028000000002,5.732751065156064,0.059403769099079
15.806420000000005,5.755148156276856,0.0591676129934043
15.808800000000003,5.7764743122110085,0.0589399388564712
15.811196000000002,5.80022187777216,0.0586785863795337
15.813584,5.830255284826282,0.0583713845169577
15.815968000000003,5.856004951133851,0.058100069296966
15.818364000000004,5.878402042254642,0.0578657774477407
15.820752,5.897446558188658,0.0576699658386136
15.823136000000003,5.921146901921568,0.057468445286865
15.825532000000004,5.942845144908059,0.0572790407461061
15.827924000000005,5.958816624909019,0.0571063347014602
15.830304000000003,5.974416017857643,0.0569063899748659
15.832700000000004,5.979353280768123,0.0567444261794406
15.835092000000005,5.984290543678605,0.0565832010079341
15.837472000000004,5.989647115469666,0.0564021300240324
15.839868000000004,5.993420895394893,0.0562105291477357
15.842260000000003,5.992678617148087,0.0560195005781145
15.844640000000004,5.98565049740831,0.0558715502422131
15.847036000000005,5.975409572108618,0.0557482270273303
15.849424,5.9662395819955645,0.0556163029870719
15.851808000000004,5.962144728561983,0.0554563798637835
15.854204000000005,5.961122911061458,0.0552792459133737
15.856592,5.9626622728147884,0.0550649352268305
15.858976000000006,5.964993030501038,0.0548572635264162
15.861372000000005,5.961177716321177,0.0546842240176767
15.86376,5.962065451768452,0.054458079601124
15.866144000000006,5.964163892029225,0.0542168303680852
15.868540000000005,5.963468835610662,0.0539780996041264
15.870932000000003,5.960120052139625,0.0537370584946869
15.873312,5.957842203855225,0.0534887475620513
15.875712,5.960639492250299,0.0532156002830943
15.878100000000003,5.964228176578288,0.0529486560958911
15.88048,5.9768961990785865,0.05263981689696
15.882876000000005,5.985979328966631,0.05232647937471
15.885268000000003,5.989847552548343,0.0520442264427652
15.887648,5.993576006503194,0.0517694245448336
15.890048,5.997024921204327,0.0515080063050225
