Time,Force,Position
14.148172,1.9579123314909663,0.1441045631937966
14.150568,1.9712281885815837,0.1434654958440722
14.152956,1.9846838152990605,0.1427976805119735
14.155335999999998,1.9962771108969808,0.1422343638490456
14.15774,2.011874607987735,0.1414504099250809
14.160128,2.028403270638267,0.1406457074633155
14.162508,2.048656595527913,0.1396787570543187
14.164912,2.076499014522646,0.1383512146047567
14.1673,2.105691907957737,0.1369105091121039
14.16968,2.134745031765968,0.1355063635545753
14.172076,2.1605853500142844,0.1343650709651974
14.174464,2.183073093075824,0.1334083099827695
14.176844,2.200625469084752,0.1326876188369795
14.17924,2.2177585362131,0.1320524451030794
14.181628,2.236893704087864,0.1313242723647104
14.184008,2.249882800096517,0.1309229497225428
14.186412,2.267387954277201,0.1303719364770318
14.1888,2.284893108457886,0.1298562403026238
14.19118,2.301187557825072,0.1294277250274983
14.193584,2.313757344953145,0.1291456810285164
14.195972,2.32404549208108,0.1290050228431373
14.198352,2.3402001718214063,0.1286336740939774
14.200755999999998,2.35728601712151,0.1282335042119101
14.203143999999998,2.3766535024217523,0.1277256767055835
14.205524,2.3932274910426585,0.1273155669730543
14.20792,2.405937047797591,0.1270495684374228
14.210308,2.417715438992745,0.1268216635915766
14.212688,2.427771268695204,0.1266449932181781
14.215092,2.4387582639574403,0.1264476933988716
14.217479999999998,2.449233402540479,0.1262176675925515
14.21986,2.459708541123518,0.1259916182082701
14.222256000000002,2.4761899819458075,0.1255350890061917
14.224644,2.499608890567126,0.1248237641721218
14.227024,2.522376172882386,0.1241002770817703
14.229428,2.5430015848243697,0.1234787261577464
14.231815999999998,2.5677709678860463,0.1226662281398366
14.234196,2.587884523148832,0.1220103281415433
14.236588,2.600920840985728,0.12162294143191
14.238976,2.615028094009263,0.1211892193336479
14.24136,2.631789074085274,0.1206943694945746
14.303484,2.8405683514594484,0.1204992820711472
14.305864,2.850252094109569,0.1203272408426965
14.308267999999998,2.863288411946465,0.1200164559796846
14.310656000000002,2.880748240156776,0.1195280799901746
14.31304,2.897835981314749,0.1189955184504703
14.315435999999998,2.921069794338833,0.1182667836724967
14.317824000000002,2.938017765869946,0.1177503254575043
14.320204,2.953103406281503,0.1172808695378942
14.322603999999998,2.9641848452002257,0.1169347190061945
14.324988,2.974986744865228,0.1166267165761893
14.327372,2.9860681837839502,0.1162897594732672
14.329776,2.996078687516034,0.1159888478969727
14.332164,3.009581536061755,0.1155521830731611
14.334548000000002,3.023363923861195,0.1150820505182697
14.336944,3.0348646716604994,0.114708471366495
14.339327999999998,3.050649160206357,0.1141863310208216
14.341712,3.0657820224461565,0.1136542227967241
14.344108,3.0831965246860933,0.1130387659288973
14.346495999999998,3.098888465433334,0.1124427027014423
14.348876,3.115511571740353,0.1118315916314623
14.351276,3.1285497854351187,0.1112923112415666
14.353663999999998,3.1385149631968283,0.1108569281238859
14.356044,3.147409205771901,0.1104585473102038
14.358448,3.154161577973696,0.1101326347313253
14.360836,3.1607741805486302,0.1098237811644717
14.363216,3.1624514160709527,0.1096386555095821
14.365616,3.17441869457908,0.1091736341071337
14.368004,3.187037599393265,0.1087198269457529
14.370384,3.2008672090209487,0.1082108861594723
14.37278,3.2129742571559365,0.1077213924050241
14.375168,3.223730830850565,0.1072990850149298
14.377548,3.2397023108515257,0.1067353056574292
14.379948,3.248317014172877,0.106387672310542
14.382336,3.2589338182406458,0.1059959350451742
14.384720000000002,3.267688291188857,0.1056336467772538
14.387116,3.2732299585771534,0.1053695286052961
14.389504,3.2798425611520874,0.1050758775239593
14.391884,3.283382127793967,0.104863491260031
14.394288,3.291437752607877,0.1045855768617583
14.396676,3.299074068541207,0.1043540301024658
14.399056000000002,3.307222241153734,0.104150277882961
14.401452,3.309503881153872,0.1040720380687115
14.40384,3.3117855211540093,0.1039937982544618
14.415792,3.317232744885819,0.1039069677941369
14.41818,3.319606932684573,0.1039040501045385
14.43012,3.335062764290598,0.103842910298466
14.432508,3.338368117649131,0.1038249616979908
14.434892,3.342744406194302,0.1037766160916753
14.437288,3.348703486605309,0.1037285671811037
14.439672000000002,3.355733502202954,0.103650906201435
14.442056,3.359830251494406,0.1036334413137485
14.444451999999998,3.36234420892002,0.1036170389639757
14.446840000000002,3.3657893319054133,0.1035855749286208
14.449236,3.3766837793690323,0.1034311752277066
14.45164,3.38878893164615,0.1032349754281036
14.454028,3.397169421684155,0.1030992346743422
14.456408,3.404478976535521,0.1029931609626765
14.458804,3.418446459932196,0.1027677984779985
14.461192,3.4325537129557304,0.1025249023841099
14.463576,3.4430760733670125,0.102329269691711
14.465972,3.447871670792765,0.1022402639073608
14.46836,3.4535984337782946,0.1021400002770077
14.47074,3.4574628656442683,0.1020678062351422
14.473136,3.4646798726970176,0.1018942755194823
14.475524,3.471105483816849,0.1017238946705553
14.477908,3.4779031819890176,0.1015936610777994
14.480304,3.4874943768405213,0.1014230756101916
14.482692,3.4990876724384417,0.1012125837580011
14.485076,3.505745600983751,0.101100179570431
14.487472,3.5141260910217555,0.1009750422887039
14.48986,3.522786120313481,0.1008225519492653
14.49224,3.531585919232066,0.1006552125157947
14.494636,3.5377319910981773,0.1005152893767206
14.497024,3.540432939978895,0.1004050975843288
14.499408,3.541783414419254,0.1003502767263876
14.501804,3.5468585510987265,0.1002400147549358
14.504192,3.554075558151476,0.1000761153764516
14.506576,3.5597097733383887,0.0999168585593381
14.508972,3.569208420391276,0.0996936181009613
14.51136,3.5830833559893325,0.099432585399893
14.513744,3.5996120186398657,0.099143569483556
14.51614,3.613067645357342,0.0989248100403362
14.518528,3.631318869500571,0.0986306785537015
14.520908,3.64970986327066,0.0983285666914545
14.523308,3.666098756294333,0.0980652129871201
14.525696,3.683977893385224,0.0977373896796528
14.528076,3.69892376416992,0.0974642721204325
14.530476,3.715080339768115,0.0971622556234863
14.53286,3.733518555366448,0.0967949308319932
14.535244,3.75209654059164,0.0964217143413669
14.537648,3.7726766265632494,0.0960181010904729
14.540036,3.7991232451472494,0.0955319014491992
14.542416,3.828503130037445,0.0949984038966121
14.544812,3.858814180487418,0.0944536678541011
14.5472,3.89047570537775,0.0938639618266437
14.549584,3.9222769998949434,0.0932725160625291
14.55198,3.953147128852356,0.0927011454308571
14.554368,3.985227962623269,0.0921131790658503
14.556752,4.013584134155068,0.0915727376747737
14.559148,4.039426348261253,0.0910448857876919
14.561536,4.065408331994298,0.0905081853366335
14.56392,4.090459150167565,0.0899796038001926
14.566316,4.113507867594415,0.0894902058040614
14.568704,4.135206110580906,0.0890473560467371
14.571088,4.157835519127175,0.0885932779471245
14.573484,4.18446912916628,0.0880915227824101
14.575872,4.210031804018744,0.0876079188668966
14.578256,4.228237702191599,0.0872568043326615
14.580652,4.248445701110871,0.0868801983245187
14.58304,4.261716232231114,0.0865986050421654
14.585424,4.274846993724497,0.0863332733136322
14.58782,4.280760748165131,0.0861889407443035
14.590212,4.28853683372532,0.0860293846893115
14.592592,4.298035480778206,0.0858648172972283
14.594984,4.306183653390734,0.0857422741389505
14.597372,4.312469494883706,0.0856378786996656
14.604536,4.3174974097349335,0.0856312914145584
14.606932,4.322665094213023,0.0856149924818577
14.609328,4.33025418831811,0.085542191285095
14.611712,4.336772347236559,0.0854867943428354
14.614092,4.344501210968505,0.0854037159020026
14.616496,4.353440779513951,0.0852922937509147
14.61888,4.365593153619312,0.0851289359294918
14.62126,4.370808059925645,0.0850508812667397
14.623664000000002,4.380306706978532,0.0849035757343787
14.626052,4.396091195524389,0.0846593090036267
14.628432,4.4097338136969695,0.0844524849607082
14.630836,4.428311798922162,0.0841833345832999
14.633223999999998,4.442885582654521,0.083964941004648
14.6356,4.457599136013739,0.0837319771781012
14.637996,4.46551499120079,0.0835732956997669
14.640384,4.470637349708505,0.0834381128109085
14.642768,4.4760392474699415,0.083282022696056
14.681008,4.389867742722615,0.0831724329993875
14.683395999999998,4.387401007125243,0.0831091724002149
14.685776,4.390940573767122,0.0829739529680304
14.688172000000002,4.399834816342195,0.0827566707834464
14.69056,4.410731159663683,0.0825181600658994
14.69294,4.4217672726120325,0.0822700021235169
14.695344,4.433362464067822,0.0819826895393362
14.697731999999998,4.449520935523887,0.0816132648512281
14.700112,4.4668901117934485,0.0812123249702982
14.702516,4.4833281225032335,0.0808178751360596
14.704904,4.503118708399795,0.0803624540400723
14.707284,4.519836258363299,0.079948972754504
14.709688,4.541768714633137,0.0794615100136083
14.712076,4.568776307582447,0.0789222153652505
14.714455999999998,4.597646231651313,0.0783701597086641
14.716852,4.622511954227346,0.0778606416223774
14.71924,4.643233705683684,0.0774046466271879
14.721623999999998,4.659531946766609,0.0770224709384675
14.72402,4.676249496730115,0.0766117781333184
14.726404,4.691244485200924,0.0762101489516008
14.728788000000002,4.707310408858371,0.0757950173776962
14.731184,4.721514001396261,0.0753984199831341
14.733572,4.733715493187735,0.0750259926219124
14.735952,4.743355805725351,0.074718876141365
14.738347999999998,4.75085424788969,0.0744432703351537
14.740735999999998,4.763567596360361,0.0741093269725107
14.74312,4.778003506323729,0.0737778830630868
14.74552,4.790018006660099,0.0734978653421248
14.747908,4.807899039608859,0.0731740367565199
14.750288,4.824709137370981,0.0728621212136813
14.752684,4.842590170319742,0.0725408296204497
14.755071999999998,4.863684008828418,0.0721809379266911
14.757452,4.880122019538202,0.0718445061496031
14.759848000000002,4.88841185763546,0.0715904471958368
14.762236,4.897400543867017,0.0712941875712622
14.76462,4.910533201218271,0.0709531532040151
14.767016000000002,4.927670060062356,0.070575484929146
14.769404000000002,4.947088558906579,0.0701579760189317
14.771784,4.968089849616638,0.0697536657970098
14.774188,4.98680950032656,0.0693862529028334
14.776572000000002,5.006600086223121,0.0690106039457287
14.778956,5.0241090321195445,0.0686710467279864
14.781351999999998,5.042549143575745,0.0683290950259755
14.783740000000002,5.056985053539113,0.0680200672614401
14.78612,5.070629567569562,0.0677058332002073
14.788516,5.074775434547126,0.067499026002617
14.7909,5.075848265591633,0.0673221109696829
14.7933,5.073987830329946,0.0671653302583536
14.795696,5.068914589508343,0.0670473007013735
14.79808,5.0657036798062975,0.0669213710870415
14.80046,5.057138094171058,0.0668577944031118
14.80286,5.048292969282099,0.0668112438697831
14.805243999999998,5.045826233684729,0.0667478810473754
14.810016,5.036189712862851,0.0666958103305257
14.812404,5.033163898758039,0.0666665594130351
14.814804,5.032279955026503,0.0666134794497322
14.8172,5.036191608720719,0.0665358459537652
14.819588,5.036099060922102,0.0664882473425582
14.824364,5.033352786071012,0.0664418493150685
14.826752,5.033772094951591,0.0664165059972139
14.829132,5.033120468645533,0.0664028323073467
14.831532,5.035961187153111,0.0663374088588209
14.83392,5.041735171966884,0.0662545487439236
14.8363,5.050721962340573,0.066135191951508
14.838696,5.060639918274041,0.0660123160416424
14.841084,5.076284637193038,0.0658624695735933
14.843464,5.0902067946193394,0.0657108294386591
14.845868,5.107341757605555,0.0655264528162378
14.848256,5.13276466283116,0.0652686064024408
14.85064,5.153391970631012,0.0650344443816354
14.853036,5.174438587311445,0.0647817409901602
14.855424,5.204564542164185,0.0644652077867317
14.857804000000002,5.237763532949979,0.0641200003593495
14.8602,5.2596015455633305,0.0638733116747087
14.862588,5.277295587056988,0.0636648157858967
14.864968,5.290333800751753,0.0634725326075148
14.867368,5.307655755193073,0.0632375117271713
14.869751999999998,5.32725934963453,0.0629749338188656
14.872136,5.35221762000918,0.062659802909552
14.874532,5.3703781922116605,0.0623792333328312
14.876919999999998,5.392031109227777,0.0620545509341731
14.8793,5.412473321430396,0.0617505698513152
14.8817,5.431984368073237,0.0614522888009031
14.884087999999998,5.457921025835907,0.0610980202422526
14.886484,5.48427699247916,0.0607216011491872
14.88888,5.50625667057724,0.0603443362722615
14.891268,5.528236348675321,0.0599664362619821
14.893652,5.546211825280569,0.0596152382833907
14.896048,5.5583207692734256,0.0592954686521227
14.89844,5.574433914759115,0.058952098932676
14.90082,5.58118818281878,0.0586791629663068
14.903216,5.579002882332998,0.0584549155808201
14.905604,5.580030387407131,0.0582039295397101
14.907984,5.587064194720516,0.0579162890739322
14.91038,5.5953087068474,0.0576113205619804
14.912768,5.606486485280477,0.0572950250132996
14.915148,5.616733098153777,0.056983442620725
14.917544,5.626979711027077,0.0566753369379236
14.919932,5.633361892034404,0.056382643227905
14.922312000000002,5.64561060565412,0.0560656564234418
14.924708,5.652504643340645,0.0557945690538879
14.927096,5.660609385840669,0.0555084062822821
14.929480000000002,5.667643193154053,0.0552319371104089
14.931884,5.6665288278549095,0.0550036107413534
14.934268,5.663272592182489,0.0547916662161254
14.936647999999998,5.6595970476294895,0.0546011973975073
14.939044,5.6600654741961804,0.0543852556171471
14.941432,5.662396231882431,0.0541674352830068
14.943812,5.66458721994182,0.0539564850638083
14.946212,5.667709373560987,0.0537459839640808
14.948595999999998,5.681121570165959,0.0534754659938789
14.950976,5.699748673077264,0.0531718720492532
14.953372000000002,5.714651113749456,0.0528743879483955
14.95576,5.733977064795063,0.0525413223952048
14.95814,5.75088160621367,0.0522374536768942
14.960539999999998,5.768437773938338,0.0519508372552943
14.962928000000002,5.782781136103089,0.0516879325880821
14.965308,5.7929805271481465,0.0514495169854437
14.96772,5.801829443752844,0.0512321473730582
14.970108,5.8105385907306815,0.0510237756256463
14.972487999999998,5.8221810040147135,0.0508064990781891
14.974884,5.829539676552193,0.0506194413223733
14.977272,5.837969284276311,0.0504255178792844
14.979652000000002,5.850914950172459,0.0502361699753396
14.982056,5.867585278307722,0.0500454139726587
14.984444,5.8862577071894,0.0498469145881103
14.986824,5.8997152297647455,0.0496801212630502
14.989224,5.9094480901009785,0.0495146639306937
