Time,Force,Position
13.586756,2.103449247175001,0.1395586284214486
13.58914,2.1129006723996446,0.1391924081318789
13.591535999999998,2.124214428743845,0.1387710209076695
13.593924,2.1436763577005724,0.1379922505753818
13.596308,2.1592738547913264,0.1373549518722143
13.598703999999998,2.1740799559491624,0.1367308192769118
13.601092,2.194100963413331,0.135820686263937
13.603476,2.2187777986763906,0.1347217469551036
13.605871999999998,2.251183497671398,0.1333170808729411
13.608255999999995,2.2807956999870704,0.1320480020430774
13.610639999999997,2.311478837489381,0.1307074792824341
13.613036,2.340951270178193,0.1294577663705012
13.615423999999996,2.3672108973070896,0.1284073448668194
13.617819999999996,2.398405891488597,0.1271461661724517
13.620216,2.4266676193639105,0.1260200333506214
13.622603999999995,2.454929347239224,0.1249104171776574
13.624983999999998,2.4829115358608167,0.1238609345968602
13.627379999999995,2.5139667604154647,0.1226799419113805
13.629768,2.54744339459711,0.1213914742128316
13.632148,2.578498619151759,0.1202738977873964
13.708619999999996,2.748595835327302,0.1197821556315154
13.711003999999996,2.7583721257760394,0.1196842970579119
13.7134,2.7696386602919967,0.1194987293487805
13.715787999999996,2.7802535685018954,0.1193015830896714
13.718168,2.7879352104055988,0.1191877272288528
13.720568,2.7971996441751386,0.1190666059550802
13.722955999999996,2.8123306105570687,0.1187844996402115
13.725336,2.834958123245469,0.118228384575779
13.727739999999995,2.853069577761838,0.1177685903130159
13.730128,2.876023851532202,0.1170905907448429
13.732512,2.9016318523550404,0.1163952149256379
13.734907999999995,2.924446356498544,0.1157581240624109
13.737296,2.94688877358971,0.1150705766272461
13.739675999999996,2.9696107299345966,0.1143491709998327
13.742072,2.9936831607198413,0.1135500982143883
13.744459999999997,3.0249253767295934,0.1126440313414235
13.746843999999996,3.052862239380812,0.1117718459687162
13.74924,3.076143274233139,0.1109974775265319
13.751627999999997,3.09728243871219,0.1102869677454671
13.754011999999996,3.1109250568847693,0.1098461186763223
13.756408,3.1339265524833766,0.1091277982557167
13.758795999999997,3.149478723603757,0.1085655178937091
13.761176,3.163400881030058,0.1081136736786729
13.763576,3.1798369958819737,0.1076446780011732
13.765963999999997,3.1992063770400843,0.1071000312329848
13.768344,3.2169929663323584,0.106566205159407
13.770739999999996,3.2290527926391026,0.106167309529406
13.773131999999997,3.234966547079736,0.1059407853765118
13.775512,3.2404609926397887,0.1057569104669873
13.780299999999997,3.241067292975473,0.1056055293027368
13.78268,3.2419059107366346,0.1055143342172081
13.785075999999997,3.2472605866698263,0.1053573428156952
13.787464,3.2564796944689927,0.1051257128991713
13.789848,3.267421363760856,0.1048800580807722
13.792243999999997,3.2692836948804125,0.1048490113721728
13.794632,3.27552231454514,0.104770557592485
13.797011999999995,3.2876274668222587,0.1045720455531993
13.799408,3.306158230219208,0.104200009944651
13.801795999999996,3.3269706336162943,0.1037467457993809
13.804175999999998,3.34163696514727,0.103458937419562
13.806576,3.362961225223554,0.1030538225492
13.808963999999996,3.381352218993644,0.1027024092639591
13.811343999999998,3.395087384964841,0.1024251009152881
13.813739999999996,3.4077516157494,0.1021773718657885
13.816128,3.4212072424668767,0.1019309398166283
13.818511999999998,3.434802638811214,0.1016684914762181
13.820907999999996,3.450260366275108,0.1013720237447734
13.823296,3.469582525604976,0.1009981020920994
13.825676,3.486995131987043,0.1007450609893252
13.828075999999996,3.5093431054217232,0.1003830955622617
13.830464,3.5296889781099856,0.1000738332129728
13.832844,3.5458908796785544,0.0998702770972243
13.835243999999996,3.5580885797542896,0.0997566749481587
13.837632,3.5684239487104685,0.0996723864727453
13.859156,3.613533516886801,0.0996508762208178
13.861539999999998,3.621494698044225,0.0995731161455764
13.863935999999995,3.6295956488285097,0.0994835117904019
13.866327999999996,3.640490096292129,0.0993568240966549
13.868707999999998,3.652735018196108,0.0991795357363816
13.871108,3.664328313794028,0.098991476998472
13.873495999999996,3.673267882339473,0.0988253120471731
13.875875999999998,3.680065580511642,0.0987105340076525
13.878276,3.6880739834973095,0.0985597121818436
13.880663999999996,3.696641464990417,0.0983574492124217
13.883047999999995,3.705069176856666,0.0981676845400116
13.885444,3.717361320588887,0.0979196942335502
13.887831999999996,3.733098587306501,0.0976541252189807
13.890215999999995,3.748975623650976,0.0973766093908242
13.892615999999997,3.767134299995588,0.0970396031514665
13.895004,3.784222041153562,0.0967275746642611
13.897388,3.806105379737287,0.0963494595643338
13.899783999999997,3.82905965350765,0.0959447128287222
13.902172,3.852293466531735,0.0955150795332648
13.904556,3.880602416235291,0.0949964242214442
13.906951999999997,3.9066297259387097,0.0945465078556034
13.90934,3.932377496388408,0.0941350357218346
13.911724,3.957985497211247,0.0937396891766557
13.914124,3.980520462101031,0.0934017178425833
13.916511999999996,4.002915657363953,0.09308058960639
13.918895999999997,4.027592492627012,0.0927133471043413
13.921292,4.056692838263488,0.0922482505322757
13.923679999999996,4.088074823900099,0.0917289155771864
13.926063999999997,4.116244003976796,0.0912776514353135
13.92846,4.144133644799771,0.0908514022725054
13.930847999999996,4.17030072413005,0.0904294921415829
13.933231999999997,4.186876608608826,0.0901291533669057
13.935628,4.199076204542431,0.0898596695459592
13.938015999999998,4.210996261222315,0.0896132211361179
13.940399999999997,4.219983051596004,0.0894089040996576
13.942796,4.227107510850137,0.0892224339083928
13.945183999999998,4.230647077492015,0.0890663480416504
13.947567999999997,4.233255478574116,0.0889195190675973
13.949967999999998,4.237865980402635,0.0887434478821576
13.952355999999996,4.238612050365178,0.0886181938169292
13.95474,4.237775328461886,0.0884890420191095
13.957135999999998,4.234145109879258,0.0883879767828382
13.973864,4.173252949014938,0.0883451164188387
13.976247999999998,4.166130385618676,0.0883239694298467
13.978648,4.160218527035911,0.0882725505613256
13.98104,4.163106467371732,0.0881109846704133
13.983419999999995,4.165854638080694,0.0879599342501043
13.985816,4.169953283230013,0.0877680921626371
13.988203999999996,4.175262633192832,0.0875456949393525
13.990583999999998,4.183784788715566,0.0872644370642365
13.992979999999996,4.19202740498458,0.0870057076696366
13.995371999999996,4.202411891626872,0.0867088380302966
13.997751999999998,4.210794277522746,0.0864421886505419
14.000152,4.21931643304548,0.0861656036637487
14.002536,4.228118127821935,0.0858669835501095
14.004919999999998,4.234917721851972,0.0855943512820492
14.007315999999996,4.240925919949092,0.0853185327995116
14.009704,4.250146923606127,0.0849890382967788
14.012088,4.260578632076661,0.084626862859903
14.014483999999996,4.270218944614276,0.0842598155076419
14.016872,4.283723689017867,0.0838515132058216
14.019256,4.296157498234817,0.0834668978630104
14.021676,4.3055182715187135,0.0831276227897797
14.024063999999996,4.309943677749997,0.0828507884743461
14.026447999999997,4.317022811033755,0.0825627308703329
14.028844,4.321168678011318,0.0823110348864909
14.031231999999996,4.3261059409218,0.0820619733509711
14.033615999999997,4.327039002339448,0.0818637149620753
14.036012,4.329974164503512,0.0816414312492024
14.038404,4.330115829988242,0.0814411305263591
14.040783999999997,4.332259596219388,0.0812167914871188
14.043183999999997,4.335334528010312,0.0809874506660848
14.045572,4.337338524614599,0.0807752019612017
14.047951999999997,4.340133917151803,0.0805672453994947
14.050351999999997,4.342370231181566,0.0804003133804599
14.05274,4.346608645957746,0.0802082545592405
14.055119999999995,4.351917995920566,0.0799987814289856
14.057519999999997,4.354014540323469,0.0798429843189258
14.059911999999995,4.359044351032567,0.0796574742203787
14.062292,4.362631139502689,0.0794524753599558
14.064692,4.363564200920337,0.0792588830697672
14.067079999999995,4.362355391964706,0.0790991747612676
14.06946,4.363008914128634,0.0789255030544158
14.07186,4.368597803345173,0.0786987049740539
14.074247999999995,4.374326462188572,0.0784645219579381
14.076631999999996,4.38084651696489,0.0782349668864645
14.079028,4.388437506927845,0.077989712825131
14.081415999999995,4.404828295809387,0.0776610613766291
14.083796,4.417866509504153,0.0773929227377199
14.086208,4.43514124211723,0.07712562697892
14.088595999999995,4.448551542864333,0.0768930446098796
14.090975999999998,4.457817872491743,0.0767149440173505
14.093371999999995,4.472950734731542,0.0764842452672366
14.09576,4.486733122530984,0.0762894090649544
14.09814,4.50358854626348,0.0760578141792284
14.100539999999995,4.520304200369115,0.0758365392978602
14.102928,4.536740315221032,0.0756358649400049
14.105308,4.553036660446086,0.0754446466807828
14.107703999999998,4.572126502350477,0.0752424473791335
14.110092000000002,4.595592632800037,0.0750321838227643
14.112476,4.618499684742157,0.0748608103412764
14.114871999999998,4.645550707803972,0.0746401646550898
14.117259999999996,4.674603831612203,0.0744011222406187
14.119639999999997,4.698442049114103,0.0742284558519947
14.122036,4.721209331429363,0.0740740452862563
14.124423999999998,4.743976613744623,0.0739207528288408
14.126804,4.768745996806301,0.0737515669652413
14.129204,4.787509077628727,0.0736446784118262
14.131591999999998,4.80813448957071,0.0735271267278754
14.133972,4.828387814460356,0.0733807975173365
14.136367999999996,4.851294866402476,0.0732281731808553
14.138759999999998,4.878206119837431,0.0730377160076828
14.14114,4.894315473607382,0.0729370120372577
14.143535999999996,4.910983905884775,0.0727995620910845
14.145924,4.9285835037219465,0.0726602075386829
14.148303999999996,4.949395907119033,0.0724822972173896
14.150703999999998,4.972350180889397,0.0722792153363448
14.153087999999997,4.994792597980562,0.0720536206578169
14.155471999999996,5.008295446526283,0.0719053989316284
14.157868,5.024219704699,0.0717166329525173
14.160255999999997,5.039771875819381,0.0714963637986487
14.162636,5.04959728395423,0.0713118892698489
14.165031999999997,5.05956246171594,0.0711210341410734
14.16742,5.073019984291287,0.0708735579563317
14.169804,5.086477506866633,0.0706278183327108
14.172199999999997,5.10035433832256,0.0703580898749641
14.174591999999995,5.110226968285654,0.0701234303607274
14.176972,5.119308202315829,0.069883856470301
14.179367999999997,5.128017349293667,0.0696147528473816
14.181759999999995,5.134724395525087,0.06936406033352
14.18414,5.141990520263949,0.0690807139808095
14.18654,5.146602917950336,0.0688011589761984
14.188927999999995,5.161365588995668,0.0684327234284453
14.191308,5.175057324854361,0.0680767454299167
14.193703999999997,5.187166268847218,0.0677152739203106
14.196095999999995,5.194200076160603,0.0673980652733368
14.198476,5.198160847540931,0.0671089120960141
14.200876,5.203983950040817,0.0668135710853418
14.203263999999995,5.213019858100617,0.0664795348898035
14.205647999999997,5.216980629480947,0.0661904256266001
14.208044,5.22480583272725,0.0658818473001217
14.210436,5.237286863772444,0.065556946843411
14.212815999999997,5.248836729257859,0.065238268449765
14.215215999999998,5.260107055489554,0.0649383118940116
14.217604,5.268583885041915,0.0646473488450286
14.219983999999997,5.2781316497809145,0.0643484877656863
14.222383999999998,5.2916836160127465,0.0640236544704518
14.224772000000002,5.301231380751746,0.0637229281234712
14.227151999999997,5.312641476610302,0.0634191355942498
14.229551999999998,5.323772033215136,0.063132093474587
14.231940000000002,5.336625151312667,0.062851229481833
14.234319999999997,5.353202931649312,0.0625622047177675
14.236719999999998,5.365496971239403,0.0623183790776137
14.239112,5.381655442695468,0.0620586462320852
14.241492,5.394601108591618,0.0618301199215688
14.243887999999998,5.4114112063537405,0.0615844591530942
14.246271999999998,5.43036317448914,0.0613189518789289
14.248655999999997,5.452248408930734,0.0610432358334368
14.251052,5.476135744118745,0.0607564446158089
14.253439999999998,5.503607971919008,0.0604701941863881
14.25582,5.527075998226438,0.0602108575282525
14.258215999999996,5.546679592667895,0.0599680116403222
14.260604,5.564420855989796,0.0597305761684353
14.262988,5.58029978819214,0.0594977691665335
14.265383999999996,5.600834548193377,0.0592560709579286
14.267775999999998,5.6188081289407545,0.0590582679009578
14.270156,5.631846342635519,0.0588860394256962
14.272551999999996,5.653684355248871,0.0586739745075211
14.274943999999998,5.6721697926754455,0.0584989191373673
14.277324,5.691586395661799,0.0583223730727031
14.279719999999998,5.7034139045430665,0.0581680921960872
14.282111999999998,5.712308147118137,0.0580280429252778
14.284492,5.723484029693347,0.0578631105859653
14.286887999999998,5.731726645962362,0.0577120133863407
14.289276,5.741040197418014,0.0575511275263846
14.29166,5.747700021821191,0.0573883720389542
14.294055999999998,5.753288911037731,0.0572352624812179
14.296444,5.749938231708825,0.0571255975529311
14.298828,5.746587552379919,0.0570162065414319
14.301223999999998,5.73872081487898,0.0569068441947151
14.303612,5.733787343684237,0.0567858459331976
14.305996,5.732858073982328,0.056644558804099
14.308391999999998,5.732580430586476,0.0565164165241524
14.31078,5.736306988683459,0.056368940250598
14.313164,5.73537771898155,0.0562282854766074
14.315559999999998,5.731794722227165,0.0560835106853666
14.317948,5.728491264726502,0.0559230591552537
14.320332,5.721463144986726,0.0557685179746587
14.322727999999998,5.716996204500807,0.0555749574924828
14.325119999999998,5.711086241775912,0.0553618177696654
14.3275,5.714907243529381,0.0551157779364656
14.329895999999998,5.71886801490971,0.0548628028052038
14.332284,5.722689016663179,0.0546192248478274
14.334668,5.724647687297091,0.0543770169455373
14.337063999999998,5.728608458677421,0.0541259740358834
14.339455999999998,5.731358525244251,0.053889301310724
14.341836,5.733177426251302,0.0536533306811398
14.344231999999998,5.739931694310966,0.0533962192887816
14.34662,5.748688063117046,0.0531326073741419
14.349004,5.75558210080357,0.0528683867509343
14.351399999999998,5.757540771437482,0.0526227414307252
14.353792,5.757637110951839,0.0523797694096696
14.356172,5.758804385652834,0.0521292601824995
14.358567999999998,5.757690020353689,0.0519035606860264
14.360956000000002,5.755504719867908,0.0516840163253659
14.36334,5.75760316012868,0.0514322248933172
14.365739999999995,5.762495097068787,0.0511785167536594
14.368123999999996,5.767387034008895,0.0509253045486094
14.370508,5.770928496508643,0.0506952532198224
14.372903999999998,5.775121585314449,0.0504791702649991
14.375291999999996,5.774099767813923,0.0502958179970295
14.377676,5.770936079940121,0.0501269963743203
14.380075999999995,5.761905859453926,0.0499741120560518
14.382464,5.754737970087291,0.0498199191457735
14.384847999999998,5.746499145534015,0.0496732737937591
14.387248,5.742124752846713,0.0495182492079453
14.389635999999996,5.737750360159411,0.0493626917243291
14.392019999999995,5.733375967472109,0.0492071007544106
14.394419999999997,5.721924337358918,0.0490814467686265
