Time,Force,Position
15.046452,1.1717081404901295,0.1507651980039817
15.082276,1.2448319522533442,0.1504962266408713
15.084671999999998,1.253397537888583,0.1502154002813718
15.089455999999998,1.266105198785647,0.1501457932337884
15.091836,1.2751826411000835,0.1499370716519076
15.099007999999998,1.2976193706176418,0.1497342405036436
15.101412,1.3109805536786323,0.1490946871503125
15.1038,1.3277868597250162,0.1482881171894231
15.106179999999998,1.343242691331041,0.1476671876668676
15.108576,1.3614920196164009,0.1468569133160816
15.110964,1.3721522537966735,0.1466075321735997
15.113347999999998,1.381741552790308,0.1464612765652047
15.115744,1.3926813262243014,0.1461261127416146
15.118132,1.4025501644716565,0.1459126927329727
15.120511999999998,1.4145608730922885,0.1454600963752867
15.122908,1.4329971928327512,0.1443733798084325
15.125296,1.4520851388792722,0.1432678161425398
15.127676,1.468379588246458,0.1424029928059611
15.130071999999998,1.481321462426868,0.1419232902996509
15.132459999999998,1.4909107614205024,0.1418008716068547
15.134844,1.5046440315338308,0.1413359518099367
15.137239999999998,1.5179579927665787,0.1409702989161848
15.142008,1.5395107785526014,0.140700653818254
15.144412,1.5486807686656554,0.1406914245776578
15.1468,1.564788226577738,0.1402092396092138
15.149179999999998,1.5778226485567652,0.1399925798963468
15.151576,1.588994739416236,0.1398919275740497
15.156344,1.6083131070303645,0.1397157020005021
15.158739999999998,1.6205561330764735,0.1394929226873099
15.161127999999998,1.6358721950556383,0.1390549795596013
15.163508,1.6481152211017478,0.1388319875368087
15.165912,1.6583561464014402,0.1387435006846017
15.17068,1.6774875225604655,0.1387310927341176
15.173084,1.6895907789797144,0.1385762719263251
15.175472,1.7039756753991009,0.1382429214415222
15.177851999999998,1.71635847107207,0.1380150816440838
15.180248,1.7287412667450393,0.137777156108643
15.182636,1.74005312723137,0.1376444774967771
15.185016,1.7527154621580596,0.1373688580335745
15.187411999999998,1.7632359267114723,0.1372540730980741
15.189799999999998,1.775898261638162,0.136973718635827
15.19218,1.7925647980576855,0.1364519956337965
15.19936,1.817096176120278,0.1364218892175892
15.201756,1.826545705487052,0.1364015964201968
15.204144,1.8387887315331608,0.1362347534273518
15.206523999999998,1.852242462392769,0.135973524416514
15.208928,1.8618317613864035,0.1359209889660451
15.211312,1.8774273626192888,0.1355305793013295
15.213696,1.9001002012780623,0.1347665352573365
15.216092,1.9221214136307785,0.1340139713277519
15.21848,1.947867288222608,0.1331087229288805
15.285372,2.138393445595685,0.1327927931945783
15.287768,2.1437934474992506,0.1327414937866814
15.290156,2.151614859029815,0.132523769390636
15.292535999999998,2.161298601679935,0.1322416900001586
15.29494,2.1700511787702776,0.1319963279344014
15.297328,2.1797349214203985,0.1317171742120562
15.299708,2.1894186640705198,0.1314404070264948
15.302108,2.197519614854804,0.1311843065559739
15.304496,2.203758234519532,0.1309956190599605
15.306876,2.214280594930814,0.1305848214598783
15.309272,2.2238717897823173,0.130195658374662
15.31166,2.23467368944732,0.1297256322197371
15.31404,2.2436132579927657,0.1293156034727628
15.376168,2.23332511086483,0.1293032361706899
15.378548,2.233232563066213,0.1291983246739642
15.380944,2.237004447133569,0.1289440671381185
15.383332,2.242126805641284,0.1285912984036367
15.385711999999998,2.244827754522002,0.1283924070022774
15.388112,2.252603840082193,0.127962844708149
15.390496,2.2643841271352168,0.1273468325010034
15.392896,2.272951608628325,0.126897445016932
15.395295999999998,2.2799362982555973,0.1264810064301552
15.397683999999998,2.281845851203397,0.1262940505281515
15.400064,2.285338196017033,0.1260928804502498
15.402463999999998,2.29483684306992,0.1256415994669363
15.404851999999998,2.30833969161564,0.1250427703947519
15.407232,2.32128346165392,0.1245406308029517
15.409627999999998,2.333807922811617,0.1241040540146447
15.412015999999998,2.353921478074404,0.1234261836261512
15.414396,2.377247838897105,0.1225771880221321
15.416792,2.403647235652861,0.1216219180476762
15.41918,2.425902661288924,0.1208597942101484
15.42156,2.4524418276715405,0.1199186014505886
15.423956,2.47669935405402,0.1191097683896857
15.426344,2.504821312302473,0.118217483129496
15.428724,2.5298702346178708,0.1174587808096695
15.431124,2.556921257679685,0.1166592504712676
15.433512,2.5909097485405286,0.1156597990411288
15.435892,2.625038009028232,0.114675843346662
15.438288,2.659306039142796,0.1136885504043628
15.440676,2.698369666683111,0.1125719124958158
15.443072,2.735151654223289,0.1115601490174912
15.445467999999998,2.772213181017188,0.1104914058804348
15.447855999999998,2.8059221326243104,0.1095619552930564
15.45024,2.8368375875520986,0.1087229692016565
15.452644,2.862957445054135,0.1080325509911998
15.455028,2.89014823774281,0.1073140328511359
15.457411999999998,2.92041206636454,0.1065111289905068
15.459808,2.9477426286800745,0.1058195527143038
15.462196,2.9778666876749447,0.1050863229161209
15.464576,3.007850977042954,0.1044007805295096
15.466971999999998,3.041979237530658,0.1036033242071144
15.469359999999998,3.0704732828314483,0.1030128547745848
15.47174,3.100038263318877,0.1023899366602764
15.474144,3.123596941567056,0.1019347526200877
15.476532,3.146224454255456,0.1014913116885319
15.478912,3.16549939175708,0.1011701075810841
15.481312,3.177185235153617,0.101004787056285
15.4837,3.1865894385500177,0.1009208228726753
15.486079999999998,3.1977162034391147,0.1008241356579618
15.488476,3.2069806372086544,0.1007612827552107
15.490863999999998,3.220109502844168,0.1006235926009882
15.493244,3.2343093036663206,0.100455335789436
15.495639999999998,3.254422858929105,0.1000826762622968
15.498027999999998,3.272254774191754,0.099780310112266
15.500412,3.2904587765067395,0.0995190503663285
15.502807999999998,3.304658577328892,0.0993478521640403
15.505195999999998,3.317787442964405,0.0992128408961732
15.507576,3.3287744382266418,0.0991375979407995
15.51474,3.356240978453298,0.0990898012686978
15.517139999999998,3.3670882040886747,0.0990374452297522
15.519528,3.379937530470468,0.0989470729811909
15.521908,3.392647087225401,0.0988675145976259
15.524307999999998,3.406427579166972,0.0987587700456589
15.526695999999998,3.420627379989124,0.0986071909642811
15.529076,3.435618576744194,0.09845197796636
15.531479999999998,3.451820478312764,0.0982553318960843
15.533863999999998,3.465228883201998,0.0981039255749326
15.536244,3.47970822327787,0.0979284403793366
15.543416,3.500424287160601,0.0979214211301361
15.54582,3.5084780161166425,0.0979127623138486
15.548208,3.5172305932069854,0.097835280288434
15.550584,3.5325485510440187,0.0975867737823389
15.552988,3.5472148825749947,0.0973290829384982
15.555376,3.560577961493854,0.09704055787671
15.557755999999998,3.567003572613686,0.0968866774714738
15.56016,3.576130132614235,0.0966242627624273
15.562548,3.583022274442889,0.0963450234714699
15.564927999999998,3.585118818845793,0.0961435540882729
15.567332,3.581488600263165,0.0960308830932953
15.56972,3.579488395374618,0.0958381437626404
15.5721,3.579630060859348,0.0955948793157747
15.574504,3.579631956717217,0.0953650538967952
15.576888,3.5839175933216403,0.095035179841011
15.579272,3.5860613595527866,0.0947560315577832
15.581675999999998,3.588624434664513,0.0944378187603899
15.58406,3.5853209771638506,0.0942170246088242
15.586444,3.5872324259695194,0.0938815838483957
15.58884,3.5877008525362126,0.0935306869006194
15.591228,3.5880295094760446,0.0931890419630383
15.593608,3.588218396789017,0.0928664772451154
15.596007999999998,3.5881277448482694,0.0925706095401539
15.598396,3.580400776974192,0.0924634890577301
15.600776,3.572534039473254,0.0923687581282332
15.603172,3.569323129771208,0.0922163326485645
15.60556,3.5630391841361058,0.0921240729974911
15.60794,3.561922922979093,0.0920021968994617
15.610336,3.5603873529415004,0.091918627163616
15.612724,3.5596431788368257,0.0918360567071821
15.615104,3.564625767717681,0.0916697008778568
15.6175,3.5739846451437067,0.0914767413802014
15.619884,3.5821328177562344,0.0913238222303738
15.622267999999998,3.5904207599956224,0.0911583599006848
15.624664,3.5913519255554003,0.0911472920962808
15.627052,3.5964270622348726,0.0910541805790845
15.629431999999998,3.600011954847126,0.091023429539574
15.631828,3.6116052504450464,0.0908548517992491
15.634216,3.622127610856329,0.0907132621023168
15.636599999999998,3.635163928693225,0.0905670813043479
15.638996,3.656348419142649,0.0902796242829054
15.641379999999998,3.6715266073528223,0.0900907801039347
15.643764,3.686565025936136,0.0899138867593764
15.646159999999998,3.706678581198921,0.0896441307309635
15.648547999999998,3.7234395612749305,0.089454065896206
15.650932,3.7369877357910246,0.0893362572835395
15.653323999999998,3.760546414039203,0.0890550911663744
15.655711999999998,3.7765159981822953,0.0888699811804769
15.658103999999998,3.797700488631719,0.0885869907487714
15.6605,3.8248912813203937,0.0882134342021834
15.662888,3.8480778725162335,0.0879068538653346
15.665268,3.863535599980128,0.0877046453553821
15.667672,3.878062161884244,0.0875129216138126
15.67006,3.89230918453464,0.0873452588794659
15.672439999999998,3.9128420486780064,0.0870564351740683
15.674844,3.930301876888317,0.0868254312632437
15.677228,3.949903575471905,0.0865512927962302
15.679607999999998,3.966152698868717,0.0863592416711516
15.682008,3.9805394911459726,0.0861866679702579
15.684392,3.9930639523036713,0.0860337442038314
15.686771999999998,3.998511176035481,0.0859926103515136
15.689176,4.007310974954066,0.0858775221979449
15.691564,4.019463349059428,0.0856920210926659
15.693943999999998,4.030032931298953,0.0855030155620109
15.69634,4.042232527232557,0.0852450344776342
15.698724,4.052709561673465,0.0849909867257239
15.70112,4.05331586200915,0.0848727122783652
15.703516,4.05606403271811,0.0847122064175922
15.705904,4.055599397867156,0.0846140185722049
15.708284,4.048476834470893,0.084587064781833
15.710688,4.042564975888129,0.0845287834439671
15.713076,4.041588484357977,0.0844049125073843
15.715456,4.041822697641323,0.0842500194371313
15.717859999999998,4.042336450178389,0.0840722279056155
15.720247999999998,4.0420588067825385,0.0838929130097672
15.722628,4.039918832267131,0.083729249474658
15.725032,4.036707922565085,0.0835854245322174
15.727415999999998,4.030983055437424,0.0834431910705934
15.729796,4.026049584242681,0.0833038176814644
15.732191999999998,4.021395652301659,0.0831415059255839
15.73458,4.017161029241217,0.0829442691943057
15.73696,4.013717802113694,0.08275055287007
15.739363999999998,4.006130603866476,0.0826230272545725
15.741751999999998,3.998263866365538,0.0825177280644858
15.744132,3.99011758961088,0.0824345277820427
15.746527999999998,3.9879776150954713,0.0822708053739543
15.748912,3.9927751083790928,0.0820188577420887
15.751292,4.004510069461743,0.0816859351307536
15.753692,4.017176196104171,0.0813465497638097
15.756076,4.031704653866155,0.0809911774733669
15.758456,4.047304046814778,0.0806200011756035
15.760852,4.059458316778009,0.0802578485668697
15.76324,4.067608385248406,0.0799455219709079
15.765619999999998,4.076829388905441,0.0796169137252703
15.768016,4.087633184428314,0.0793013115227861
15.770404,4.103512116630657,0.0789213790815832
15.772783999999998,4.121672688833138,0.0784996150369345
15.775184,4.144628858461371,0.0780372355059596
15.777568,4.166793632156685,0.0775700525924847
15.779968,4.191612132904475,0.0771004582657261
15.782367999999998,4.21908436070474,0.0766261525277872
15.784755999999998,4.244554487758588,0.0761759839857381
15.787136,4.27295788111863,0.0756985136620919
15.789531999999998,4.300430108918895,0.0752258962372545
15.79192,4.33269793414491,0.0747167003414001
15.7943,4.359890622691454,0.0742767665814964
15.796696,4.384010275304943,0.073880784174769
15.799084,4.398910820119266,0.0736027292497022
15.801468,4.415813465680005,0.0733069132494289
15.803864,4.437651478293355,0.072970128024253
15.806252,4.459209951652986,0.0726563423652002
15.808632,4.482723303930791,0.0723854441670728
15.811032,4.512894584753903,0.072068842075387
15.813416,4.542786326323297,0.0717756016359501
15.815796,4.567463161586356,0.0715475782382692
15.818203999999998,4.589718587222418,0.0713730170848683
15.820588,4.609412833604624,0.0712587870296875
15.822972,4.625754504800054,0.0711992638595901
15.825368,4.646612234167514,0.07112632187477
15.830136,4.676315088423934,0.0710967320230995
15.832539999999998,4.695030947418117,0.0710550988718952
15.834927999999998,4.713746806412301,0.0710152967866588
15.837308,4.734464766152901,0.0709574157427805
15.839707999999998,4.752389229214167,0.0709152000082224
15.842095999999998,4.770173922648572,0.0708814026122752
15.844476,4.789029551269615,0.0708344935101571
15.861211999999998,4.851088986834931,0.0707857476000631
15.863599999999998,4.856303893141263,0.0707276173818594
15.86598,4.862077877955037,0.0706336240710689
15.868375999999998,4.866408840529834,0.0705201727496776
15.870763999999998,4.870647255306015,0.0703560418087308
15.873144,4.871580316723662,0.0701831041106038
15.87554,4.876936888514724,0.0699497477600519
15.877928,4.888719071425617,0.0696404503932039
15.880308,4.892772390604562,0.0693821850754213
15.882708,4.8941719827310335,0.0691274782944919
15.885092,4.89864461079056,0.068847010553767
15.887472,4.90139467735739,0.0685655303648758
15.889879999999998,4.9057747576183,0.0682365231579035
15.892264,4.909503211573153,0.0678949166029508
15.894648,4.914442370341502,0.067533816270899
15.897044,4.920592233923352,0.067150074308282
15.899428,4.936240744558087,0.0666671425346328
15.901812,4.950026924073266,0.0661898606636882
15.904208,4.9686087010141975,0.0656900650880532
15.906596,4.990263513888183,0.0651660160032739
15.908988,5.006982959709558,0.0646754711470478
15.911383999999998,5.022911009598015,0.0641825776489034
15.913771999999998,5.035626253926556,0.0637250365237467
15.916156,5.055278966054125,0.063225469169349
15.918547999999998,5.079307966726866,0.0627343998020395
15.920936,5.104128363332524,0.0622526894587417
15.92332,5.122662918445212,0.0618311008185554
15.925719999999998,5.132909531318511,0.0614826010460872
15.928107999999998,5.146229180124866,0.061107851789902
15.930488,5.156196253744446,0.0607713361084506
15.932887999999998,5.160436564378496,0.0604611873271156
15.935271999999998,5.16160383907949,0.0601730645733031
15.937656,5.165145301579239,0.059905086350948
15.940051999999998,5.164403023332433,0.059679102116582
15.942439999999998,5.163241436205047,0.0594794720714415
15.94482,5.166084050570496,0.0592549533198019
15.947219999999998,5.161849427510053,0.0590805878843451
15.949604,5.165483437808418,0.0588663742650869
15.951988,5.165904642546868,0.0586841316425328
15.954384,5.16404420728518,0.0585309180259923
15.956772,5.1641858727699095,0.058364623887098
15.959156,5.165118934187557,0.0582051878341659
15.961552,5.1679143267247625,0.0580414791345325
15.96394,5.164703417022715,0.057914179761591
15.966335999999998,5.152692708402082,0.0578265496904464
15.968732,5.137608963848395,0.0577598343076896
15.97112,5.127460586347321,0.0576682204236166
15.973503999999998,5.122107806271998,0.0575594378388917
15.9759,5.120619458062648,0.0574363993947273
15.978288,5.127139512838966,0.0572677260497797
15.980667999999998,5.134311193921341,0.0571130128228246
15.983064,5.149211738735663,0.056929365796293
15.985452,5.1602478516840105,0.0567612450112817
15.987835999999998,5.179943993924086,0.056562909479744
15.990232,5.196706869857964,0.0563767776639401
15.99262,5.209977400978208,0.0562376340448607
15.995,5.224830723964288,0.056110954340439
15.9974,5.2304649391512,0.0560473124837039
15.999788,5.23824102471139,0.055965237830826
16.002168,5.243083843965386,0.0558950325893399
16.004568,5.251791095085354,0.0558116294402743
16.006952,5.26128974213824,0.0557357465477727
16.009336,5.271067928444848,0.0556443349123869
16.011732,5.280706345124593,0.0555606731084501
16.01412,5.298353164790009,0.0554344114948369
16.0165,5.319073020388478,0.0552885480295958
16.018895999999998,5.337139148934472,0.0551399126730288
16.021283999999998,5.355345047107328,0.0549842712811134
16.02368,5.369546743787349,0.0548515188398516
16.026076,5.380303317481977,0.054709994905808
16.028468,5.393201761549882,0.0545512514905207
16.030848,5.402375543378675,0.0543984907123906
16.033248,5.412620260394106,0.0542369612661408
16.035636,5.4184886888643655,0.0540668696228101
16.038016,5.427849462148261,0.0538562127575069
16.040416,5.437769313939597,0.0536154918758711
16.042804,5.446246143491959,0.053352882626608
16.045184,5.457144382671316,0.0530559900911936
16.04758,5.4632470244249225,0.0527709653675421
