Time,Force,Position
15.88596,1.7929125293615042,0.1347358705321201
15.888339999999998,1.8156325898485213,0.1336647481997783
15.890744,1.842217082201512,0.1323864058543672
15.893132,1.8649371426885293,0.131352637950959
15.895511999999998,1.885143245749932,0.1303816420113941
15.897912,1.9042784136246955,0.1295215965688771
15.931352,2.0063155795692817,0.1288376194721017
15.933748,2.01595210039116,0.1287047019020012
15.936136,2.0289411963998125,0.1283729913314989
15.938515999999998,2.0388572564754104,0.1281954907593269
15.94092,2.0510549565511456,0.1278813099115308
15.943308,2.0679084844257725,0.1274065934974857
15.945688,2.08369107711376,0.1269909458235013
15.948088,2.1002650657346678,0.1265423150516742
15.950472,2.115348810288354,0.1262256701666435
15.952856,2.130572324468901,0.1258904375018622
15.955252,2.144213046783613,0.1255876134613084
15.95764,2.159204243538683,0.1251716721143705
15.960019999999998,2.176849167346228,0.1246875646315759
15.962424,2.189698493728021,0.1243888097926204
15.964808,2.205341316789149,0.1239960053435971
15.967192,2.226571133208947,0.1234019846246158
15.969588,2.253667482241136,0.1225753152347948
15.971976,2.282254075340543,0.1216451806500927
15.974355999999998,2.3157760354925627,0.1205137975018708
15.976752,2.345154024524888,0.1196019065290587
15.97914,2.3665236105715466,0.1190559583257097
15.981536,2.3828180599387325,0.118738350731883
15.983931999999998,2.39790180449242,0.1185002221211511
15.986323999999998,2.414475793113326,0.118152694383669
15.988704,2.429559537667013,0.1179198132307013
15.991099999999998,2.4438518862877823,0.1177062621304696
15.993487999999996,2.460006566028108,0.1174431581992268
16.091459999999998,2.651469576534571,0.117381843159731
16.093848,2.656684482840903,0.1171932229091321
16.096227999999996,2.665763821013209,0.1168969913062983
16.098632000000002,2.67177012325246,0.1167091569007396
16.10102,2.682339705491984,0.1163187237191143
16.1034,2.688625546984955,0.1160883207005144
16.105795999999998,2.6952834755302635,0.1159146287633966
16.108184,2.705293979262348,0.1156086340704438
16.110563999999997,2.718796827808069,0.1151387527169226
16.112963999999998,2.7373275912050183,0.114616604949187
16.115347999999997,2.7565572027362686,0.1140128623590125
16.117731999999997,2.776578210200437,0.113396910957289
16.120128,2.8006959669560563,0.112750098328925
16.122515999999997,2.816200916248193,0.1122271237237845
16.124896,2.827142585540056,0.1119030365210999
16.127296,2.851028024870198,0.1112027386090696
16.12968,2.870257636401448,0.1106089064734049
16.132064,2.885762585693585,0.1101000033736128
16.134459999999997,2.902850326851558,0.1095983155221298
16.136848,2.9243143565547034,0.1090450746615101
16.139227999999996,2.948711652564043,0.1084200115197684
16.141632,2.968173581520771,0.1079418425682463
16.144019999999998,2.984050617865245,0.1075288762892268
16.1464,2.9991362582768017,0.1071147787206098
16.1488,3.015664920927334,0.1067251409477257
16.151187999999998,3.039550360257476,0.1061120196948325
16.153568,3.056126244736252,0.1056202234731932
16.155963999999997,3.068138849214753,0.105304590076532
16.158352,3.0823858718651485,0.1050048232069305
16.160731999999996,3.0914652100374544,0.1047670724430809
16.163131999999997,3.098262908209623,0.1046136759614507
16.20136,3.1299659673545905,0.1044242558775633
16.203739999999996,3.134761564780342,0.1043289969224085
16.206144000000002,3.136391578474421,0.1042375074153527
16.208531999999998,3.140256010340395,0.1041586826125544
16.210912,3.1481246436992025,0.1039884312628887
16.213307999999998,3.1539911763115924,0.1038667908998391
16.215696,3.162930744857039,0.10366732262831
16.218075999999996,3.173220787842843,0.1034103916312128
16.220472,3.181648499709091,0.1031819929610963
16.222859999999997,3.1930094778815343,0.1028941274393942
16.22524,3.210935836800669,0.1024232135674439
16.227635999999997,3.228070799786885,0.1019494955438617
16.230024,3.243715518705882,0.1015477897473113
16.232404000000002,3.263224669490853,0.1010627152301202
16.234803999999997,3.2787296187829904,0.1006692814278155
16.237192,3.2955850425154867,0.1002228053576822
16.239571999999995,3.3163048981139567,0.099699747542407
16.241968,3.331809847406093,0.0993100121020032
16.244355999999996,3.3455922352055345,0.0989332194942487
16.246752,3.359793931885556,0.0985162434361314
16.249147999999998,3.3701311966996035,0.098181918461228
16.251536,3.3779072822597938,0.0979498998830982
16.253915999999997,3.389408030059097,0.0976649102163398
16.256312,3.4014678563658407,0.0973252225834275
16.258699999999997,3.409523481179752,0.0970731910225692
16.26108,3.4193016674863594,0.0968105821886411
16.263484,3.430290558606465,0.0965111330108933
16.265872,3.438485953047236,0.0962533764806373
16.268251999999997,3.4525478801003966,0.0958935557319929
16.270648,3.464467936780281,0.0955896377304708
16.273035999999998,3.468239820847637,0.0954584655269317
16.275416,3.476015906407828,0.0952534413567024
16.277816,3.488215502341432,0.094936031579636
16.280203999999998,3.5041397605141498,0.0945778764832046
16.282584,3.522997284993063,0.094168863392771
16.284979999999997,3.536500133538784,0.0938830378386896
16.287368,3.548280420591807,0.0936104748644102
16.289747999999996,3.566067009884081,0.0932272764227755
16.292144,3.583434290295775,0.0928768519206418
16.294531999999997,3.599451096267109,0.0925805040118483
16.296915999999996,3.615328132611584,0.0922981254541736
16.299312,3.632555643396417,0.091961804396693
16.301699999999997,3.6444284782480576,0.0917524693106048
16.304096,3.658955040152173,0.0915276998643143
16.306492,3.674272997989207,0.0913027126459062
16.308880000000002,3.6886597902664624,0.0910923887180606
16.311264,3.702767043289997,0.0909127571904818
16.31366,3.7183173185525087,0.090748639267723
16.316048000000002,3.7295838530684655,0.0906825262288752
16.318432,3.744063193144338,0.0905483787447997
16.330388,3.79448211128349,0.0903945551069234
16.332768,3.807750746545863,0.0903037738646219
16.335164,3.822090316994875,0.0901928313872204
16.337552000000002,3.834288017070611,0.0901279022630413
16.339931999999997,3.8543543505051536,0.0899516742177726
16.342328000000002,3.8739088272604985,0.0897492092032766
16.344716,3.8953256351354,0.0895294480179906
16.347096,3.917673608570079,0.0893026489809187
16.349491999999998,3.942442991631756,0.0890053025409664
16.35188,3.964418878014098,0.0887442640359677
16.354259999999996,3.9883968651428567,0.0884544119480077
16.356664000000002,4.009441585965421,0.0882024267009597
16.359048,4.02783257973551,0.0879685142227281
16.361432,4.0458514864532615,0.0876984189427359
16.363827999999998,4.063358536491816,0.0874010734685613
16.366211999999997,4.077652780970455,0.0871697144413373
16.368595999999997,4.092086795075953,0.086927320427669
16.370995999999998,4.105589643621673,0.0866922635171855
16.373384,4.119791340301694,0.086399869738606
16.375763999999997,4.137205842541632,0.0860445125841922
16.37816,4.149824747355816,0.0857511853918621
16.380547999999997,4.15750828511739,0.0855269603703803
16.382944000000002,4.164772513998382,0.0853384196621881
16.38534,4.170453951013539,0.0851446938348492
16.387727999999996,4.169617229110247,0.0850136052272997
16.390107999999998,4.17129446463257,0.0848799458867418
16.392504000000002,4.169526577169499,0.0847575533989016
16.394892,4.1697607904528455,0.0846088988203305
16.397272,4.172928270042387,0.084426762307653
16.399676,4.173162483325734,0.0842789967862471
16.402063999999996,4.1707429695566045,0.0841443274235299
16.404443999999998,4.171676030974253,0.0839422967375154
16.406840000000003,4.172469322765039,0.083750357943992
16.409228,4.175916341608302,0.0835476902628421
16.411608,4.181365461197981,0.0833194051899832
16.414004,4.185231788921824,0.0830835909742808
16.416392000000002,4.190960447765223,0.082834137303356
16.418771999999997,4.197248185116063,0.0825404828413508
16.421168,4.203116613586323,0.0822800537865276
16.423555999999998,4.206843171683305,0.0820566339661088
16.425939999999997,4.20814832015329,0.0818895842971416
16.428343999999996,4.214249066049027,0.0816741871758491
16.430728000000002,4.219698185638706,0.0814452163185403
16.433112,4.22822034116144,0.0811738084716242
16.435508,4.237673662243952,0.0808948504143978
16.437896000000002,4.244473256273991,0.0806282854868483
16.44028,4.252715872543004,0.0803782812377687
16.442676,4.255883352132546,0.080198278046492
16.445064000000002,4.255046630229254,0.0800696896534285
16.447456000000003,4.253278742766184,0.0799470977762883
16.44986,4.250300150489614,0.0798531038862974
16.452247999999997,4.247181788586185,0.0797700409600269
16.454628,4.246205297056034,0.079650807600145
16.457028,4.242435308846546,0.079553496498854
16.459415999999997,4.240667421383476,0.0794322739795055
16.461796,4.240761865039962,0.0792969460383859
16.464191999999997,4.238062812017113,0.0791821990441251
16.466575999999996,4.237737946793019,0.0790793583042868
16.468956,4.238484016755564,0.0789596661435084
16.471351999999996,4.240161252277886,0.0788330987346039
16.47374,4.250405969293317,0.0785713219745848
16.47612,4.256786254442774,0.078347496682428
16.478519999999996,4.265168640338649,0.0781025182092709
16.480904000000002,4.272060782167304,0.0779073077819328
16.483283999999998,4.279884089555737,0.0777069544620729
16.485680000000002,4.289569728063728,0.0774949784458661
16.488068,4.301676776198715,0.0772321146735439
16.490463999999996,4.318998730640035,0.0769005249434172
16.492868,4.337391620267993,0.0765523991514069
16.495255999999998,4.360719876948563,0.0761543006329566
16.497636,4.388192104748827,0.0757024819752582
16.50004,4.413382692548954,0.0752938874483284
16.502428000000002,4.441366777028416,0.0748768571239285
16.504807999999997,4.469350861507877,0.0744613479980349
16.507204,4.495193075614062,0.0740844679596697
16.509591999999998,4.521966455280026,0.0737046329662083
16.511972,4.5508817053192665,0.0732972045145421
16.514367999999997,4.577143228306032,0.0728977326526748
16.516756,4.600331715359743,0.0725327135377748
16.519135999999996,4.62580184241359,0.0721318280525412
16.52154,4.641121696108493,0.0718428628547388
16.523927999999998,4.659933894617032,0.0714934713889566
16.526308,4.671808625326543,0.0712057929416017
16.528703999999998,4.683171499356855,0.070894928038184
16.531092,4.6936032078273895,0.07059032909126
16.533471999999996,4.704966081857702,0.0702837918937609
16.535876000000002,4.711114049581682,0.0700391593215574
16.53826,4.712047110999329,0.0698569357897023
16.540644,4.717124143536671,0.0696303786551982
16.543039999999998,4.721130240887373,0.0694195565138027
16.545428,4.723274007118519,0.0692186627324124
16.547807999999996,4.729561744469359,0.0689741561731455
16.550212000000002,4.727980848461393,0.0687908893158966
16.552599999999998,4.724397851707009,0.0686245701251323
16.554975999999996,4.716950423086652,0.0684836454405212
16.557375999999998,4.708711598533376,0.0683374025619126
16.559759999999997,4.6991222995397415,0.0682228466363168
16.56214,4.692606036479163,0.0680775944976627
16.564543999999998,4.687160708605222,0.0679184479730146
16.566932,4.679573510358004,0.0677858224580183
16.569311999999996,4.676921679163399,0.0676137395173626
16.571708,4.672500064647855,0.0675019218321007
16.574095999999997,4.677018018677756,0.0673184245306105
16.576476,4.679673641588098,0.0671422526332678
16.578871999999997,4.681537868565525,0.0669604789562056
16.58126,4.67888603737092,0.0667877341900616
16.583639999999995,4.683171673975342,0.0665620002756622
16.586036,4.690809885766542,0.066288118357338
16.588423999999996,4.69230202569163,0.0660743391559779
16.590804,4.695656496736274,0.0658556020683756
16.593199999999996,4.700593759646756,0.0656494182595934
16.595588,4.702597756251042,0.06546380728046
16.597983999999997,4.709676889534801,0.065233547837747
16.60038,4.723693490617588,0.0649559037485571
16.602767999999998,4.739572422819932,0.064669148627681
16.605148,4.755171815768556,0.0644012662340687
16.607543999999997,4.769840043157401,0.0641360101414843
16.609927999999996,4.784228731292524,0.0638925502612637
16.612311999999996,4.803692556107121,0.0636098266051772
16.614708,4.8228768416679975,0.0633449246764099
16.617092,4.846856724654626,0.063060844059511
16.619476,4.870045211708337,0.0627710967650137
16.621868,4.889089727642354,0.0625231205250082
16.624255999999995,4.910508431375124,0.0622926087766311
16.626652,4.936582962906787,0.0620517572327763
16.629047999999997,4.9650316822372025,0.0618274479672397
16.631436,4.98668270339545,0.0616412258011361
16.63382,5.008845581232897,0.0614808694344345
16.636215999999997,5.032870790189899,0.0613143864379541
16.638604,5.053031567280928,0.0611682645153572
16.640983999999996,5.072680487692759,0.0610013418460823
16.643388,5.093400343291228,0.0608249908263959
16.645775999999998,5.112909494076199,0.0606692399745418
16.648156,5.127343508181697,0.0605532164934132
16.650556,5.146852658966668,0.0604026103501987
16.65294,5.1695746153115545,0.0602227764368412
16.655324,5.194158902775998,0.060038548102183
16.657719999999998,5.214738988747608,0.059879623847324
16.660103999999997,5.2333169739728,0.059737003292005
16.662484,5.254316368824989,0.0595592146770138
16.664879999999997,5.268657835131871,0.0594054304893134
16.667268,5.282347675132694,0.0592376682732788
16.669663999999997,5.298179385506795,0.0590513040216428
16.672060000000002,5.318434606254311,0.0588212339905128
16.674447999999998,5.333754459949213,0.0586178308209992
16.676831999999997,5.350285018457615,0.0583973732776182
16.679228000000002,5.373613275138185,0.0581501624197663
16.681615999999998,5.3942878047662814,0.0579011823954889
16.683996,5.415893499954155,0.0576509860309782
16.686396000000002,5.438570130328667,0.0573911495568926
16.688784,5.459104890329904,0.0571517744585221
16.691164,5.4785687151445,0.0569233008900721
16.693559999999998,5.499243244772595,0.056678888205978
16.695948,5.517264047348216,0.0564303065533477
16.698327999999997,5.531140878804144,0.0562137010122542
16.700727999999998,5.543807005446571,0.056016764330433
16.703116,5.558754772089138,0.0557965414320395
16.705495999999997,5.579988380224674,0.0555323445512611
16.707900000000002,5.598148952427155,0.055288235770555
16.710288,5.614027884629499,0.0550708186828838
16.712668,5.632700313511178,0.05484989585296
16.715063999999998,5.653095303885553,0.0546349959385437
16.717452,5.672698898327011,0.0544165840118931
16.719831999999997,5.685365024969437,0.0542301427602884
16.722228,5.698031151611866,0.0540430426282331
16.724615999999997,5.711907983067792,0.0538421448395055
16.726996,5.722060152284605,0.0536471725223046
16.7294,5.733143487061198,0.0534513353441611
16.731788,5.743714965158592,0.0532355131231727
16.734167999999997,5.7524241121364295,0.0530209860953012
16.736564,5.761924655047185,0.0528127104705128
16.738951999999998,5.773427298704359,0.0525968588837705
16.741335999999997,5.784510633480951,0.0524035515085229
16.743732,5.800529335310155,0.0521926516470603
16.746119999999998,5.815896410833301,0.0519681705511786
16.7485,5.822603457064723,0.0517626656160795
16.750895999999997,5.825585841057031,0.051561143256304
16.753284,5.823213549116145,0.0513996129835932
16.755668,5.822331501242479,0.0512086499713824
16.758063999999997,5.820797827062756,0.0510036062996068
16.760447999999997,5.817541591390335,0.0507924320516563
16.762847999999998,5.813493959784996,0.0505749183749769
16.765243999999996,5.803951882619604,0.0504015989595795
16.767628000000002,5.794270035827353,0.0502343228284137
16.770012,5.78593866347546,0.0500444724081556
16.772408,5.773603089630734,0.0498701804219005
16.774796000000002,5.760056810972509,0.0497101355072465
16.777175999999997,5.743437496381228,0.0495647967175033
16.779576,5.723605376230033,0.0494409384165033
