Time,Force,Position
16.281859999999998,1.3951620961583613,0.1400385653033855
16.396548,1.700937353620807,0.1398347536022273
16.398932,1.708943860748605,0.1398047849422646
16.401328,1.7162987415703457,0.1397487111462901
16.403712,1.7260750320190832,0.1394775071395243
16.406092,1.7366427184007391,0.139186870153481
16.408488,1.7522855414618672,0.1385636671933629
16.410876,1.769790695642552,0.1378350808257278
16.413256,1.7837109572109835,0.1372699378901646
16.41566,1.795349578779278,0.1369037125001678
16.418048,1.804986099601156,0.1366807804731507
16.420428,1.817835425982949,0.1362229585753708
16.422828,1.833618018670937,0.135632789835685
16.425216,1.8451168706123715,0.1353316432621589
16.427599999999998,1.8555447873671669,0.1350946325642569
16.43,1.865693164868242,0.1349228878976045
16.432388,1.8731878153168424,0.1348603557302091
16.434772,1.8853855153925776,0.1344472286893402
16.437172,1.903729287334424,0.1336864578432506
16.43956,1.920210728156713,0.1330348840810914
16.44194,1.9385545000985596,0.1323178841960749
16.444344,1.9576896679733236,0.1315924776709579
16.446732,1.979106475848225,0.1307602894689245
16.449112,2.006389816335517,0.1296720523618292
16.451508,2.0323226823824494,0.1287279080410327
16.453892,2.057603922123324,0.1277703582767627
16.456272,2.080743291490922,0.126963211083032
16.458676,2.1048138264182983,0.1261376189720602
16.461064,2.13046715321151,0.1252708620937667
16.463444,2.15840212000486,0.1242749435419483
16.539896,2.390502070628128,0.1234906394487064
16.542276,2.3977644036512515,0.1234087313679785
16.54468,2.405446045554955,0.1232636845230797
16.547068,2.4159211841379937,0.1230312662609266
16.549447999999998,2.423043747534257,0.1229647993586536
16.551844,2.434310282050214,0.1227195985364233
16.554232,2.442503780633116,0.1226012959043705
16.556612,2.454049854402793,0.1223137445546975
16.55902,2.467737798545747,0.1219234105177182
16.561404,2.474907583770253,0.1217291663576522
16.563784,2.4812859730618406,0.1215408787458814
16.566188,2.487524592726569,0.121380495862618
16.568576,2.490969715711962,0.1213077654704225
16.57336,2.4970685657498297,0.1211697204776873
16.575744,2.500793227988943,0.1210613254565519
16.578124,2.503726494295138,0.1209605693147283
16.580528,2.5040060335488588,0.1209196625203171
16.582916,2.509360709482052,0.120686723393578
16.585296,2.5171367950422416,0.1203260024242719
16.587699999999998,2.522910779856015,0.1200364907618304
16.590084,2.5282654557892075,0.1198128769170911
16.592464,2.53334059246868,0.1196284817900485
16.59486,2.5356222324688167,0.1195183822664683
16.597248,2.5441897139619245,0.119159955396729
16.599628,2.54931207246964,0.1188655483486391
16.602028,2.556156992470052,0.1185350414339442
16.604416,2.56444493470944,0.1182250550653149
16.606796,2.570218919523213,0.117949379858171
16.609192,2.5823712936285745,0.1175103986988392
16.61158,2.6013213659061045,0.1168781653134714
16.613964,2.6174779415043,0.1163227098358613
16.61636,2.635496848222051,0.1157187540235593
16.618744,2.65509854680564,0.1151123486920975
16.621128,2.6754916413221457,0.1145109580849518
16.623524,2.693603095838514,0.1140210432013559
16.625912,2.713157572593859,0.1135457562693681
16.628304,2.7384388123347336,0.1129245498370663
16.6307,2.7539890875972444,0.1125797966793613
16.633088,2.7646965436057607,0.1124704372614739
16.635468,2.7803393666668885,0.1122175550045483
16.637864,2.790674735623067,0.1120586350942181
16.640252,2.8018015005121635,0.1118945761723416
16.642632,2.8186550283867904,0.1115803516309614
16.645032,2.829642023649027,0.1114408303800552
16.647416,2.8453773945087724,0.1112816690721194
16.649796,2.8658158149956523,0.1109258276599979
16.6522,2.8801553854446644,0.110666598490781
16.654588,2.9004540363046845,0.1103399462149648
16.656968,2.920660139366088,0.109940697727204
16.659364,2.932066443508905,0.1097750896157913
16.661752,2.94426414358464,0.1096049231192367
16.664132,2.955390908473736,0.1094715205280489
16.666536,2.9618618455639405,0.1094334409398975
16.668924,2.967820925974948,0.1093663942495303
16.671304,2.974990711199454,0.1092476348776604
16.6737,2.9839302797449,0.1090175685618807
16.676088,2.9859323804913163,0.108964825439133
16.678472,2.9984568416490154,0.1086767792918489
16.680868,3.0131703950082347,0.1082148812356058
16.683256,3.020946480568425,0.1079355645415216
16.685652,3.0348214161664826,0.1075712006347627
16.688048,3.045530768032868,0.107212899439806
16.690436,3.0537261624736387,0.106887765426203
16.692816,3.0675085502730792,0.1064558449088442
16.69522,3.079847915833544,0.1060216564545595
16.697608,3.0865530662070952,0.1057925518338743
16.699984,3.0973549658720976,0.1055386188419619
16.702392,3.104851512178568,0.1053129218076038
16.704776,3.114582476656931,0.1051064825106579
16.707156,3.1278983337475483,0.1048454966859958
16.70956,3.142424895651664,0.1045389805765086
16.711948,3.158162162369279,0.1041872794819299
16.714328,3.178555256885785,0.1037488385333809
16.716724,3.197737646588792,0.1033620173154892
16.719112,3.217990971478438,0.1029535338587344
16.721492,3.230747750061614,0.1027614185409228
16.723896,3.250721535697539,0.1023852525814805
16.72628,3.266691119840631,0.1021118895811675
16.72866,3.285686518088535,0.1018569801386509
16.731064,3.307754952269494,0.1015196567983757
16.733452,3.3274491986516983,0.1011887142586169
16.735832,3.3501692591387155,0.1008652265314717
16.738236,3.3726097803720125,0.1005772316843927
16.74062,3.388532142686861,0.1003960983492093
16.743,3.4016610083223746,0.1002607697787475
16.745404,3.416931744331165,0.1000652207530614
16.747792,3.428897126981423,0.0998853289447473
16.750172,3.439931344071903,0.0997224681963054
16.752568,3.443236697430436,0.0997064340427251
16.754956,3.447101129296409,0.0996333028822279
16.757336,3.4528278922819395,0.0995334384253537
16.75974,3.460416986387026,0.0994083399655838
16.762124,3.46456095750672,0.0993108988144023
16.764504,3.469775863813052,0.0991864038806768
16.766904,3.473919834932746,0.0990914700044182
16.769288,3.485141043478329,0.0988451884853819
16.771668,3.4892850145980225,0.0987502546091234
16.774072,3.494779460158076,0.0986027226214868
16.776456,3.497899717919374,0.0984555740083871
16.778836,3.5060951123601454,0.0982092074701597
16.78124,3.5142905068009163,0.097963636276611
16.783628,3.524395454189486,0.0976171760307858
16.786008,3.533709005645139,0.0972714857007068
16.788412,3.5488890897131817,0.0968282147868002
16.7908,3.5642089434080844,0.0963692305469808
16.79318,3.5805997322896266,0.0958910148466219
16.795576,3.599784017850503,0.0953766213545188
16.797964,3.619619929717437,0.0948782477740958
16.800344,3.6457416830773424,0.0942388770562149
16.80274,3.668790400504192,0.0936619569491909
16.805128,3.685041419758874,0.0931936473398251
16.807508,3.697428007147582,0.092789979377746
16.809904,3.717403688641376,0.0922887270209275
16.812292,3.736308434948533,0.0918145284466529
16.814671999999998,3.75414224606905,0.0913670549200603
16.817076,3.768111625323593,0.0909810295191694
16.819464,3.7868766020038898,0.09052393052482
16.821844,3.801637377191352,0.0901386628334997
16.82424,3.818912109804428,0.0897511654547378
16.826628,3.828178439431837,0.0895038188630205
16.829007999999998,3.838375934619026,0.0892475494076843
16.831404,3.848014351298772,0.0890455280485178
16.833792,3.858583933538297,0.0888348892820052
16.836172,3.866080479844767,0.0886812645167652
16.838572,3.877301688390349,0.0884903390475714
16.84096,3.885589630629737,0.0883415171324436
16.84334,3.894808738428904,0.0881855015711649
16.845744,3.903376219922012,0.0880158974191181
16.848132,3.909522291788123,0.0879135270524607
16.850512,3.9184618603335686,0.0877828504019889
16.852916,3.9354098318646815,0.0875316464766603
16.855304,3.952497573022656,0.0872672364429421
16.857684,3.961716680821822,0.0871155083809544
16.860088,3.9712153278747087,0.0869411433491615
16.862476,3.9785721045543183,0.0868066496031207
16.864856,3.987651442726624,0.0866651807764889
16.867256,3.994216823473316,0.0865288696596941
16.869644,4.002644535339564,0.0863732148099782
16.872024,4.008278750526476,0.0862464376863675
16.87442,4.015263440153748,0.0860730894917346
16.876808,4.024110460900577,0.0858844960083556
16.879188,4.031234920154709,0.0857037403458726
16.881584,4.037288444222202,0.0855442114649674
16.883972,4.044273133849474,0.0853763935313556
16.886352,4.048464326797412,0.0852365281952617
16.888756,4.052655519745348,0.0850958351834308
16.891144,4.056846712693286,0.084957117972339
16.893524,4.05731324340211,0.0848513520773374
16.89592,4.058850709297572,0.0847258275117162
16.898308,4.060667714446755,0.08457844038841
16.900688,4.056338647729826,0.084526734854721
16.903084,4.05680517843865,0.0844232535927715
16.905472,4.062766154707528,0.0842138939339266
16.907856,4.067376656536045,0.0840454999621998
16.910252,4.078412769484394,0.083765028312747
16.91264,4.088145629820627,0.0834567544429754
16.91502,4.101323613142253,0.0831421678268476
16.917416,4.1157123012773775,0.0827999358444735
16.919804,4.128378427919806,0.0824604482052885
16.922184,4.145141303853684,0.0821277049301278
16.924584,4.158179517548451,0.0818281298465811
16.926972,4.172288666429854,0.081512539237601
16.929352,4.186397815311258,0.0811969486286209
16.931748,4.199855337886605,0.0808689221093056
16.934136,4.212241925275313,0.0805585078023759
16.936516,4.228772483783715,0.0801902324483053
16.938912,4.240507444866364,0.0798680190860921
16.9413,4.260622895987019,0.0794836626757826
16.943696,4.280086720801617,0.0790873837901424
16.946096,4.299271006362493,0.0787159785954268
16.94848,4.322739032669923,0.0782757001164685
16.95086,4.338198655991687,0.0779329187540374
16.953264,4.348955229686315,0.0776941074926513
16.955652,4.363855774500638,0.0773991404108339
16.958032,4.373541413008628,0.0771821563711392
16.960424,4.383599138568956,0.0770003075858336
16.962812,4.389001036330391,0.0768507500127635
16.965196,4.392121294091689,0.0767450380239457
16.967592,4.400176918905601,0.0765884492633685
16.96998,4.405206729614699,0.0764062813992825
16.97236,4.412238641070215,0.0762023084453227
16.974756,4.419130782898869,0.0760102248162582
16.977144,4.4253712984214655,0.0758036624209047
16.97954,4.43347414506362,0.0755874175624473
16.981936,4.442787696519271,0.0753451468115381
16.984324,4.449959377601647,0.0751376283509928
16.986704,4.464068526483051,0.0748630373639226
16.9891,4.473661617192424,0.0746100335979852
16.991488,4.486048204581131,0.0743445590769315
16.993868,4.500856201596838,0.0740346099690772
16.996268,4.514453493799045,0.0737525524763948
16.998652,4.533265692307583,0.0734052403629425
17.001036,4.551566034136924,0.0730306630166583
17.003432,4.565862174473432,0.0726979981060916
17.00582,4.581089480369718,0.0723595565453761
17.008204,4.597667260706363,0.0719886023285651
17.0106,4.616386911416284,0.0715875475099631
17.012988,4.636457036566565,0.0711520271096369
17.015368,4.650520859477596,0.0707762991363392
17.017764,4.665236308694684,0.0704158128673964
17.020152,4.677530348284774,0.0701034426650438
17.022548,4.687682517501588,0.0698198705031559
17.024944,4.69862608265132,0.0695414456548411
17.027332,4.706496611867997,0.0692974790389141
17.029712,4.714367141084674,0.0690544663083633
17.032116,4.720375339181793,0.0688209567711548
17.0345,4.722239566159219,0.0686360235542994
17.036884,4.720890987576729,0.0684917677627887
17.03928,4.715538207501405,0.068384307765155
17.041668,4.703899585933111,0.0683494293957704
17.044048,4.691329798805038,0.0683182664128139
17.046447999999998,4.679551407609883,0.0682914821267383
17.048832,4.670566513094064,0.0682520831303099
17.051216,4.663583719324662,0.0681950709618518
17.053612,4.65566975999548,0.0681420702571517
17.055996,4.648966505479798,0.0680658894924287
17.05838,4.645056747643451,0.0679782363241127
17.060776,4.644871652046216,0.067876375942864
17.063164,4.651344484994292,0.0677403602896687
17.065544,4.6576775483155055,0.0676135758807082
17.06794,4.6664320212637165,0.0674433050646514
17.070328,4.678399299771844,0.0672357626944158
17.072724,4.693299844586168,0.067011077695844
17.07512,4.711133655706685,0.0667679068333983
17.077507999999998,4.730550258693039,0.0665377324597139
17.079888,4.751689423172088,0.0663101071732635
17.082292,4.770826486904721,0.0660966891732076
17.08468,4.794107521757049,0.0658418115184026
17.087064,4.818319722169154,0.0655827993665015
17.08946,4.846396354447233,0.0652987105273884
17.091844,4.875916008964289,0.0650355797502876
17.094224,4.903573332361788,0.0647820628128562
17.096632,4.931230655759285,0.0645310716499915
17.09902,4.96116961915692,0.0642525352624411
17.101396,4.9951127840473895,0.0639461866980634
17.1038,5.028496870430418,0.0636806368178191
17.106188,5.056945589760835,0.0634496853135051
17.108572,5.080598711665499,0.0632454925236584
17.110968,5.098525070584634,0.0630686554475886
17.113356,5.118593299877046,0.0628706871139648
17.115736,5.1386615291694575,0.0626752236761211
17.118132,5.156727657715453,0.0624956061571894
17.12052,5.172000289582113,0.0623263374469338
17.1229,5.1856901295829365,0.0621473796791915
17.125296,5.197797177717924,0.0619580936721449
17.127684,5.209252599546853,0.0617556257312359
17.130068,5.228204567682252,0.06148224024663
17.132464,5.251020967683626,0.0611971731234755
17.134847999999998,5.274116906938719,0.0608968331896772
17.137232,5.296421450260894,0.0605916604268427
17.139636,5.318493676157591,0.0602509325200709
17.142024,5.338563801307873,0.0599215126441025
17.144404,5.356771595338597,0.0595970402346581
17.1468,5.36855377824949,0.059333479842272
17.149188,5.376471529294409,0.0590874904386388
17.151571999999998,5.381735553286854,0.058840052680316
17.153968,5.389932843585494,0.058578561400975
17.156356,5.396779659443774,0.0583413288025042
17.158739999999998,5.40669951123511,0.0580821522885853
17.161136,5.415548427839807,0.0578349067094106
17.163524,5.42146407813831,0.0576012741949523
17.165904,5.42924205955637,0.0573651709810097
17.168304,5.434738400974292,0.0571557391743125
17.170692,5.440886368698274,0.0569612647752584
17.173072,5.446754797168534,0.0567828307475205
17.175468,5.452623225638792,0.0566049266074403
17.177856,5.452066042989222,0.0564850669419834
17.180236,5.443779996607704,0.0563929879323766
17.182636,5.436425115785964,0.05629925414661
17.185024,5.429349774217944,0.0561898159222762
17.187404,5.420272331903506,0.0560902801370972
17.189804,5.416409795895402,0.0559537312802303
17.192192,5.413618195073937,0.0558080549458941
17.194572,5.416181270185664,0.0556178849336699
17.196972,5.421817381230444,0.0554096960936166
17.19936,5.427593261902087,0.0551935283321573
17.20174,5.432577746640813,0.0549715985172416
17.204136,5.441054576193173,0.0547080794561411
17.206523999999998,5.4495314057455335,0.0544462218912774
17.208908,5.455074968991698,0.0541946689342225
17.211304,5.460478762611004,0.053949143162088
17.213691999999998,5.463228829177834,0.0536996835534264
17.216072,5.4689121620508585,0.0534391638883606
17.218476,5.470591293431051,0.053196933884627
17.220864,5.47441229518452,0.052938583683968
17.223244,5.4779537576842685,0.0526957101941902
17.22564,5.47963288906446,0.0524529874619838
17.228028,5.48210341637757,0.0522150500931758
17.230408,5.481500907757624,0.0519950613208821
17.232804,5.480618859883959,0.0517907143401974
17.235192,5.477594941637015,0.0516022157727567
17.237576,5.472568922643655,0.0514241567292824
17.239971999999998,5.468474069210074,0.0512456390355781
17.24236,5.462237345403215,0.0510841097101724
17.24474,5.45399852084994,0.0509315201457707
17.247139999999998,5.445480157042944,0.0507934522788306
17.249528,5.439755289915283,0.0506543866721968
17.251924,5.432028322041205,0.0505233931842896
17.25432,5.424301354167126,0.050392544948857
17.256708,5.419787191852966,0.0502379498000776
17.259088,5.421279331778053,0.0500599315963018
17.261484,5.420629601329865,0.0498962776470018
17.263872,5.4186766182695605,0.0497032606610726
