Time,Force,Position
17.614971999999998,1.3262566280240553,0.1764979054950776
17.617372,1.3344029047787136,0.1762186466502245
17.619756,1.347484548585984,0.1755005714312098
17.622139999999998,1.363127371647112,0.1744658529610662
17.624536,1.3787701947082402,0.1734101340033669
17.626924,1.397858140754761,0.1720835421910702
17.629303999999998,1.414804216428005,0.1709882032812465
17.6317,1.4286772561681935,0.1701562543338627
17.634092,1.4442728574010784,0.1692520925613311
17.636471999999998,1.4637328904999367,0.1680115522609468
17.638872,1.4846359458377711,0.1667243177012899
17.64126,1.5063303971085238,0.165449403847831
17.643639999999998,1.527745309125556,0.1643267151177085
17.64604,1.54836882520967,0.163238058721794
17.648428,1.5711342116670608,0.1619604145222374
17.650807999999998,1.5909663318182568,0.1609895351163198
17.653208,1.6077254160363972,0.1602686950884943
17.655596,1.626766140254675,0.1593556519834272
17.657975999999998,1.6478089652193697,0.1583243559211377
17.660372,1.6689915598109244,0.1572810461342584
17.66276,1.6925955640294768,0.156022142273892
17.66514,1.7191328345542245,0.1546335663990609
17.66754,1.7398035724665817,0.1537095812933817
17.669928,1.7566098785129651,0.1530579252340458
17.672308,1.7754182853057656,0.1522759563735979
17.674708,1.7930159872850675,0.1516032262404412
17.677096,1.8136867251974245,0.150710710730157
17.679475999999998,1.8426454053491692,0.1492274730423232
17.681872,1.8709524591948568,0.1478134510639252
17.68426,1.8951155419208496,0.1467032330366556
17.686643999999998,1.9183474590870648,0.1456368600093145
17.68904,1.9407879803203616,0.1446195183445411
17.691428,1.9615059400609625,0.1436862057092769
17.693811999999998,1.9842260005479797,0.1426457291135733
17.758336,2.0795107942907705,0.1420283806714372
17.760735999999998,2.080953816529746,0.1420231482808781
17.763123999999998,2.0843989395151388,0.1419101736383922
17.7655,2.095200839180141,0.1413601134389771
17.767903999999998,2.1069339044049222,0.1407738678347279
17.770291999999998,2.114522998510009,0.1404328328812459
17.772672,2.123834654107792,0.1400456079866343
17.775068,2.1320753745189367,0.1397178900738376
17.777456,2.143761217915474,0.1392592038398011
17.784616,2.162427959223545,0.1390839502199607
17.786996,2.169131213739228,0.139025590349033
17.7894,2.179978439374604,0.138731013255122
17.791788,2.187240772397727,0.1385747592696616
17.794168,2.195993349488069,0.1382684811002143
17.796564,2.202743825831995,0.1380783997692671
17.798952,2.207631971056364,0.1379732553383436
17.801332,2.2157329218406483,0.1376913474834635
17.803736,2.2290487789312654,0.1371257111587735
17.80612,2.240222765648605,0.1366896562529016
17.8085,2.2556332712842555,0.1361537754805021
17.810896,2.271183546546767,0.1356057423994188
17.813284,2.281379145876085,0.1353574498744389
17.81568,2.2897124140858462,0.1351771111739296
17.822844,2.3072156724086623,0.1350251002868245
17.82524,2.312755443939089,0.1349369764037221
17.827628,2.317643589163458,0.1348358824678991
17.830008,2.3225317343878267,0.1347300445223218
17.832404,2.332355246664808,0.1343953377390743
17.834792,2.3391057230087338,0.1342201933530029
17.837172,2.3477185304722155,0.1339876566301671
17.839568,2.355912029055117,0.1338165964727726
17.841956,2.3674108809965517,0.1335763792035684
17.84434,2.380632294430681,0.1332994190479851
17.85868,2.439191801750883,0.133188544056792
17.861076,2.4505036622372143,0.1331304833752009
17.863464,2.4632585449625206,0.1330710597983145
17.865844,2.4768048236207454,0.1330064168275767
17.86824,2.499709979704997,0.1325313271472223
17.870628,2.529971912468858,0.1317397924017687
17.873024,2.5579522052325814,0.131082618732278
17.87542,2.590448556168336,0.1303150494344686
17.877807999999998,2.626949108596925,0.1293988258400636
17.880188,2.657722898039983,0.1286843282449045
17.882583999999998,2.691290184162377,0.1278852818825567
17.884971999999998,2.71885116804552,0.1273217493390047
17.887352,2.7486937919288,0.126636798648541
17.889748,2.7740203576400484,0.1260704905614204
17.892136,2.793759929992628,0.1256675907749491
17.894516,2.8117769408525106,0.1252994141784729
17.896919999999998,2.8305853476453104,0.1249213794084461
17.899307999999998,2.8504646896247494,0.1245015951348531
17.901692,2.8718342756714077,0.1239965807667749
17.904087999999998,2.889199660225232,0.123635950210686
17.906475999999998,2.903631778472861,0.1233727332388171
17.908856,2.91778435746677,0.1231490146608821
17.911251999999998,2.9343583460876763,0.1228062726323615
17.927972,2.985238107362044,0.1227208757443144
17.930352,2.9923606707583077,0.1226754792383498
17.932752,3.0017648741547074,0.1225350216606565
17.935136,3.0093067464315517,0.1224382205201835
17.937532,3.0208528202012284,0.1222208772847178
17.939932,3.0341214554636027,0.1219669338579482
17.942315999999998,3.053116853711506,0.1215716467433018
17.9447,3.070529460093574,0.1211850296131648
17.947096,3.0854281090500275,0.1208338132159226
17.949483999999998,3.0971139524465645,0.1206037656417912
17.951864,3.112524458082216,0.1202855540022215
17.954259999999998,3.1282145029715878,0.1199280777579231
17.956652,3.1433926911817607,0.1195441497950716
17.959032,3.154706447525961,0.1192687571792316
17.961436,3.163086937563966,0.1190729226718426
17.96382,3.175890937975385,0.118712209871725
17.966203999999998,3.18660028984177,0.1183369580968012
17.968608,3.1926538139092635,0.118069456576546
17.970992,3.2012212954023718,0.1177734471296437
17.973371999999998,3.211511338388176,0.1174476813166689
17.975772,3.215003683201812,0.1173036485675649
17.978156,3.212909034656778,0.1172857828170416
17.980539999999998,3.2116057820446624,0.117263037224542
17.982944,3.2164486012986577,0.1170564230869296
17.985332,3.217426988686679,0.116945991910876
17.987712,3.2228288864481147,0.1166791806017274
17.990108,3.220641690104464,0.1165860866956997
17.992496,3.222598464880506,0.1163706427761103
17.994875999999998,3.22348430446991,0.116188060228677
17.997272,3.2218561866337003,0.1160313823218517
17.999664,3.217853880998736,0.1158866941574291
18.002043999999998,3.217855776856605,0.1156343983550405
18.00444,3.218788838274253,0.1153640693496297
18.006828,3.2209326045053994,0.1150433675212571
18.009208,3.225497780363543,0.1146207300548353
18.011604,3.2259189851019934,0.1143232912303404
18.013992,3.223639240959725,0.1141541018308217
18.016372,3.222430432004096,0.11394864865018
18.018772,3.2154948600629365,0.1138762249563871
18.021156,3.208838827375497,0.1137720788004046
18.02354,3.2052558306211134,0.1135760420429643
18.025936,3.206188892038761,0.1132949925048404
18.028324,3.2083326582699074,0.1129655263341887
18.03072,3.2033991870751644,0.1128366540639884
18.033116,3.202190378119536,0.1126313837938165
18.035504,3.1968375980442123,0.1125486430461151
18.040288,3.1867836641996234,0.1123942934946477
18.042672,3.184876007109693,0.1122675221826793
18.045056,3.185482307445377,0.1121146763011468
18.047452,3.1876713996468964,0.1119557107591749
18.049836,3.18799816072886,0.1118359595373752
18.05222,3.188324921810824,0.1117170601668646
18.054616,3.1894430788257058,0.1115962735236949
18.057,3.192004258079564,0.1114870858753043
18.05938,3.1954966028931997,0.111360159864289
18.06178,3.204203854013168,0.1110843069300264
18.064164,3.21663576737225,0.1107428974241128
18.066548,3.2350739829705817,0.1102487321423798
18.068944,3.257516400061747,0.109670300751881
18.071332,3.279958817152913,0.1090943612907113
18.073728,3.301609838311161,0.1085297010924307
18.076124,3.3171147876032983,0.1081191998374476
18.078512,3.329406931335519,0.1077899839305813
18.080892,3.3421183839483213,0.1074244279859461
18.083288,3.354829836561123,0.1070554940305078
18.085676,3.3701950162264005,0.1066568411848869
18.088056,3.3875622966380945,0.1062044363372396
18.090464,3.401996310743593,0.1058279020602454
18.092848,3.4156389289161733,0.1054506908819587
18.095228,3.4264880504094197,0.1051218590652881
18.097628,3.4347759926488064,0.1048998086300375
18.100016,3.4421327693284165,0.1046962120762589
18.102396,3.4473476756347488,0.1045550225594976
18.104792,3.449629315634886,0.1044781684244485
18.10718,3.45377328675458,0.1043694580798151
18.10956,3.457125861941356,0.1042643405842104
18.111964,3.459687041195214,0.1041630906832626
18.116732,3.460665428583236,0.1040652055142778
18.119128,3.463086838210233,0.1039833984677287
18.121516,3.463645916717674,0.1039294577079154
18.123896,3.4712822326510038,0.1037239962621358
18.126292,3.4870667211968605,0.1033351812941046
18.12868,3.499498634555942,0.103045882382693
18.13106,3.5179368501542743,0.1026413533417639
18.133456,3.5310676116476576,0.10229297409013
18.135844,3.5466197827680377,0.1018703225345224
18.13824,3.5596579964628035,0.1014606142723287
18.140636,3.576840181277264,0.1009643421543371
18.143024,3.5992372723980552,0.100356469488081
18.145404,3.622472981280009,0.0996646097812121
18.1478,3.647850560535239,0.0989304697989747
18.150188,3.672716283111272,0.0981625208985597
18.152572,3.698932480127664,0.097340110916026
18.154968,3.72263471971844,0.0965355377031702
18.157356,3.747547664122716,0.0957079141380648
18.159736,3.76738547184752,0.0949798320688045
18.162132,3.785221178825907,0.0942968064761528
18.16452,3.79947199319204,0.0936415180048885
18.1669,3.80971860606534,0.093070695881783
18.169296,3.820896384498418,0.0924874352298021
18.171684,3.831282766998579,0.0919148572613796
18.174068,3.8398068183791834,0.0913732744316913
18.176464,3.850612509759924,0.0907730436219948
18.178852,3.852758171848939,0.0902980385073785
18.181232,3.857557560990429,0.0898002398594675
18.183632,3.8599355405049214,0.0893767135155301
18.18602,3.863244685579193,0.0889402809735762
18.188416,3.863620564347269,0.0885514318823898
18.190816,3.8606438679285686,0.0882440593342503
18.193204,3.859249963375705,0.0879413176855399
18.195584,3.852641152516509,0.0877349824460261
18.19798,3.8505483998293446,0.0874925810498938
18.200368,3.84845564714218,0.0872502704463262
18.202748,3.846223124828156,0.087018968376119
18.205144,3.837425221767439,0.086928292770398
18.207536,3.8329110594532767,0.0867504490781889
18.209916,3.8251840915792,0.0866375735975554
18.212316,3.824906448183348,0.0864469588242605
18.2147,3.824489035160637,0.0862685977403393
18.21708,3.823792082884205,0.0861146216895756
18.219484,3.8188113898612186,0.0860476881367449
18.221872,3.811688826464956,0.0860238124651082
18.224252,3.803495327882055,0.0860206315052563
18.226648,3.801540448963881,0.0859760659458465
18.229036,3.802379066725042,0.0859039797821145
18.231416,3.802286518926425,0.0858409478257486
18.240976,3.8065702596729794,0.0857571142095825
18.243364,3.811365857098731,0.0856993276214333
18.24576,3.814159353778066,0.0856724923691524
18.248156,3.8183958726963767,0.0856637869643488
18.250544,3.826217284226941,0.0856323198992613
18.252928,3.842326637996893,0.0854604240810631
18.255324,3.8575973740056826,0.0853602650646227
18.257708,3.879805577813502,0.0851644028421877
18.260092,3.897078414568709,0.0850373613139267
18.262488,3.9134200857641375,0.0849182281101684
18.264876,3.9320433969597057,0.0847492525235039
18.26726,3.953599974461467,0.084541576391666
18.269656,3.978229587896284,0.0842876361496619
18.272044,4.002859201331101,0.0840353028334874
18.274428,4.0220415910341085,0.0838213494279764
18.276824,4.039221879990699,0.0836394934052884
18.279212,4.058264500066846,0.0834411505277081
18.281596,4.07372222753074,0.083267705416691
18.283992,4.095186257233884,0.0830132919164695
18.28638,4.125170546601894,0.0826798597714572
18.28876,4.155154835969904,0.0823509255648065
18.291156,4.180483297539022,0.0820622786618066
18.293544,4.203949427988583,0.0817891715802927
18.295928,4.22476183138567,0.08152859634183
18.298324,4.241849572543643,0.0813005890771757
18.300712,4.254793342581923,0.081139576480582
18.303096,4.268435960754503,0.0809253930099926
18.305492,4.279424851874609,0.0807267078962913
18.30788,4.290693282248434,0.0805054098879212
18.31026,4.302892878182038,0.0802762035550484
18.31266,4.312950603742366,0.0800846902848177
18.315048,4.318352501503802,0.0799273848899817
18.317432,4.325476960757935,0.0797698923743894
18.319828,4.333532585571845,0.0796064504139259
18.322216,4.346383807811508,0.0793979127158717
18.3246,4.3583038644913925,0.07919687392888
18.326996,4.370223921171277,0.0789970737018379
18.32938,4.384006308970717,0.0787858339126436
18.331764,4.394343573784765,0.0785841079975127
18.33416,4.397231514120586,0.0784356699129058
18.336548,4.4011903896430455,0.0782724035637065
18.338932,4.411155567404757,0.0780441106616995
18.341324,4.421120745166466,0.0778145973229561
18.343712,4.435229894047871,0.0775332570340337
18.346108,4.450409978115913,0.0772355307885403
18.348508,4.466660997370594,0.0769231039509801
18.350896,4.483051786252137,0.0766047397910893
18.353276,4.49744047438726,0.0763091032082697
18.355676,4.514622659201721,0.0759980642930092
18.35806,4.531944613643041,0.0756776365165394
18.360444,4.548475172151441,0.0753525896316155
18.36284,4.575807630324846,0.0749319815909298
18.365228,4.598344491072498,0.0745526363316303
18.367608,4.618739481446874,0.0742036053126452
18.370004,4.637272140701693,0.0738681930298748
18.372392,4.654873634396734,0.0735372385169268
18.374772,4.671823501785715,0.0731940773121959
18.377172,4.688773369174698,0.0728553196672645
18.37956,4.708237193989294,0.0725247890354746
18.38194,4.732496616229643,0.0721623735217566
18.384336,4.751401362536798,0.0718706644223141
18.386724,4.765230972164482,0.071635001121278
18.389104,4.781062682538583,0.0713806794025512
18.391504,4.7936815873527685,0.0711714470759361
18.393892,4.807231657726732,0.0709587219769254
18.396272,4.819710792914056,0.0707606974699815
18.398672,4.8309792232878825,0.0705872459335683
18.40106,4.845180919967904,0.0703925924098844
18.403456,4.8595223862747865,0.0701918408324011
18.405852,4.875586414074364,0.0699929429787971
18.40824,4.8945837081801375,0.0697740449166774
18.41062,4.904361894486744,0.0696487792775976
18.413016,4.915071246353129,0.0695191243069062
18.415404,4.926991303033014,0.0693671980082274
18.417784,4.939702755645816,0.0692207579185443
18.42018,4.952693747512338,0.0690562412646667
18.422568,4.966196596058059,0.0689151178988909
18.424952,4.975555473484086,0.068816573576635
18.429736,4.979047818297721,0.0687603275116254
18.43212,4.983471328671135,0.0686996831569042
18.458408,4.962288734079579,0.0686611196988309
18.460792,4.963359669266219,0.0686487579320233
18.463188,4.968155266691971,0.0686220725849323
18.465576,4.974301338558081,0.0685668203474052
18.46796,4.983892533409586,0.0685151176426593
18.470356,4.993903037141671,0.068438590236773
18.472744,5.008476820874028,0.0682981992980782
18.475128,5.023469913486967,0.0681320003166959
18.477524,5.047821883525934,0.0678766153286704
18.479912,5.069380356885564,0.0676349150237579
18.482296,5.098807463604001,0.0673433225937774
18.484692,5.129165735882218,0.067050262872598
18.48708,5.164179835959326,0.0667443771964101
18.489464,5.1991939360364325,0.0664369714650128
18.49186,5.237281072046597,0.0661053585400087
18.494252,5.27006075395181,0.0657748093389605
18.496632,5.306053241416939,0.0654080104350994
18.499032,5.337901757762376,0.065079901802538
18.50142,5.365094446308919,0.0647706867474991
18.5038,5.392846213362904,0.0644282686797236
18.5062,5.416593778924056,0.0641159212413589
18.508588,5.437827387059593,0.0638000296903748
18.510972,5.453613771463319,0.0634961062331032
18.513368,5.468189451053547,0.0632143432212041
18.515756,5.478109302844884,0.0629471871077419
18.51814,5.48802915463622,0.062681935999615
18.520536,5.49566736642742,0.0624479934794075
18.522924,5.502886269338038,0.0622373631198395
18.525304,5.501956999636129,0.0620883250058654
18.5277,5.499956794747582,0.0619495950359843
18.530088,5.492649135754084,0.0618104470375581
18.532472,5.487623116760724,0.0616437598559958
18.534868,5.478081039595333,0.0614811637970559
18.537256,5.474685034296052,0.0612755251372306
18.539636,5.468215993063716,0.0610918940756614
18.542036,5.469475815563328,0.0608762936001446
18.544424,5.473948443622854,0.0606342501263166
18.546804,5.481773646869157,0.0603558761727424
18.549204,5.49411490828749,0.0600764685359957
18.551592,5.508598040079102,0.0597807825608243
18.553972,5.530437948550322,0.0594312865964476
18.556372,5.548133885901849,0.0591097922844592
18.55876,5.565550283999654,0.0588016474911945
18.56114,5.582035516537682,0.0584963825514751
18.56354,5.60466682094182,0.0581536226903068
18.565928,5.62743789497282,0.057806583407256
18.568308,5.647275702697624,0.0574702357969661
18.570704,5.671537020795842,0.0570928225972204
18.573092,5.701944410760171,0.0566773191719217
18.575476,5.734353901470916,0.0562528705242153
18.577872,5.765133378487581,0.0558664272855391
18.58026,5.789627014011277,0.0555272290302835
18.58264,5.814120649534972,0.055188416419364
18.58504,5.830605882073,0.0548924691775961
18.587428,5.851235085730722,0.0545713230653019
18.589812,5.866928922335832,0.0542738186485573
18.592208,5.8736831903954965,0.0540162849814702
18.594596,5.878155818455023,0.053783224069501
18.596992,5.87704145315588,0.0535567316846387
18.599388,5.8745766134163775,0.0533541810133526
18.601776,5.867408724049741,0.0532071901327076
18.60416,5.86890086397483,0.0530381669007835
18.606556,5.876399306139169,0.0528435251627976
18.608944,5.88296658274373,0.0526496672557704
18.611324,5.8844587226688185,0.0524822974859119
18.613724,5.8836692225937695,0.0523376291222547
18.616112,5.887815089571332,0.0521751938570695
18.618492,5.889819086175618,0.0520295132777494
18.620892,5.888889816473709,0.0518934282965879
18.62328,5.885958446025384,0.0517653823810274
18.625664,5.885960341883252,0.0516285808384331
18.62806,5.890897604793734,0.051474941085031
18.630448,5.899279990689608,0.0513336687691294
18.632832,5.910595642891677,0.0511833270249715
18.635232,5.915765223227636,0.0510640544522724
18.63762,5.921726199496512,0.0509511254589532
18.640004,5.936347205057115,0.0508200592353665
18.6424,5.952970311364132,0.0506813169750378
18.644788,5.973318079910264,0.0505407660139619
18.647172,5.993526078829537,0.0504078926264643
18.649568,6.01294268181589,0.0502684935661292
18.651956,6.024490651443437,0.0501539517482517
