Time,Force,Position
20.193532,2.2768931276100286,0.1623316871016505
20.19592,2.2980757222015837,0.1616106166609923
20.1983,2.3223313527261933,0.1607123129931171
20.200696,2.3475181488105816,0.1597428986518649
20.203088,2.3733565712010285,0.1587791980078801
20.205468,2.4024077991513906,0.157585663293316
20.207864,2.43374066710189,0.1562443914663
20.210252,2.4553425705740253,0.1554405169820239
20.212636,2.481088445165855,0.1543842331031835
20.215032,2.5017591830782124,0.1536443767807536
20.217416,2.517215014684237,0.1532334148662927
20.2198,2.535324573342737,0.1527308987968338
20.222196,2.5488708520009618,0.1525284094028907
20.224580000000003,2.566933188831218,0.1521629032219448
20.226964,2.583645051221115,0.1519045335072382
20.22936,2.607713690290622,0.1512539416553042
20.231748000000003,2.628849063053934,0.1507294820303276
20.241312,2.673257887238096,0.1502273168078144
20.243708,2.6815439336196145,0.1501263827985057
20.246096,2.6909009151877714,0.1499787837388384
20.248476,2.7029588456366462,0.1496467764326248
20.250872,2.7142253801526026,0.1493280641255299
20.253264,2.727214476161256,0.1489717131222378
20.255644,2.7420659032894665,0.1485701337035958
20.25804,2.763715028589845,0.1478992236895008
20.260428,2.783222283516946,0.1473397496703073
20.262808,2.8025897688171875,0.1467867299515988
20.265204,2.8193035270649545,0.1462965705434272
20.267596,2.832711931954188,0.1458848790309266
20.269976,2.847610580910642,0.1453534864869041
20.272372,2.856642697254705,0.1450637641180275
20.27476,2.8698187847184617,0.1445946449412637
20.277140000000003,2.8769885699429683,0.1443829303185834
20.279536,2.8870916214736693,0.1440539424786335
20.281924,2.895844198564012,0.1438133924862071
20.284308000000003,2.908181668266607,0.1434568493620321
20.310608,2.975676952416516,0.143227266978721
20.312992,2.980797415066362,0.1432035678776344
20.315388,2.9896425399553213,0.1430673363634824
20.317776,3.000210226336977,0.1428940613910709
20.320156,3.0149218838383267,0.142553144762888
20.322556,3.022835843167508,0.1424476735122174
20.324944,3.031029341750409,0.142304544383363
20.327328,3.042575415520086,0.1420159606462301
20.329724,3.056822438170481,0.1415726922423261
20.332116,3.0704178345148185,0.1411227941433565
20.334496,3.0833616045530983,0.1406779319256911
20.336892,3.096724683471958,0.1401882493040417
20.339276,3.110227532017679,0.139675552301237
20.341656,3.123730380563399,0.1391609464384358
20.34406,3.143938379482671,0.1383577096293969
20.346448,3.1610733424688875,0.1376643993380753
20.348828,3.17951155806722,0.1369785189535963
20.351236,3.197810004038692,0.1362986303580267
20.35362,3.214106349263747,0.1356920611422112
20.356,3.227748967436327,0.1351539826537669
20.358396,3.2391099456087704,0.134726609694355
20.360784,3.2524730245276303,0.134240133558706
20.363164,3.262763067513435,0.133870622374687
20.36556,3.272401484193181,0.1334989922230587
20.367944,3.2811087353131496,0.1331584493375643
20.370324,3.296893223859008,0.1325864020524929
20.439628,3.3456330106179677,0.1321894769429087
20.442008,3.34865882472278,0.1321766072541203
20.444404,3.357271632186262,0.1320316613671382
20.446792,3.3669553748363823,0.1318487950113154
20.449176,3.37277468562053,0.131768970706314
20.451572,3.3817595801363494,0.1316617879792132
20.45396,3.392606805771725,0.1315102186496674
20.45634,3.401032621780104,0.1314608564027659
20.45874,3.4141142655873744,0.1312995942680433
20.461124,3.4291980101410617,0.1310803124147632
20.463508,3.4482859561875827,0.1307432347738402
20.465904,3.46895669409994,0.1303851529322312
20.468292,3.4872532442135435,0.1300503132856804
20.470688000000003,3.497681160968339,0.1299473868091002
20.473084,3.511693970335388,0.1297678222056097
20.475472,3.525846549329297,0.1295711293854911
20.477852,3.5350637612705937,0.12951565825412
20.496968000000003,3.614849293294855,0.1295135556061867
20.499352,3.622995570049512,0.1295008998358687
20.501748,3.633143947550588,0.1294355819114698
20.504136000000003,3.648926540238576,0.1291693931885893
20.506516,3.664988672180285,0.1288857858918093
20.508912,3.67853684669638,0.1286358559661413
20.5113,3.690502229346637,0.1284029701470674
20.513696000000003,3.705540647929951,0.1280889095789316
20.516092,3.725514433565877,0.1276628059953114
20.518476,3.7437656577091047,0.1272518490341251
20.520856,3.763507125919553,0.1267739570412237
20.523264,3.785809773383859,0.1261991324070164
20.525652,3.81146499603494,0.1255124570701996
20.528032000000003,3.837027670887405,0.1247725232083344
20.530428,3.868084791299923,0.1238595617688426
20.532816,3.891692587234213,0.1230935595671414
20.535196,3.910644555369613,0.1224144026284209
20.537592,3.931598624251429,0.1216860705564661
20.53998,3.952040836454047,0.1209396445323263
20.54236,3.972250731231188,0.1201541849788078
20.544756,3.993391791568108,0.1193576679276468
20.547144000000003,4.015044708584225,0.1185887301547417
20.549528,4.033764359294147,0.1178936605269802
20.551924,4.047688412578317,0.1173025530414886
20.554316,4.0576082643696525,0.1168085490148983
20.556696,4.0691109080268255,0.1163079911371967
20.559092,4.078751220564442,0.115842310640472
20.561480000000003,4.083875474930027,0.115447011550946
20.56386,4.080851556683083,0.1152443099752468
20.56626,4.085556502168087,0.1148897736798871
20.568644,4.087188411720035,0.1146091321666678
20.571028,4.09040311313782,0.1143277006015972
20.573428,4.0917554834360494,0.1140770922307872
20.575816,4.092688544853697,0.1138644231759211
20.578196,4.090129261457708,0.1137567174083056
20.580592000000003,4.09357628030097,0.1135243206234603
20.58298,4.101958666196844,0.1131932569731898
20.585364,4.112203383212276,0.1128381526784951
20.587760000000003,4.124450200974122,0.1124471393738336
20.590152,4.134135839482112,0.1121443146666738
20.664216,4.154202172916655,0.1118845636176496
20.666616,4.157926835155768,0.1118318202166026
20.669004,4.161791267021742,0.1117666525259936
20.671384,4.167006173328073,0.1116526759639068
20.67378,4.173711323701626,0.1114796975374729
20.676168,4.179485308515399,0.1113187166315821
20.678548,4.186330228515812,0.111132143239532
20.680952,4.196248184449278,0.1108787882889895
20.68334,4.21645618336855,0.1104087289706579
20.68572,4.240528614153796,0.1098783299474749
20.688124,4.268605246431875,0.1092765436191544
20.690512,4.295890482777035,0.1086734633024695
20.692892,4.325177819868614,0.1080392778646612
20.695296,4.352090969161436,0.1074134848108605
20.69768,4.374208521028509,0.1068766569459608
20.70006,4.389528374723412,0.106454248109078
20.702464,4.405127767672035,0.1060092795071466
20.704852,4.415652023941186,0.1056653861928909
20.707232,4.430599790583751,0.1052231979184997
20.709628,4.447270118719014,0.1047695433503265
20.712016,4.46072764129436,0.1043874875256414
20.714396,4.476047494989263,0.1039852015132706
20.716792,4.4979327294308575,0.1034462381714737
20.719176,4.522890999805507,0.1028598534897853
20.721556,4.5495718316728535,0.1022730723292973
20.72396,4.580164317234416,0.1015744839368022
20.726348,4.612898673169256,0.1008413873662881
20.728728,4.650847935410428,0.100031583581933
20.731124,4.679717859479295,0.099375056308424
20.733508,4.703652416495548,0.0987924421971822
20.735904,4.723722541645829,0.0982645102423538
20.738308,4.748076407542664,0.0976630584597521
20.740696,4.770288403066221,0.0971053013987481
20.743076,4.795154125642254,0.0965325202404631
20.74548,4.818017747471871,0.0959861722884447
20.747864,4.841812534861265,0.0954224877788711
20.750244,4.86453638706402,0.0948776681703943
20.752648,4.888331174453414,0.0943121396019457
20.755036,4.901835918857004,0.0939122590248056
20.757416,4.914269728073956,0.093533561121106
20.759816,4.932709839530157,0.0930734502967282
20.800416,4.862415371127305,0.0929361130116919
20.80282,4.8712151700458906,0.0928331401561206
20.805208,4.880946134524255,0.0927222614255125
20.807588000000003,4.885462192696287,0.0926914220797703
20.809984,4.891980351614735,0.0926352443684733
20.812372,4.897287805719685,0.0926059895510261
20.814752,4.907530626877246,0.092519415288201
20.817156,4.920846483967863,0.0923904934119305
20.81954,4.938446081805034,0.092190745507489
20.82192,4.955905910015345,0.0919999633444711
20.824324,4.985238573077297,0.0916650419151191
20.826712,5.018854976885803,0.0912666281328943
20.829092000000003,5.053682085507807,0.0908470602983756
20.831496,5.085575927823617,0.090459806317118
20.83388,5.11467627346009,0.0900937321844724
20.836264,5.143124992790507,0.0897194058538476
20.83866,5.169152302493926,0.0893988037742687
20.841044,5.194388216264427,0.0890831804440639
20.843428000000003,5.219624130034929,0.0887723433478688
20.845824,5.2455116701114886,0.0884758831990817
20.848212,5.272470145374685,0.0881664674758503
20.850592,5.2975662895183255,0.0878759465789842
20.852988,5.321871037729049,0.087585010138063
20.855372000000003,5.346595094820351,0.087268171797487
20.857752,5.373461022284932,0.0869256294058594
20.860152,5.402748359376509,0.0865377214472678
20.862536,5.426308933482557,0.0862024162664052
20.864916,5.446564154230072,0.0858692179205823
20.867312,5.47203428128392,0.0854783511190116
20.8697,5.500065587591624,0.085036137634397
20.872096,5.52250990054066,0.0846391124948491
20.874492,5.541881177556641,0.0842825416985386
20.87688,5.5584589578932855,0.0839457819935147
20.87926,5.578109774162984,0.0835750820293532
20.881664,5.604837827858573,0.083134669086076
20.884052,5.632357277487081,0.0826991283928885
20.886432,5.662018597488865,0.0822358943274407
20.888828,5.685673615251399,0.0818299441742724
20.891212000000003,5.707466301894376,0.0814380030941312
20.893596,5.72674503111174,0.0810484064412583
20.895992,5.743509802903488,0.080661597166236
20.898380000000003,5.760554113948957,0.0802617167962422
20.90076,5.777598424994426,0.0798625094615842
20.903156000000003,5.7904987649202,0.0795062330116258
20.905544,5.799255133726281,0.079197534020092
20.907924,5.803727761785808,0.0789423754708926
20.910324000000003,5.810202490591751,0.0786680839991619
20.912712,5.8211932775697255,0.07837696819333
20.915092,5.819100524882561,0.0782090465082746
20.917488,5.81472613219526,0.0780755630319478
20.919876,5.8122140706275145,0.0779323669006792
20.92226,5.806908512380433,0.0778038626475706
20.924660000000003,5.804396450812689,0.0776606694393596
20.927048,5.80360695073764,0.0775165069948015
20.929428,5.795088586930644,0.0774260181986993
20.931828000000003,5.785639057563871,0.0773400872913176
20.934216,5.775398132264178,0.0772508231667839
20.936596,5.771303278830597,0.0771026974453065
20.938992,5.769350295770294,0.0769305088407369
20.94138,5.770051039762464,0.0767528360063155
20.943776,5.770332474874055,0.0765977212892573
20.946172,5.769403205172145,0.0764626815491277
20.94856,5.769684640283733,0.076308386745037
20.950944,5.77783470875413,0.0760967229199011
20.953336,5.78398267647811,0.0758997640545287
20.955728,5.791201579388728,0.0756894334675954
20.958108000000003,5.798140943045626,0.0754947864718324
20.960504,5.801215874836551,0.0753263577252778
20.962892,5.815232475919338,0.0750703607012425
20.965272,5.828178141815487,0.074826203359002
20.967672,5.8381905414054405,0.0746039317881988
20.97006,5.848063171368534,0.0743878443751406
20.97244,5.854862765398573,0.0742009757692718
20.974836,5.861941898682329,0.0740014942856781
20.977220000000003,5.8739563990187005,0.0737661483796799
20.979616,5.885179503422154,0.0735275061806694
20.98202,5.898264938945163,0.0732824540772372
20.984404,5.909999900027812,0.0730660799330556
20.986788,5.917590889990767,0.0728886333021446
20.98918,5.9243904840208055,0.072708984348618
20.991568,5.935194279543676,0.0725000930187093
20.993948000000003,5.948000175812965,0.0722776099702738
20.996344,5.961597468015171,0.0720611184615919
20.998732,5.969467997231847,0.0718750512169471
21.001112,5.985626468687912,0.0716182384285792
21.003508,6.007139616077168,0.0713106819266915
21.005892000000003,6.028932302720147,0.0709893260233481
21.008272,6.048862658243567,0.0706730987271221
21.010676,6.0617157763410985,0.0704109919137793
21.013064,6.076570995185047,0.0701350593151892
21.015444,6.093288545148552,0.0698528435773437
21.017848,6.116012397351307,0.069530845177431
21.020232,6.141809285487119,0.0691858240191238
21.022612,6.1606687058239,0.0688858334905542
21.025012,6.1733820542945725,0.0686336809065702
21.027396000000003,6.189820065004357,0.0683704810877442
21.029792,6.204535514221445,0.0681086169130226
21.032196,6.216876775639779,0.0678348780141653
21.03458,6.230428741871613,0.0675427190225547
21.03696,6.239045341050833,0.0672793096617125
21.039368000000003,6.242866342804303,0.067039208362088
21.041752,6.242822912691799,0.066818565356201
21.044132,6.236912949966904,0.0666296305101952
21.04654,6.23593835429462,0.0664118926587618
21.048924,6.223463010823034,0.0662904202391121
21.051304,6.20763509216467,0.066205609578731
21.0537,6.1936695046258645,0.0661147457320432
21.056088000000003,6.1854306800725904,0.0660000860551099
21.058468,6.183337927385426,0.0658410024744869
21.060872,6.179522613205565,0.0656802983396532
21.063256000000003,6.172913802346367,0.0655273272449731
21.06564,6.160438458874782,0.0654041206838059
21.068036,6.145029849097,0.0652953281412242
21.07042,6.136418937491388,0.0651544417724592
21.072804,6.135025032938524,0.0649607681318754
21.0752,6.128695761333048,0.0647937588120142
21.077588,6.123018116033631,0.0646382450348432
21.079968,6.118783492973189,0.0644981833885037
21.082364,6.120275632898277,0.0643379089560689
21.084752,6.127634305435755,0.0641494578988448
21.087132,6.138717640212348,0.0639519762681512
21.089532,6.152594471668275,0.0637475666877128
21.09192,6.172198066109733,0.0635218248811172
21.0943,6.189008163871855,0.0633056020279898
21.096696,6.214385743127085,0.0630144162790252
21.099084,6.23683005607612,0.0627367867134729
21.101464,6.259274369025155,0.0624623630450538
21.103868,6.280927286041272,0.0621871795200839
21.106256,6.299367397497472,0.0619407298320797
21.108636,6.322603106379426,0.0616801141551473
21.111032,6.35170534787377,0.0613965469758822
21.11342,6.383601086047449,0.0611073845123851
21.1158,6.417359155340684,0.0608151622323381
21.1182,6.448323727954585,0.0605317614615572
21.120584,6.479939926874543,0.0602653925511831
21.122968,6.514629161727557,0.0599809127968578
21.125364,6.548247461393932,0.0597056383484762
21.127752,6.580934595500529,0.059431626991464
21.130136,6.607615427367875,0.0591903414180005
21.132532,6.633225324048583,0.0589593327253972
21.134916,6.658043824796373,0.0587255512105148
21.137312,6.6819311599843845,0.0584943105640364
21.139716,6.707029199985894,0.058251836399906
21.142104,6.732639096666601,0.0580281594263224
21.144484,6.759180158907086,0.0578071918992081
21.146880000000003,6.786792156334212,0.0575777399011941
21.149264,6.808537621148947,0.0573690641816415
21.151644,6.828001445963544,0.0571833201246434
21.154052,6.847605040405,0.0569915184267089
21.156436,6.858269066301012,0.0568367783873967
21.15882,6.861995624397994,0.0567103605644597
21.161216000000003,6.866932887308475,0.0565710584375105
21.1636,6.872009919845817,0.0564261811695319
21.165984,6.878949283502714,0.0562797132281085
21.16838,6.878020013800805,0.0561609771086419
21.170768,6.88002401040509,0.0560337570604918
21.173148,6.881236611076457,0.0559013676468124
21.175544,6.885522247680881,0.0557538519961093
21.177932,6.890087423539025,0.0555938295127099
21.180312,6.892790268277612,0.0554360168930549
21.182716,6.895493113016199,0.0552788625770792
21.185104000000003,6.897264792195009,0.0551225806690504
21.187484,6.895172039507844,0.0549767325286499
21.189888,6.891356725327982,0.0548266788544207
21.192272000000003,6.885120001521124,0.0547031932611665
21.194656,6.88274770958024,0.0545705620734449
21.197052,6.887173115811523,0.0544199416621476
21.199440000000003,6.892809226856307,0.0542568867092145
21.20182,6.901658143461004,0.0540747501510266
21.204216,6.918655232678231,0.0538565981784215
21.206604,6.936723257082094,0.0536303208391635
21.208984,6.95372034629932,0.053412682461131
21.211388,6.968994874023849,0.0531913939454262
21.213776000000003,6.975329833202932,0.052998623483417
21.21616,6.9858087635017085,0.0527841269640371
21.218556,6.988279290814817,0.0525992191196651
21.220944000000003,6.991820753314566,0.0524075931583863
21.223324,6.993360115067898,0.0522238937720424
