Time,Force,Position
21.986196,1.4962469395255729,0.1810327811687478
21.98858,1.5381833405387555,0.1808973149235389
21.990976000000003,1.5816572074474011,0.1802346141043039
21.993364,1.6232234172661155,0.1794471023857001
21.995748,1.6612991781290631,0.1784910546611958
21.998148,1.692020058170271,0.177928496807067
22.000532,1.7203214244423504,0.1771700083032337
22.002916,1.7442011761988847,0.1764212679849305
22.005312000000004,1.762448608626375,0.1758528444701121
22.0077,1.772502542470964,0.1757524719868837
22.010096000000004,1.7835348637035742,0.1754276737318141
22.014880000000005,1.7993136646758243,0.1753773558792321
22.01726,1.81136969926683,0.1751620029258643
22.019656000000005,1.8237978209101733,0.1750009207200518
22.022044,1.8366452514340967,0.1747572961017674
22.024424000000003,1.8473980334129876,0.1745427709914961
22.02682,1.8602001379665372,0.1740281205208613
22.029208000000004,1.8711399114005307,0.1736498697975904
22.031592000000003,1.8802173537149676,0.1733991647169692
22.033992000000005,1.894929011216317,0.1726325557765546
22.036376000000004,1.914064179091081,0.1714987802322068
22.038760000000003,1.928171432114616,0.1706099430364357
22.041156,1.9432098506979292,0.1697064776135978
22.043544000000004,1.9629040970801344,0.1685572142728139
22.045924,1.9841811353281755,0.1673560007141405
22.048324,2.005458173576217,0.1661844281032167
22.050712000000004,2.025524507010759,0.165105132051554
22.053092,2.04624246675136,0.1640317833663419
22.055492,2.071895793544572,0.1626436707578738
22.057880000000004,2.091962126979114,0.1615776453282905
22.06026,2.112587538921097,0.1604203223820043
22.062656000000004,2.1331204030644635,0.1591303529296674
22.065044,2.145552316423545,0.158275887609102
22.067424000000003,2.16333890571582,0.1570720417983666
22.069824000000004,2.180706186127513,0.1559690830103815
22.072208000000003,2.196862761725708,0.1549430956601015
22.177344000000005,2.30983211767281,0.1546657162512593
22.179728000000004,2.323006309278697,0.1544425999862454
22.182128,2.3459114653629487,0.1537911987326824
22.184524000000003,2.37440361480587,0.1529270396157212
22.186908000000003,2.397029231636401,0.1523268787639056
22.189292,2.425289063653845,0.151418145479539
22.191688,2.460905672350899,0.1501211359719926
22.194076000000003,2.488933186942865,0.1491329485369884
22.19646,2.5243174782144413,0.1477823615794122
22.198856,2.559701769486017,0.1464515156304387
22.20124,2.592152794451398,0.1452249114160657
22.203624000000005,2.61780612124461,0.1443119700269849
22.206028000000003,2.643319678410962,0.1434176894283802
22.208412000000003,2.6686934659504544,0.1425369907700938
22.210792000000005,2.6982112246096404,0.141476490993274
22.213188,2.7274494440151056,0.1404673268569156
22.215576,2.759341390473045,0.1394163548490341
22.217956,2.7892312361845697,0.1384505047438091
22.220352,2.8172587507765363,0.137546746311802
22.22274,2.844355099808724,0.1366780913699888
22.225136,2.8707998225348548,0.1358331126763043
22.227532000000004,2.892728487088954,0.1351595231191136
22.22992,2.9038552519780505,0.134905837557902
22.2323,2.9115368938817547,0.1347398494611636
22.234696,2.9250850683978484,0.1343610932922208
22.237084000000003,2.932347401420972,0.1342547793197747
22.239468,2.937607633697678,0.1342276412935697
22.241864,2.9508762689600525,0.1339136027186044
22.244248,2.959861163475872,0.1337873372743909
22.246632000000005,2.9694976842977496,0.1336725010289214
22.249028000000003,2.9854200466125977,0.1333218847002857
22.251416,3.003344509673863,0.1328940829234196
22.253796,3.021408742361989,0.1324476203560774
22.2562,3.0426857806100296,0.1318799196915901
22.258588000000003,3.059027451805459,0.1314823852566247
22.327884000000005,3.2539771195519496,0.1312242772691172
22.330272,3.260867365522735,0.1311099803705298
22.335048,3.266407137053162,0.1310636479323017
22.337436000000004,3.271202734478914,0.1309346354942645
22.339816,3.2826562604499743,0.1306319515865245
22.342216,3.2959721175405914,0.1302785403044854
22.344604000000004,3.3122212409374034,0.1298460839576202
22.346984,3.326608033214659,0.1294649090654534
22.349380000000004,3.340482968812717,0.1290623057725174
22.351768,3.355289069970553,0.128635317416551
22.354152,3.3680930703819723,0.1282625134703179
22.356548000000004,3.3821077756068902,0.1278377340441256
22.358936,3.392677357846415,0.1274699320946301
22.36132,3.405249040832357,0.1270442632240497
22.363716000000004,3.417029327885381,0.1266282043075092
22.366108000000004,3.4237344782589325,0.1263705023449126
22.368488,3.431510563819123,0.1260820161450526
22.370884000000004,3.443942477178204,0.1256922713809534
22.373272,3.458935569791144,0.1251823850534266
22.375652,3.467782590537973,0.1248666952449213
22.378052000000004,3.4754189064713024,0.1246083387230788
22.38044,3.4868271064719885,0.1241915168612098
22.382824,3.5020997383386483,0.1236752046879035
22.385216,3.5178842268845063,0.1231903351776462
22.387604000000003,3.5291526572583325,0.1227954320474724
22.389988,3.5436338931920743,0.1223059846590706
22.392384,3.549734639087811,0.1219844652530742
22.394772000000003,3.549549543490577,0.1218482926453171
22.397156000000003,3.5498763045725403,0.1217365244543981
22.399552,3.554347036774198,0.1215056250296544
22.401940000000003,3.562449883416352,0.1211296797330437
22.404336,3.56733992449859,0.1208538670432817
22.406732000000005,3.580330916365112,0.1204380075738139
22.40912,3.591739116365799,0.1200363426553784
22.411504,3.603007546739625,0.1196495173533187
22.413900000000005,3.6186522656586217,0.1191932384719838
22.416288,3.6307120919653664,0.1188040738685003
22.418668000000004,3.635974220099942,0.1185747648818132
22.421064,3.640257960846496,0.1184444596073417
22.423452000000005,3.647102880846908,0.1182070120354564
22.425832,3.649431742675288,0.1180473352798593
22.428232,3.647988720436312,0.1180416157847479
22.430620000000005,3.646545698197336,0.1180357821564991
22.433,3.644451049652303,0.1180198775458802
22.4354,3.6443585018536857,0.1179548027478998
22.437788000000005,3.6431950188684303,0.1179211536225515
22.440168,3.653345292227375,0.1176698938187512
22.442568,3.678720975624736,0.1170486047209304
22.444956000000005,3.7025138671562607,0.1164342780335944
22.447340000000004,3.718949982008176,0.1160206741830491
22.449736,3.733895852792872,0.115681506655595
22.452124000000005,3.7534050035778415,0.1151981020778084
22.454504,3.766675534698085,0.1148118713366451
22.456900000000005,3.778455821751109,0.1144925824302387
22.459288,3.793309144737188,0.1141050812030556
22.461668000000003,3.806859215111152,0.1137000731834956
22.464064,3.819989976604535,0.1133315407981669
22.466452000000004,3.838987270710307,0.1128429514750559
22.468848,3.85961457851016,0.1122749106036567
22.471244,3.878891411869653,0.1117660094605086
22.473632,3.901473598587681,0.1112284037904954
22.476012000000004,3.923916015678846,0.1106965259584209
22.478412,3.945846576090814,0.110146410018395
22.4808,3.9649836398234486,0.1096433115385126
22.483180000000004,3.983701394675501,0.1091839109046602
22.48558,3.9988342569153,0.1087756862374538
22.487968,4.005586629117095,0.1085091468020377
22.490348000000004,4.001257562400167,0.1084831878648668
22.492744,3.998790826802796,0.1084283364841078
22.495132000000005,3.999956205645921,0.1082544219304249
22.497516000000005,4.002983915608602,0.1080526265315195
22.499912,4.004521381504065,0.1079167113318853
22.502300000000005,4.003777207399391,0.1078454084606696
22.504684000000005,4.005733982175433,0.1076708831469704
22.50708,4.002615620272004,0.1076047924153171
22.509468,4.000288654301492,0.1075369440621334
22.511848,4.002105659450676,0.1073772127440569
22.514244000000005,4.0003377719876045,0.1072607053372024
22.516632,3.997219410084176,0.1071943140311855
22.519016,3.994240817807607,0.1071157063711774
22.521412000000005,3.9927524695982566,0.1069759129826109
22.5238,3.993405991762183,0.1067853679438571
22.526180000000004,3.9962939320980047,0.1066049653913227
22.528576,3.998110937247188,0.1064476077119802
22.530964000000004,3.9969946760901753,0.1063421423431423
22.53336,3.997461206798999,0.1062335862200923
22.535760000000003,4.002443795679854,0.1060691126068409
22.538148,4.011430586053543,0.105825741833131
22.540532,4.020417376427232,0.1055848115299414
22.542928000000003,4.031638584972815,0.1053557885351498
22.545316,4.041137232025702,0.1051430138580167
22.547696,4.047702612772393,0.1049804253654618
22.550092,4.060925922064393,0.1047145607288883
22.552480000000003,4.072519217662314,0.104523812032991
22.554864,4.086254383633511,0.1042813122522759
22.55726,4.100780945537626,0.1040412917345867
22.559652,4.111303305948908,0.1038785953227332
22.562032,4.126201954905361,0.103679882033342
22.564428,4.141380143115535,0.1034577261654709
22.566816000000003,4.157209957631767,0.1032475030034774
22.5692,4.170897901774721,0.1030878416750966
22.571600000000004,4.184585845917675,0.1029296795185219
22.573984000000003,4.193897501515458,0.102809443594044
22.576368,4.209727316031689,0.1026057561545489
22.578764,4.2329139072275295,0.1022544552928344
22.581152000000003,4.257823059916067,0.1018930084466211
22.583532000000005,4.284594543724161,0.1015172315443331
22.585932,4.310015553091896,0.1011899647169209
22.588320000000003,4.33515702320591,0.1008875596631831
22.590704,4.356434061453951,0.1006415432752694
22.5931,4.37836272600805,0.1004074128412558
22.595488000000003,4.403364426495206,0.1001164332409569
22.597872,4.426643565489663,0.0998445783206274
22.600268,4.451133409297621,0.0995412827586538
22.602656000000003,4.477345814598275,0.0992303323151296
22.605036,4.500624953592732,0.0989629906214229
22.607436,4.526557819639664,0.0986746419578188
22.609824000000003,4.546763922701067,0.0984626980918213
22.612204,4.570694688001584,0.0982137136857367
22.614608000000004,4.595975927742459,0.0979266854780873
22.616996,4.622188333043112,0.0976305395943676
22.619376000000003,4.647749112037707,0.0973262318702658
22.621772,4.6768947836445545,0.0969923723626691
22.624160000000003,4.704317893758707,0.0966765560898227
22.62654,4.7246637664469695,0.0964755040924244
22.62894,4.744218243202314,0.0962758129595984
22.631328000000003,4.75711479141235,0.0961531065527408
22.633708,4.767916691077353,0.0960082336245978
22.636108,4.778066964436298,0.0958531795716852
22.638496000000004,4.792920287422377,0.0955924151562569
22.640876,4.807121984102396,0.095321769900622
22.643272000000003,4.8219753070884765,0.0950641880747697
22.64566,4.832964198208583,0.0948536310068497
22.64804,4.845815420448244,0.0946281176108209
22.650436,4.860948282688044,0.0943610319048601
22.652824000000003,4.880364885674399,0.0940231321322437
22.655204000000005,4.899129862354695,0.0936775575026575
22.6576,4.922038810154684,0.0932695206632306
22.659988,4.941223095715561,0.0929007325408567
22.662372000000005,4.957054806089661,0.0925957762856004
22.664768,4.970093019784428,0.092315018003933
22.667156,4.983782859785251,0.092046265132124
22.669552000000003,4.993748037546962,0.0918105597607485
22.671952000000005,5.004784150495311,0.0915612207910435
22.674336000000004,5.0156804938168005,0.0913184386261882
22.676720000000003,5.024994045272454,0.0910737041809357
22.679116,5.038591337474659,0.0907578353463422
22.681504000000004,5.05470258710248,0.0904369786993058
22.683888000000003,5.069742901543663,0.0901332514293238
22.686284,5.078078065611294,0.0899542610517744
22.688672000000004,5.086413229678923,0.0897756862937216
22.691052,5.0923742059478,0.089593588580143
22.693448000000004,5.1003372829630935,0.0893852986162482
22.710172,5.044427710979629,0.0892542593198451
22.712552,5.0362814342249695,0.0891988815282465
22.714952000000004,5.029345862283811,0.0891172628478811
22.71734,5.0254833262757055,0.0889945066164107
22.719724,5.014823092095433,0.0889422645285069
22.722120000000004,5.009377764221493,0.0888157771241326
22.724508,5.003792666720693,0.088698009929897
22.726892,4.998067799593032,0.0885893275578947
22.729288000000004,4.9924827020922296,0.0884715573322541
22.731680000000004,4.989179244591567,0.0883121384436394
22.734064000000004,4.988297196717901,0.0881006005707548
22.73646,4.990348415150431,0.0878599079094531
22.738848000000004,4.993051259889017,0.0876300836949774
22.741232000000004,4.997756205374022,0.0873784684472347
22.743632000000005,5.000738589366328,0.0871309049036051
22.74602,5.006002613358775,0.0868409816219176
22.748404,5.015131069217193,0.086515879305558
22.750800000000005,5.028775583247643,0.0861628411963833
22.753188,5.047215694703844,0.0857648731691577
22.755572,5.070870712466378,0.0852971419759917
22.757972,5.091452694295856,0.0848717784647778
22.76036,5.108821870565419,0.0844992098658569
22.762744000000005,5.123257780528787,0.0841576666329832
22.765152,5.1386248560519325,0.0838133926687601
22.767544,5.157856363441053,0.0834308926454457
22.769924000000003,5.174946000456895,0.083084452531096
22.77232,5.193758198965435,0.0827344691603776
22.774708000000004,5.213222023780031,0.0823992024193525
22.777092000000003,5.232406309340908,0.0820839644959979
22.779504000000003,5.251171286021203,0.0817976584140998
22.781888,5.275802795313889,0.0814626344825869
22.784268000000004,5.299642908673658,0.0811315694378369
22.786664,5.327766762779981,0.0807491722358329
22.789052000000005,5.352817580953246,0.0804025207365721
22.791432,5.37959096061921,0.0800518175331982
22.793828000000005,5.406224570658312,0.0797110938823133
22.796216,5.42391861215197,0.079452342301742
22.798596000000003,5.443894293645765,0.0791609473431571
22.800996000000005,5.462147413646863,0.0788745596303612
22.803380000000004,5.4774672673417655,0.0786160153614938
22.805764000000003,5.492647351409809,0.0783649012022184
22.80816,5.506616730664353,0.078135158313093
22.810548000000004,5.519375405105398,0.0779259067601696
22.812928,5.531994309919583,0.0777276247416895
22.815328,5.543821818800849,0.0775265096510182
22.817716000000004,5.554718162122338,0.0773314576593116
22.820096,5.567896145443965,0.0771041070051463
22.822492000000004,5.577349466526478,0.0768968801571326
22.82488,5.585219995743155,0.0766836536203999
22.827260000000003,5.595092625706248,0.076454359045438
22.829656,5.598167557497173,0.0762770199582193
22.832044000000003,5.594956647795127,0.0761684200382369
22.834424,5.585459896600108,0.0761286943704561
22.836824,5.581178051711423,0.0760333414059019
22.839212000000003,5.581179947569292,0.075888639808167
22.841592,5.579179742680745,0.0757604867005552
22.843992,5.585187940777865,0.0755628408333164
22.846376,5.589194038128568,0.07538420599417
22.84876,5.593200135479271,0.0752059725682481
22.851156000000003,5.594924592829837,0.0750598021868716
22.853544,5.599722086113458,0.074885071502988
22.855924,5.606009823464298,0.0746742248112754
22.858324000000003,5.619514567867887,0.0743956513307021
22.860708,5.632227916338558,0.0741159120529912
22.863092,5.649457322981261,0.0738256163665996
22.865488,5.667757664810601,0.0735249981698145
22.867876000000003,5.682984970706888,0.0732548243582155
22.870256000000005,5.702496017349728,0.0729392882835744
22.872652,5.724660791045042,0.0726213429282073
22.87504,5.741378341008549,0.0723200016135329
22.877424000000005,5.759958222091611,0.0720103560951502
22.87982,5.782682074294365,0.0716590513546285
22.882208,5.808758501683895,0.0712651395735873
22.884592000000005,5.828688857207317,0.0709283848399985
22.886988,5.84154197530485,0.0706505244849161
22.889376,5.858539064522076,0.0703356492030782
22.891756,5.874604988179524,0.0700274250497653
22.894156,5.885735544784359,0.0697513312981676
22.896544,5.89965959806853,0.0694669982690405
22.898924,5.916796456912615,0.0691490520647977
22.90132,5.934073085383561,0.0688275184121311
22.903708,5.950930404973925,0.0685293330900028
22.906092,5.960850256765261,0.0682796138017583
22.908488,5.966765907063763,0.0680573659080858
22.91088,5.969096664750013,0.0678424322538126
22.91326,5.9702167176227645,0.0676458827544603
22.915660000000003,5.9704056049357375,0.0674522824245739
22.918048,5.969244017808351,0.0672848097452356
22.920432000000005,5.968361969934685,0.0671039562076251
22.922828000000003,5.971995980233051,0.0669154624609395
22.925216,5.977771860904694,0.0667077487773404
22.9276,5.986760547136251,0.0664717701060027
22.929996000000003,5.993607362994532,0.0662562388297246
22.932384,6.001525114039452,0.066029801049711
22.934764,6.013586836204065,0.0657704336648591
22.93716,6.02443785355518,0.0655302148403419
22.939548,6.034217935719656,0.0653007242678937
22.941932,6.048793615309885,0.06504978793353
22.944328,6.05922532378042,0.064831879478304
22.946716,6.068586097064315,0.0646245541835601
22.949096000000004,6.074734064788295,0.0644469159366373
22.951496,6.083023902885552,0.0642509880783485
22.953884,6.095178172848782,0.0640385741022498
22.956264000000004,6.114409680237903,0.0637822182294014
22.95866,6.1333616483733016,0.0635404719580322
22.961048000000005,6.150591055016003,0.0632958811263143
22.963432000000005,6.169682792778263,0.0630470309927231
22.965828,6.1869121994209655,0.0628034548973136
22.968216,6.198926699757335,0.062599779275497
22.970600000000005,6.207356307481452,0.0623988305382096
22.972996,6.213783814459152,0.0622106935614737
22.975384,6.2147168758768,0.062075834881454
22.977764,6.217512268414005,0.0619367203914335
22.980164,6.222309761697626,0.0617865730046974
22.982552,6.228829816473944,0.061640595731539
22.984936000000005,6.234558475317343,0.0614903255410762
22.987332,6.245362270840214,0.0613116300746363
22.989724,6.259099332669281,0.0611224767322045
22.992104000000005,6.275257804125346,0.060903009898562
22.9945,6.291556045208271,0.0606774735994256
22.996888,6.307062890358276,0.0604461102696735
22.999272000000005,6.322709505135143,0.060210653286202
23.001672,6.337285184725372,0.0599853898064681
23.004060000000003,6.3438524613299325,0.0598009710502185
23.006444,6.348697176441797,0.0596127770523712
23.00884,6.359548193792912,0.0593960156000282
23.011228000000003,6.369747584837968,0.0591685928852161
23.013612,6.381949076629442,0.0589319352987704
23.016008,6.399505244354108,0.0586547685873511
23.018396000000003,6.420786074317888,0.0583725738957071
23.02078,6.441927134654806,0.0580978071628119
23.023180000000004,6.4657691438724445,0.0577801486388534
23.025564000000003,6.487888591597385,0.0574597099822865
23.027948,6.510799435255243,0.0571468551987946
23.030344,6.527703976673852,0.0568622276370993
23.032728,6.547402014771795,0.0565758866099878
23.035112000000005,6.559231419510933,0.0563212753246325
23.037508000000003,6.5654738308914,0.0560753806137626
23.039896,6.567851810405893,0.0558404337630257
23.042276,6.57409422178636,0.0555963925734867
23.044672,6.585411769846298,0.0553288509214304
23.04706,6.591654181226764,0.055085709562799
23.049440000000004,6.595242865554755,0.0548391952777096
23.051836,6.605908787308636,0.0545603621103028
23.054224000000005,6.623651946488407,0.0542519427220822
23.056624,6.635528573055785,0.0539636192673144
23.059020000000004,6.648987991489,0.0536877228291481
23.061408,6.661516244362438,0.0534137454474071
23.063788,6.670971461302819,0.0531558249545848
23.066184,6.676702016004088,0.0529012060772202
23.068572000000003,6.683363736265134,0.0526464961001997
23.070956,6.688674982085822,0.0524111988727384
23.073352,6.695848559026067,0.052175122783152
23.075740000000003,6.697435142607641,0.0519420249973238
23.078124000000003,6.701303366189353,0.0516878702735333
23.08052,6.695440625292703,0.0514567303667137
23.082908000000003,6.68943811476919,0.0512299562699942
23.085288,6.683435604245678,0.0510018709486812
23.087688,6.677944950401363,0.050790777151032
23.090076000000003,6.666867303198378,0.0505830063542088
23.092460000000003,6.649503814502425,0.0504093222242102
