Time,Force,Position
21.141768,1.885943895426067,0.1790513414923559
21.144148,1.9191863163243663,0.1767779943701845
21.146552,1.9504266364762484,0.1747101224580406
21.148936,1.981155099948933,0.1726273644060307
21.151316,2.008019131555644,0.1709031748166305
21.15372,2.035954098348994,0.1690858177119801
21.156108,2.0696158281278736,0.1668897543115237
21.158484,2.102765701227556,0.1647335107177852
21.160888,2.1387090710065726,0.1624558844670478
21.163276,2.1710675481733364,0.1604203913575833
21.2684,2.3626570573015746,0.1589647946022145
21.270784,2.3718270474146284,0.1589192089029341
21.273168,2.386723800513212,0.1585986135136025
21.275564,2.405065676597189,0.1581510957810602
21.277948,2.4252698838007225,0.1576307446462798
21.280328,2.440538723951644,0.1573651441767495
21.282728,2.4545968592890666,0.1571768903128909
21.285112,2.474102218358299,0.156770456719184
21.287492,2.4909538503750563,0.1564742075285778
21.289892,2.5068743168320355,0.1562222387488178
21.292276,2.5260075888489304,0.1557832486128625
21.294656,2.5490525145600422,0.1550647082563147
21.297056,2.574518849898151,0.1542206840051957
21.299444,2.605479630796313,0.153082515283172
21.301824,2.6356490157615564,0.1519430298689823
21.304236,2.664095839234104,0.1508709266751403
21.306624,2.686955669347981,0.1500343902987505
21.309004,2.707673629088582,0.1493230953658107
21.311408,2.722525056216792,0.1488740050229794
21.313792,2.7440344118903104,0.1481758786285729
21.316172,2.769687738683523,0.1472710513251096
21.318576,2.787612201744788,0.1466939696502819
21.320964,2.8036743336864967,0.146189595060474
21.323344,2.8162913426428124,0.1457756488359939
21.325748,2.8249041501062946,0.145535794313044
21.328132,2.836450223875972,0.1451700311626659
21.330512,2.8554928439521188,0.1444469014702727
21.332908,2.871090341042873,0.1438336622020241
21.335292,2.8868276077604875,0.1432024149357278
21.337672,2.903123952985543,0.1425019545213613
21.340076,2.9187686719045405,0.1418098740177106
21.342464,2.930781276383041,0.1413354007097042
21.344844,2.936787578622292,0.1411017021901544
21.347248,2.9375789745552097,0.1410908733023507
21.349632,2.9403724712345443,0.1410036111087028
21.352012,2.9460992342200747,0.1408147293625332
21.354416,2.9534087890714407,0.1406009637673277
21.3568,2.9657934806022794,0.1402005190483089
21.359184,2.980180272879535,0.1397190763719
21.361584,2.987769366984621,0.1394779085530388
21.363968,2.992704734037234,0.1393042043520918
21.366348,3.0045775688888754,0.1388865026624306
21.368752,3.0187320437406533,0.1383675178504443
21.37114,3.038241194525624,0.1376326653028161
21.37352,3.0626857123632067,0.1367283429616659
21.375924,3.0869904605739293,0.1358492908401283
21.378308,3.1014244746794284,0.1353168379632612
21.380692,3.1177208199044832,0.1347407036281209
21.383092,3.133597856248957,0.1342141513479479
21.38548,3.15026628852635,0.133690878972156
21.38786,3.165863785617104,0.1332150285488393
21.390264,3.180018260468882,0.132732904503367
21.392652,3.196174836067077,0.1321770054279712
21.395032,3.2134023468519106,0.1315744102488605
21.397436,3.228767526517188,0.1310231641471241
21.399824,3.2414789791299894,0.1305419073466438
21.402204,3.2587537117430667,0.1298760645310434
21.404604,3.2672286454375574,0.1294803446944561
21.406992,3.2767745143186877,0.1290469464868723
21.409372,3.289113879879152,0.1285379619943589
21.466712,3.4305319551566704,0.1284805425618134
21.469108,3.4447298601209533,0.128447817348893
21.471496,3.4614417225108505,0.1283791927616115
21.473876,3.4793642897142467,0.1282610809987121
21.47628,3.502641532850836,0.1279606773643892
21.478668,3.527920876733842,0.1276131547874863
21.495376,3.587645762897168,0.1273906479904627
21.49778,3.5921618210691992,0.1272998032821122
21.504952,3.5878327543522714,0.1272909954775644
21.507336,3.587647658755037,0.1271577190142961
21.509716,3.591466764650637,0.1269179967821295
21.51212,3.59356330905354,0.1267021736312168
21.514508,3.5999435942029967,0.1263516445408786
21.516888,3.6047410874866177,0.1260150939421814
21.519292,3.611959990397237,0.1255895368875692
21.52168,3.61666493588224,0.1251951095153406
21.52406,3.614432413568216,0.124973930893438
21.526456,3.611408495321272,0.1247595548548474
21.528844,3.614158561888103,0.1243433844957063
21.531224,3.6156979236414335,0.1239699574044182
21.533628,3.627387558753711,0.123332640399387
21.536016,3.6458748920381554,0.1225392716578808
21.538396,3.663431059762822,0.1217577757870053
21.540792,3.682197932300987,0.1209205604639412
21.54318,3.700545495958571,0.1201343476451518
21.54556,3.716611419616018,0.1194399420401139
21.547956,3.733468739206384,0.1187394470388
21.550344,3.7501862891698887,0.1180484724429521
21.552724,3.766484530252813,0.1173948839027515
21.55512,3.78036136170874,0.1168407137076875
21.557508,3.784087919805722,0.1165467474292894
21.559884,3.7936810105150953,0.1161205520120328
21.562288,3.7972677989852186,0.1158433213834473
21.564676,3.7997836522687023,0.1155972809723919
21.567056,3.796013664059216,0.1155254611124239
21.56946,3.795688798835121,0.1154110758616903
21.571844,3.800299300663638,0.1151803311105107
21.59572,3.7847981430872393,0.115135283994094
21.598124,3.787079783087377,0.1150658379818076
21.600508,3.79257422864743,0.1149122610851031
21.602888,3.797928904580623,0.1147712444513597
21.605292,3.814085480178818,0.1144061524962061
21.60768,3.825306688724401,0.1141490382721113
21.61006,3.8419751210017936,0.1138120208720989
21.61246,3.863159611451217,0.1134168192711909
21.614848,3.886625741900778,0.1129441400082877
21.617228,3.905296274924588,0.1125628024092467
21.61962,3.924618434254456,0.1121964559608707
21.622008,3.95138991806255,0.1117012961063328
21.624404,3.973505574071752,0.1112856250687322
21.6268,3.9914772589612606,0.110974629048323
21.629188,4.013173606089882,0.1106014682236117
21.631568,4.0300743557927525,0.1103175900223742
21.633964,4.041108572883233,0.110148696256117
21.636352,4.051071854787073,0.1100100324627359
21.638732,4.066110273370388,0.1097610079030041
21.641128,4.08687545493923,0.1094188954522966
21.643516,4.107640636508074,0.1090843094125387
21.645896,4.12612417807678,0.1088176986672319
21.6483,4.1433970148319865,0.1085936930572311
21.650688,4.162811721960472,0.1083207814988229
21.653068,4.175428730916787,0.1081690784584341
21.655472,4.189116675059742,0.1079917913537858
21.657856,4.200150892150221,0.1078446054801529
21.660236,4.2046669503222525,0.1077904194053522
21.66264,4.212907670733397,0.1076850025484239
21.665028,4.223430031144679,0.1075176061943109
21.667408,4.232229830063265,0.1073656657472744
21.669812,4.242519873049069,0.1071602161229346
21.6722,4.257745283087487,0.1068710274401047
21.67458,4.273762089058821,0.1065791032586963
21.676976,4.288475642418041,0.1062698543053011
21.679364,4.304399900590759,0.1059218537220709
21.681744,4.328612101002864,0.1054093462520395
21.684148,4.352032905482052,0.1049005208798925
21.686536,4.369167868468268,0.104522167381021
21.688916,4.378294428468817,0.1042894665585432
21.691312,4.38448772216317,0.1041054569915446
21.693696,4.392962655857661,0.1038653036563774
21.69608,4.398644092872818,0.1036605650749607
21.698484,4.403534133955056,0.1034589495377115
21.700872,4.412568146156988,0.103177117597109
21.703252,4.421462388732059,0.1029066763883814
21.705648,4.429565235374213,0.1026364355255816
21.708036,4.4426034490689785,0.1022847487762429
21.710416,4.454850266830826,0.101940310094352
21.712812,4.468959415712232,0.1015769885737099
21.7152,4.484419039033995,0.1011724638276097
21.71758,4.493732590489647,0.1008805429050528
21.719984,4.499973106012244,0.1006454699427648
21.722368,4.509566196721616,0.1003385300532568
21.724748,4.518879748177269,0.1000539665737854
21.727148,4.529915861125618,0.0997592383148456
21.729536,4.535876837394495,0.0995524402469997
21.731916,4.541698044036512,0.0993562223416176
21.73432,4.555155566611858,0.0990076623341879
21.736708,4.57182589474712,0.098593634005901
21.739088,4.587704826949463,0.0981762981459974
21.741492,4.598648392099195,0.0978314093234379
21.74388,4.612525223555123,0.0974443777056992
21.74626,4.627333220570828,0.0970522439780597
21.748664,4.640139116840116,0.0966940049316471
21.751052,4.653084782736265,0.0963258016094576
21.753432,4.670965815685026,0.0958929757042424
21.755836,4.684563107887232,0.0955402031523186
21.758224,4.69694969527594,0.095221108782067
21.760604,4.707334181918231,0.0949337950329234
21.763,4.715576798187246,0.0946865019364451
21.765388,4.724098953709979,0.0944162174205695
21.767768,4.733692044419352,0.0941273634134272
21.770164,4.73914116400903,0.0939081483278155
21.772552,4.743798887665792,0.0936880582595728
21.774932,4.748596380949413,0.0934591476569964
21.777328,4.755256205352592,0.0932136628664389
21.779712,4.763126734569267,0.0929403921305528
21.782092,4.765642587852751,0.092763134106327
21.784488,4.766016570762957,0.0926223998712131
21.786876,4.769975446285417,0.0924566326789732
21.789256,4.77779875367385,0.0922450894467368
21.791652,4.785761830689143,0.092025463435472
21.79404,4.788510001398104,0.0918882830669023
21.796436,4.792189337666844,0.0917430014710778
21.798832,4.798662170614919,0.0915735761126731
21.80122,4.798988931696882,0.0914944494046515
21.8036,4.803599433525401,0.0913429951205367
21.805996,4.807418539421,0.0911906631060914
21.808384,4.810958106062878,0.0910577210474989
21.810764,4.817151399757232,0.0909100981080866
21.813168,4.828000521250478,0.0907222304505507
21.815556,4.836987311624167,0.0905512095815392
21.817936,4.847976202744273,0.0903545222346046
21.82034,4.8633413824095495,0.0901391052636515
21.822724,4.877775396515048,0.0899330104468631
21.825104,4.889136374687491,0.0897702640302568
21.827508,4.90343061916613,0.0895788849944387
21.829892,4.919726964391185,0.089363159372055
21.832272,4.938304949616378,0.0891028576975756
21.834676,4.955160373348874,0.0888503991373038
21.837064,4.973738358574066,0.0885955239139266
21.839444,4.992967970105317,0.0883547723418488
21.841836,5.015410387196483,0.0880611027217539
21.844224,5.037061408354731,0.0877679441779321
21.846604,5.054196371340948,0.0875044005150208
21.849,5.072542039140663,0.0872127133401213
21.851388,5.089816771753739,0.0869411304640207
21.853768,5.108022669926594,0.0866638900392023
21.856172,5.12664787698003,0.0863595650469835
21.85856,5.1466235584738245,0.0860263879235171
21.86094,5.163805743288284,0.0857173294057179
21.863344,5.1828502592223,0.0853953701031869
21.865728,5.202034544783176,0.0850673909123896
21.868108,5.217773707358661,0.0847522685450946
21.870512,5.236446136240339,0.0844122510126593
21.8729,5.255537874002598,0.0840445181289975
21.87528,5.270765179898884,0.0837164319263406
21.877684,5.285061320235391,0.0833960453888316
21.880072,5.3033616620647335,0.0830389376416802
21.882452,5.322732939080714,0.0826692314378755
21.884856,5.338798862738161,0.082300599428932
21.887244,5.3523508289699935,0.081934092416373
21.889624,5.367904895948243,0.0815500637156223
21.892028,5.385181524419189,0.081165720819413
21.894412,5.406974211062167,0.0807634970208599
21.896792,5.431560394384478,0.0803462533610898
21.899196,5.455355181773872,0.0799286273729733
21.901584,5.476216702857071,0.0795354721297778
21.903964,5.496798684686549,0.0791598213871315
21.90636,5.512585069090275,0.0788223005823415
21.908744,5.530373554240419,0.0784683515810338
21.911128,5.548301809017423,0.0781087982501409
21.913524,5.563948423794289,0.0777846091393777
21.915912,5.578524103384519,0.0774740396007966
21.918292,5.589235351108774,0.0771941528643806
21.920688,5.604602426631921,0.0768919992636717
21.923072,5.618619027714706,0.0766187959455231
21.925456,5.631844232864576,0.0763426701163487
21.927852,5.6417168628276695,0.0761169119697749
21.930236,5.65238088872368,0.0758963606854617
21.93262,5.666629807231946,0.0756672057818542
21.935024,5.680599186486488,0.0754534436263884
21.937412,5.694568565741033,0.075242512918087
21.939792,5.706815383502881,0.0750342434213633
21.942196,5.715337539025615,0.0748447239704568
21.94458,5.721997363428792,0.074664873909232
21.94696,5.725444382272055,0.0745204649315242
21.94936,5.733035372235011,0.0743358352325355
21.951748,5.743839167757883,0.0741169068182694
21.954128,5.758088086266146,0.0738970476584514
21.956524,5.7714058392146335,0.0736836177475162
21.958912,5.781650556230064,0.0734977837008176
21.961292,5.792314582126075,0.0732883183279608
21.963688,5.801767903208587,0.0730971975497975
21.966076,5.811221224291099,0.0729056683274548
21.968456,5.815087552014942,0.0727398565570656
21.97086,5.821235519738922,0.0725429746597348
21.973244,5.831899545634934,0.0723354267303973
21.975624,5.841911945224887,0.0721173210716108
21.978016,5.852203884068562,0.0718864682208615
21.980404,5.858491621419401,0.0716869809904071
21.982784,5.869854495449713,0.0714480261122783
21.98518,5.8804259735471085,0.0712075715216388
21.987568,5.89178884757742,0.0709719756494571
21.989948,5.904082887167511,0.0707327983387617
21.992364,5.91730809231738,0.0704909811513413
21.994752,5.937750304519998,0.0701891503243832
21.997132,5.954979711162702,0.0699212011581848
21.999528,5.968344685939432,0.0696762757434755
22.001916,5.983991300716298,0.0694065431653583
22.004296,5.997775584373609,0.0691441789658042
22.006692,6.0154242998968925,0.0688621149116185
22.00908,6.037077216913009,0.0685559972152246
22.011476,6.063945040235459,0.068207083679666
22.013872,6.093885899490964,0.0678370237636768
22.01626,6.1263407161720815,0.0674723306721449
22.01864,6.155722496920147,0.0671311879364913
22.021036,6.178306579496042,0.0668258908622913
22.023424,6.199679957258439,0.0665379155021859
22.025808,6.21812006871464,0.0662678238935857
22.028204,6.238702050544119,0.0659783531654205
22.030588,6.251555168641652,0.0657267933843941
22.032972,6.258122445246212,0.0655262228071446
22.035368,6.2657606570374105,0.065317183053213
22.037756,6.275540739201887,0.0650898980615698
22.040136,6.284669195060306,0.064852270954918
22.042536,6.292726715732085,0.064627902889275
22.04492,6.304928207523558,0.0643741251546772
22.047304,6.319923195994367,0.0641142391861257
22.0497,6.325047450359952,0.0639055952016766
22.052084,6.328960999912037,0.0637123782239592
22.054484,6.330360592038509,0.0635131250127398
22.05688,6.328547378605064,0.0633424005675013
22.059264,6.3217987981190085,0.0631967544933935
22.061648,6.3129083472596745,0.0630692233987364
22.064044,6.300433003788088,0.0629432130824724
22.066432,6.292101631436196,0.0627879640915515
22.068812,6.288333539084578,0.0625828833571118
22.071208,6.286847086733098,0.062353298677521
22.073596,6.287222965501174,0.0621197629848445
22.075976,6.282803246843499,0.0619023006765829
22.078372,6.287183327104408,0.061647074366209
22.08076,6.300922284791344,0.0613267032499996
22.083156,6.307863544306112,0.0610325418106942
22.085552,6.309589897514546,0.0607750845491089
22.08794,6.308243214789925,0.0605361199866341
22.09032,6.2988881290796375,0.0603389797866587
22.09272,6.2845976763167375,0.0601646835051505
22.095104,6.264440690941447,0.0600143247035627
22.097488,6.2510814037383255,0.0598364012608453
22.099888,6.2418660876548975,0.0596302508692858
22.102276,6.234233563437307,0.0594340311785062
22.104656,6.222457068100022,0.0592647241886381
22.107056,6.2125429038822935,0.0590911806824593
22.109444,6.202628739664564,0.0589174930945914
22.111824,6.197649942499448,0.0587207356285297
22.11422,6.190669044587914,0.0585347258750148
22.116608,6.18420000335558,0.058368121707355
22.118988,6.175589091749966,0.0582181000840527
22.121384,6.163905144211297,0.05808597735633
22.123772,6.159810290777716,0.0579347400412189
22.126156,6.147567264731606,0.0578294697020672
22.12856,6.133042598685359,0.0577470220166864
22.130948,6.124384465251504,0.0576423202180588
22.133328,6.1240142740570365,0.0574869477635874
22.135724,6.12843968028832,0.0573182886248104
22.138108,6.140873489505272,0.0571121604137236
22.140488,6.155169629841779,0.0569031723603274
22.142892,6.174261367604037,0.0566801881815783
22.145276,6.1947035798066565,0.0564382172983994
22.147656,6.215937187942193,0.0562050636516151
22.15006,6.2393126664510055,0.0559591014163837
22.152448,6.268973986452791,0.0556728501402548
22.154828,6.3027792775742695,0.0553663471948809
22.157228,6.337655503882386,0.0550539924744881
22.159616,6.371460795003864,0.054752760488284
22.161996,6.402984446125205,0.0544724876720931
22.164404,6.431574830940352,0.0542031082815234
22.166788,6.461096381315277,0.0539330818436546
22.169172,6.489826535757283,0.0536555945906967
22.171568,6.511898761653979,0.0533923037536544
22.173952,6.536252627550814,0.0531061738525576
22.176336,6.556602291954816,0.0528372232522945
22.178732,6.579885222665012,0.0525628011500477
22.18112,6.596090915949319,0.052322302696435
22.1835,6.611365443673848,0.052084419636249
22.185896,6.622635769905544,0.051863338936245
22.188284,6.634185635390959,0.0516301574911761
22.190664,6.644944104943455,0.051392022539795
22.193068,6.649556502629844,0.0511823920141873
22.195456,6.646300266957425,0.0509954579891898
22.197836,6.637037729045755,0.0508305117483808
22.20024,6.626704255947444,0.050672726218576
22.202628,6.6091537757963845,0.050549269920867
22.205008,6.588670029339131,0.0504326415947036
22.207404,6.56618418213546,0.0503224840856046
22.209792,6.546119744558787,0.0501857468211952
22.212172,6.523913436608837,0.0500616232160174
22.214568,6.501846898285748,0.0499305886938039
22.216956,6.485367353321327,0.0497974685680197
22.219336,6.471681305036243,0.0496627156381352
22.22174,6.457855487124298,0.0495336326753989
22.224124,6.446031769958769,0.0493972213879017
22.226504,6.425128714620935,0.0492945306353746
