Time,Force,Position
4.881404,0.035358406987808205,0.0
4.883800000000001,0.02654749748341451,0.0
4.886188000000001,0.019738688725437666,0.0
4.888584000000002,0.014000815154099351,0.0
4.890979999999999,0.008262941582761037,0.0
4.893367999999999,0.0026648376382829328,0.0
4.895751999999998,0.0,0.0
4.898147999999999,0.002013211332225032,0.0
4.900535999999999,0.005097357851088595,0.0
4.902916000000001,0.007390108437034047,0.0
4.905315999999999,0.008751693463201178,0.0
4.907703999999999,0.01132398330286705,0.0
4.910084000000001,0.013756503515672713,0.0
4.912483999999999,0.015118088541839846,0.0
4.914871999999999,0.017830148008365933,0.0
4.917252000000001,0.0204024378480318,0.0
4.919656,0.023766123620615785,0.0
4.922039999999999,0.02792120532611788,0.0
4.924423999999998,0.032867682964538084,0.0
4.926819999999999,0.03380995911012459,0.0
4.929203999999999,0.033809959110124584,0.0
4.931588000000001,0.033809959110124584,0.0
4.933992,0.033809959110124584,0.0
4.936375999999999,0.033809959110124584,0.0
4.938759999999999,0.033809959110124584,0.0
4.941155999999999,0.033809959110124584,0.0
4.943543999999999,0.033809959110124584,0.0
4.9459240000000015,0.03179674777789955,0.0
4.948328,0.028712601259035988,0.0
4.950716,0.026419850673090536,0.0
4.953095999999999,0.025058265646923403,0.0
4.955492,0.02248597580725753,0.0
4.957879999999999,0.020053455594451867,0.0
4.960259999999998,0.018691870568284738,0.0
4.96266,0.015979811101758654,0.0
4.965043999999999,0.013407521262092784,0.0
4.967424000000001,0.0100438354895088,0.0
4.969819999999999,0.005888753784006706,0.0
4.972207999999998,0.0009422761455865017,0.0
4.974592000000001,0.0,0.0
4.976987999999999,0.0,0.0
4.979375999999999,0.0,0.0
4.981760000000001,0.0,0.0
4.984155999999999,0.0,0.0
4.986543999999999,0.0,0.0
4.988924000000001,0.0,0.0
4.991323999999999,0.0,0.0
4.993711999999999,0.0,0.0
4.996092000000001,0.0,0.0
4.998495999999999,0.0,0.0
5.000883999999999,0.0,0.0
5.0032640000000015,0.0,0.0
5.005659999999999,0.0,0.0
5.008047999999999,0.0,0.0
5.010428000000001,0.0,0.0
5.012827999999999,0.0,0.0
5.015215999999999,0.0,0.0
5.017596000000001,0.0,0.0
5.019991999999999,0.0,0.0
5.022379999999998,0.0,0.0
5.024764000000001,0.0,0.0
5.027159999999999,0.0,0.0
5.029544000000001,0.0,0.0
5.031939999999999,0.0,0.0
5.03434,0.0,0.0
5.036728,0.0,0.0
5.039107999999999,0.00043041946638881155,0.0
5.041504,0.0037941052389727946,0.0
5.043892,0.005295459892000137,0.0
5.046275999999999,0.005295459892000137,0.0
5.048672,0.005295459892000137,0.0
5.05106,0.006005418612109369,0.0
5.053443999999999,0.0060054186121093695,0.0
5.05584,0.0060054186121093695,0.0
5.058228,0.0060054186121093695,0.0
5.060607999999998,0.0060054186121093695,0.0
5.063008,0.0060054186121093695,0.0
5.065396,0.0060054186121093695,0.0
5.067775999999999,0.0060054186121093695,0.0
5.070176,0.0060054186121093695,0.0
5.072564,0.0060054186121093695,0.0
5.074947999999999,0.0060054186121093695,0.0
5.077344,0.006016529197917551,0.0
5.079727999999999,0.006016529197917551,0.0
5.082111999999999,0.006016529197917551,0.0
5.084508,0.006016529197917551,0.0
5.086895999999999,0.005586109731528739,0.0
5.089279999999999,0.0022224239589447555,0.0
5.091676,0.002082654332084545,0.0
5.094064,0.005446340104668529,0.0
5.096447999999999,0.008810025877252513,0.0
5.098844,0.013326084049283904,0.0
5.101227999999999,0.019623036128063057,0.0
5.103611999999998,0.0251285922739241,0.0
5.106007999999999,0.0319846228601441,0.0
5.108395999999999,0.0349762215803906,0.0
5.110779999999998,0.0379678203006371,0.0
5.113175999999999,0.04002825346110528,0.0
5.115563999999999,0.0439510177411301,0.0
5.117944000000001,0.0469426164613766,0.0
5.120343999999999,0.05086538074140142,0.0
5.122731999999999,0.052786044275009394,0.0
5.125128,0.052774933689201234,0.0
5.127524000000001,0.052774933689201234,0.0
5.129912000000001,0.052774933689201234,0.0
5.132292,0.052774933689201234,0.0
5.134688000000001,0.052774933689201234,0.0
5.137076,0.052774933689201234,0.0
5.13946,0.0514133486630341,0.0
5.141856000000001,0.04804966289045012,0.0
5.1442440000000005,0.044685977117866135,0.0
5.146628,0.03945996022572551,0.0
5.149024000000001,0.03316300814694635,0.0
5.1514120000000005,0.02765745200108531,0.0
5.153796,0.020801421414865316,0.0
5.156196000000001,0.01780982269461881,0.0
5.158584000000001,0.014818223974372307,0.0
5.160964,0.012757790813904126,0.0
5.163367999999998,0.008835026533879301,0.0
5.165755999999998,0.005843427813632797,0.0
5.1681360000000005,0.001920663533607973,0.0
5.170539999999999,0.0010329280863343186,0.0
5.172923999999998,0.00988537184536343,0.0
5.175304000000001,0.025159635008485254,0.0
5.177703999999999,0.05425782022568318,0.0
5.180088000000001,0.10062505048235007,0.009890718184841005
5.182472000000001,0.16244621648717247,0.019098635599241957
5.184868000000002,0.23869760488175495,0.027821951907989827
5.187256000000001,0.3237450004791845,0.03678027205882853
5.189636,0.4235474836904685,0.04560835207458987
5.192032000000001,0.5394555289559658,0.054213049711419645
5.194420000000001,0.6712368188501993,0.06258196575310329
5.196804,0.8135838992682192,0.0709528021297307
5.199200000000001,0.9643548998367488,0.07943727944489878
5.201588000000001,1.1237821379812654,0.08807845439845205
5.203968,1.294239801500523,0.09680724493782288
5.206364000000001,1.4785686089021,0.10543663321969665
5.2087520000000005,1.6751857683201599,0.11400921707688988
5.211131999999999,1.8810182438216474,0.12264297511047703
5.213532000000001,2.099231619138235,0.13127885838547002
5.215920000000001,2.3317354472177225,0.1398038566567304
5.218299999999999,2.573447272510568,0.1482387684351515
5.220704000000001,2.813810519220924,0.15657434058484415
5.223092000000001,3.0509647520871024,0.1648100518076515
5.225472,3.2723401839810315,0.17304236403787784
5.227868000000001,3.471418655984262,0.17147016311477814
5.230256000000001,3.651318530000224,0.1706719910192451
5.23264,3.817719347186205,0.1703353504527939
5.235036000000001,3.9770939404902776,0.16967017170685858
5.237424000000001,4.118547862448823,0.1691786967554459
5.239804,4.2449671575397945,0.1688759251105681
5.2422,4.35374342468109,0.16890334847424787
5.244588,4.453117384283854,0.16894225741648838
5.246984000000001,4.545789985228805,0.1688333834874911
5.249379999999999,4.632879384530825,0.168476714636828
5.251767999999998,4.707215796965407,0.1680655024990786
5.254148000000001,4.770195022943285,0.1677100479275217
5.256543999999998,4.822328919143655,0.16740196107111782
5.2589320000000015,4.866318434447236,0.16699937044915708
5.261312,4.896623797323601,0.16659234693802324
5.263708000000001,4.9110559155712314,0.16631702839925983
5.266096000000001,4.916038504452086,0.16612135311302184
5.26848,4.914922243295074,0.16604920972942197
5.270876000000001,4.911105033257343,0.16608951481917045
5.273264000000001,4.911896429190262,0.16607927331532674
5.275644,4.920089927773163,0.1659524857305104
5.278040000000001,4.935033902699991,0.16570598471564593
5.280428000000001,4.950722051731492,0.165508458559355
5.2828240000000015,4.971670433039701,0.1652741587449615
5.285219999999999,4.997786498825998,0.16494636261508855
5.287607999999999,5.019106967186544,0.16473251108247175
5.289988000000001,5.046061650734003,0.1643344087832436
5.292383999999998,5.0745065783486805,0.1638754575549049
5.294771999999998,5.105745002642694,0.16336679626546854
5.2971520000000005,5.134841556563431,0.16293075548051514
5.299551999999999,5.170456269402615,0.16236113956454415
5.301939999999998,5.2043484207491035,0.16182738022558102
5.304320000000001,5.237169636908952,0.16132503342446528
5.3067160000000015,5.274227371987112,0.16077102604479787
5.309104000000001,5.320177453782475,0.1600763314021666
5.311488000000001,5.370643593749867,0.15930328702220384
5.313883999999998,5.42204089927704,0.1585182728323047
5.316272000000001,5.4767907799909885,0.15764688186476647
5.318652,5.537546962944187,0.1566576834767468
5.321051999999998,5.593647318098496,0.15576092455527407
5.323436000000001,5.645139067282155,0.15490379464339393
5.32582,5.6932329153086645,0.1540543510605547
5.328216000000001,5.737277235871964,0.15319732083560317
5.330604000000001,5.771637813785146,0.15250746431390222
5.332996000000001,5.804927456511687,0.1518522452144321
5.335395999999999,5.844875027783538,0.15106314909426435
5.337783999999999,5.87816467051008,0.15040940442744266
5.3401640000000015,5.909871521370786,0.1497787839286501
5.342563999999999,5.937202083686322,0.1492229699623407
5.344951999999999,5.963741250068939,0.1486765956820157
5.3473320000000015,5.983762257533107,0.14825203913857732
5.349736,6.00248001238516,0.147823232206238
5.352124,6.020313823505678,0.14736036978097106
5.354503999999999,6.032468093468908,0.14696125635289384
5.3569,6.031725815222103,0.14677939942004975
5.359287999999999,6.025676082870348,0.1466743983394385
5.361671999999999,6.015809140480862,0.1465924965899841
5.364068,5.99891218249373,0.1466088345905035
5.366456,5.972331481856478,0.14675756872463483
5.368839999999999,5.952967788271974,0.1467482068249851
5.371236,5.939982483979061,0.14663881019222882
5.373624,5.926997179686145,0.14652834839446646
5.376003999999998,5.917736537632344,0.1463565108961347
5.378404,5.913551032258015,0.14608112815302038
5.380787999999999,5.908713900577627,0.14580288542143655
5.383171999999998,5.900571415538708,0.14555747353086332
5.385567999999999,5.894058944193867,0.14525022760253245
5.387955999999999,5.882239018744077,0.14501392099927635
5.390339999999998,5.869907236615089,0.1447644561515609
5.392735999999999,5.859717324859379,0.14446658153576197
5.395123999999999,5.850877887544027,0.14412523207718178
5.397507999999998,5.837103083176063,0.14387604266336235
5.399903999999999,5.823328278808099,0.14362582414557307
5.402291999999999,5.809785791865613,0.14340628298448477
5.4046720000000015,5.802202385334134,0.1431161528212959
5.407067999999999,5.800066202534465,0.14274300444921956
5.409455999999999,5.800304207533547,0.1423506073034859
5.4118400000000015,5.8070603714510804,0.1418509157550381
5.414235999999999,5.816702579846567,0.14134233840165675
5.416619999999998,5.819407320443023,0.14097316830812573
5.419004000000001,5.81531436286731,0.140729555312081
5.421399999999998,5.811081635664739,0.14049464135544595
5.423787999999998,5.801634002155834,0.14037225016933294
5.426183999999999,5.789625189393073,0.14032603425490447
5.42858,5.775194967003312,0.14034798933069503
5.430968,5.762347536479388,0.14035712853693072
5.433347999999999,5.751594754500498,0.14036726843721406
5.435748,5.746801052932616,0.1403098774450397
5.438132,5.745033165469546,0.14023912836611468
5.440515999999999,5.738981537259922,0.14026513650626513
5.442912,5.732370830542856,0.14032844012632847
5.4453,5.735351318677294,0.14022380524275777
5.447679999999998,5.740985533864207,0.1400847156395265
5.450075999999999,5.748901389051258,0.13988932078771202
5.452463999999999,5.756724696439689,0.1396539504390161
5.454847999999998,5.759100780096314,0.13949730369526345
5.457243999999999,5.760126389312578,0.1393826355914209
5.459631999999999,5.754866157035871,0.13940118524345568
5.462012000000001,5.7530982695728,0.13933028587368446
5.464411999999999,5.752121778042649,0.13925390908445637
5.466799999999999,5.753799013564971,0.13914272197071362
5.469183999999999,5.75556879688591,0.13907237594409821
5.471579999999999,5.767069544685214,0.13882927936188283
5.473967999999999,5.778989601365097,0.13855869177731076
5.4763480000000015,5.794402002858618,0.13819760642624024
5.478752,5.808743469165499,0.13786219269247874
5.48114,5.821362373979684,0.13754676556278195
5.483519999999999,5.832538256554893,0.1372343722273699
5.485924000000001,5.839337850584933,0.13697583224533758
5.4883120000000005,5.8485588542419675,0.1366510479743502
5.490691999999999,5.8616442897649765,0.13626188186202992
5.493096000000001,5.87165668935493,0.13593845554444697
5.495484000000001,5.878456283384969,0.1356846698824357
5.497864,5.88325377666859,0.13546890353094052
5.500260000000001,5.889494292191187,0.13525429302392278
5.502648000000001,5.899831557005235,0.1350073779735776
5.505027999999999,5.91259023144628,0.13469814077880443
5.507428000000001,5.930703581820517,0.13427581049894854
5.509812,5.943881565142144,0.1339411950114164
5.512195999999999,5.961063749956603,0.13353764615086247
5.514592,5.976663142905227,0.13314180146542598
5.51698,5.994963484734568,0.13266811111525695
5.519364,6.006745667645461,0.13229293595141325
5.52176,6.019179476862413,0.13192359346326218
5.524148,6.032264912385421,0.13156233424559974
5.526527999999999,6.045350347908431,0.1312016145824494
5.528935999999998,6.060298114550997,0.13081599662618032
5.531320000000001,6.0760372771264795,0.1304281631651798
5.533704,6.095640871567937,0.1299822646388284
5.536100000000001,6.116827257875231,0.12953222721990623
5.538488000000001,6.135359917130049,0.12911511873509693
5.540868,6.152961410825089,0.1287119395356442
5.543264000000001,6.174706875639823,0.12823707141940804
5.5456520000000005,6.197383506014336,0.12775205687332034
5.548031999999999,6.218197805269293,0.12729418366019185
5.550432000000001,6.239291643777969,0.12682397475819343
5.5528200000000005,6.261828504525621,0.12636072007835367
5.555204,6.284085826019553,0.12591978024293213
5.557600000000001,6.309928040125738,0.12544157586310484
5.559984,6.333768153485506,0.12499999495117793
5.562367999999999,6.364917821696641,0.12448290138669466
5.564764,6.394717015467416,0.12400615449655789
5.567152,6.425028065917388,0.12354170833011446
5.569531999999999,6.4553391163673615,0.12307963097961289
5.571928,6.483508296444057,0.12265756485585923
5.574316,6.509395836520616,0.12227871908267957
5.576712000000001,6.539287578090008,0.12184869634717838
5.5791080000000015,6.5731835211522345,0.12136945224292253
5.581496000000001,6.605868759400962,0.12092072649690062
5.583876,6.63734329283619,0.12050112331860979
5.586272000000001,6.668538287017698,0.1200978375058072
5.588660000000001,6.699593511572348,0.11970269957498168
5.591044,6.727715469820801,0.1193499180417282
5.593440000000001,6.75755998956195,0.11898880915461447
5.595828000000001,6.788056135609157,0.1186338586543841
5.598212,6.8184125120295045,0.11829059174042425
5.600608000000001,6.848117262143794,0.11794739510686755
5.602996000000001,6.8778220122580835,0.11760851315331303
5.605376,6.908737467185871,0.1172506501753729
5.607772000000001,6.938581986927021,0.11691076941556791
5.6101600000000005,6.960697642936223,0.11666275067353546
5.612544,6.981090737452729,0.11642616691121663
5.614940000000001,7.001763371222955,0.11617504835056401
5.6173280000000005,7.021644609060265,0.11592672529940741
5.619707999999999,7.047020292457625,0.1155941653890554
5.622108000000001,7.07667971660154,0.1151967100584128
5.624496000000001,7.099261903319567,0.11489386272290646
5.626875999999999,7.1138356870519255,0.11469214853693614
5.629272,7.12454503891831,0.11453203100181293
5.63166,7.134742534105499,0.11435988420242064
5.634043999999999,7.146150734106184,0.11416535037719248
5.63644,7.15755893410687,0.11397081655196428
5.638828,7.168967134107556,0.11377658873276923
5.641224000000001,7.172926009630015,0.11365216581887345
5.643619999999999,7.1774439636599165,0.11349993167091241
5.646007999999998,7.177585629144646,0.1133771646004237
5.648388000000001,7.174002632390262,0.11328932825237391
5.650787999999999,7.1644133333966264,0.11327528556686474
5.653172000000001,7.150168206604101,0.11330426991019658
5.655556000000001,7.137553093505654,0.11328835229350624
5.657951999999998,7.129361490780622,0.1132024426680725
5.6603400000000015,7.124103154361785,0.11308372983743802
5.662724000000001,7.122057623502863,0.11291895873680123
5.665119999999998,7.118941157457303,0.11276942614393791
5.6675080000000015,7.108747453985854,0.112706190003484
5.669892000000001,7.096831189021708,0.11265193135088923
5.672287999999998,7.086265398497922,0.1125686853049192
5.674675999999998,7.082125219093967,0.11239427090711987
5.677056,7.082408550063426,0.11215188653136951
5.679455999999998,7.083762816219523,0.11189500399556072
5.681843999999998,7.083114981629205,0.11166144895785025
5.684228000000001,7.083817621479246,0.11139956380625773
5.686623999999998,7.081866534276809,0.11115416151424831
5.689015999999999,7.087784080433181,0.11082262671941885
5.691396000000001,7.092630691402914,0.11050714045958238
5.693795999999999,7.101201964611761,0.11015901413472512
5.696183999999999,7.110704403380385,0.10980177979379321
5.698567999999998,7.125980826962786,0.10934731125703008
5.700963999999999,7.14311958166474,0.10887606085952398
5.703355999999999,7.15583482599328,0.10847174674552687
5.705735999999998,7.162543768082569,0.10813642942571099
5.708136,7.165667817559607,0.10782678967821467
5.710524,7.165718831103588,0.10755646237818042
5.712907999999999,7.168191254274568,0.10724305286791062
5.715304,7.171594843005325,0.10692063364082376
5.717696,7.17471889248236,0.1066124575440038
5.720075999999999,7.180915977892455,0.10626823345465035
5.722476,7.180827221809576,0.10600520936313473
5.724864,7.1784568257265615,0.10577831929744767
5.727248,7.174875724830046,0.10557305776564446
5.729648000000001,7.169432292813975,0.10538213638149332
5.732036000000001,7.160124428931931,0.10522809750136694
5.734416,7.1544014576621375,0.10505010313692026
5.736808,7.142672184153096,0.10493828311354042
5.739196,7.129732205830555,0.10484766124446267
5.741575999999999,7.114929896388457,0.10477170142128076
5.7439800000000005,7.0977061773193615,0.1047389994566238
5.746364,7.078572905302467,0.10476133051762397
5.748743999999999,7.056087058098797,0.10483505457730397
5.75114,7.035463542014683,0.10489473637298548
5.753523999999999,7.0202872496623785,0.10491541925216588
5.755904000000001,7.005622813989271,0.10494956438849094
5.758308,6.990678839062445,0.10499745908142864
5.760695999999999,6.975315555255038,0.10506508292005984
5.763075999999998,6.960883437007409,0.10512498594368049
5.765471999999999,6.945659922826861,0.10518528691126051
5.767859999999999,6.92587312864604,0.10531770393683243
5.770240000000001,6.907808895957914,0.10544355381250006
5.772635999999999,6.890396289575846,0.10557615453671713
5.775023999999998,6.873123452820638,0.10570109759759386
5.777404000000001,6.861717148677821,0.10576528192326103
5.779807999999999,6.854966672333895,0.10579106726675579
5.782195999999999,6.849287131176608,0.10580179752587004
5.784576000000001,6.848682726698793,0.105753900050411
5.786971999999999,6.851570667034615,0.10564893558165105
5.789359999999999,6.855250003303355,0.10554349331526719
5.791740000000001,6.868427986624981,0.105317436549226
5.794135999999998,6.883235983640685,0.10505049764219934
5.796520000000001,6.903398656589583,0.10471211947463534
5.798915999999998,6.928636466217954,0.1043196930725616
5.801311999999999,6.954293584726904,0.1039107959887589
5.803699999999999,6.98288396954205,0.1034748671953431
5.8060800000000015,7.0117538936109165,0.10302601017788515
5.808479999999999,7.039041025813947,0.10257908819456757
5.810863999999999,7.06446582689742,0.10214527626145299
5.8132480000000015,7.093615290220006,0.10168646467894041
5.815652,7.124254997609813,0.10119060729518328
5.818035999999999,7.157316114626616,0.1006541411031085
5.820415999999998,7.190005144591082,0.10009719769782037
5.82282,7.22190277862263,0.09954150374882356
5.825208,7.251006915974844,0.09901206894902446
5.827587999999999,7.277317556647723,0.09850558050162729
5.829992000000001,7.301765866201043,0.09801576330552181
5.832380000000001,7.324491614261668,0.09753649692268702
5.834759999999999,7.3440045567623775,0.09709973303696383
5.837164000000001,7.362446564076448,0.09667568375924146
5.839552000000001,7.370738298031575,0.0963585481324116
5.841932,7.3766086223597025,0.09608113665498319
5.844328000000001,7.381687550754913,0.09580538599095438
5.846716000000001,7.3829020472841504,0.09556278106678932
5.849095999999999,7.381323047134052,0.0953390398766167
5.8515000000000015,7.37709031993148,0.09512725683716122
5.853888000000001,7.371926427169129,0.09492125153359916
5.856268,7.3703474270190314,0.0946983929811936
5.858664000000001,7.372772628361767,0.09443924056965015
5.861052000000001,7.369471066718973,0.09422188258241325
5.863432,7.370033936942153,0.09397555390322723
