Time,Force,Position
3.221808,0.034446687631882425,0.0
3.224148,0.044106694283496915,0.0
3.2264920000000004,0.053766700935111406,0.0
3.228836,0.06663951314664149,0.0
3.2311879999999995,0.08165419573144864,0.0
3.233524000000001,0.09480654719669915,0.0
3.235868,0.10875029459486775,0.0
3.2382159999999995,0.11948123643312077,0.0
3.2405600000000003,0.13007240864451358,0.0
3.242904,0.14280545122918345,0.0
3.245248,0.14939242194774255,0.0
3.247596,0.16012336378599556,0.0
3.249932,0.16978337043761005,0.0
3.2522800000000007,0.18251641302227992,0.0
3.254620000000001,0.1960408515398679,0.0
3.256964,0.20619112489881236,0.0
3.2593080000000008,0.21447906713820017,0.0
3.261652,0.21834349900417366,0.0
3.264,0.2195542038176724,0.0
3.266344,0.21797141195183617,0.0
3.268688000000001,0.21145325303338797,0.0
3.2710240000000006,0.20959092191383133,0.0
3.273368,0.20665765560763613,0.0
3.275708,0.19864925262196872,0.0
3.2780520000000006,0.1892903751959424,0.0
3.280392000000001,0.18458732556880764,0.0
3.2827280000000005,0.18016381519539332,0.0
3.285076,0.17816171444897647,0.0
3.287424,0.17536821776964148,0.0
3.289764,0.1712242466499476,0.0
3.292104,0.1761596137025596,0.0
3.2944440000000004,0.17802194482211622,0.0
3.296792,0.1800240455685331,0.0
3.2991399999999995,0.17695100963547772,0.0
3.30148,0.17308657776950423,0.0
3.3038279999999998,0.1688028370229501,0.0
3.306168,0.16279653478369957,0.0
3.3085120000000003,0.15879233329086587,0.0
3.31086,0.1566504629175888,0.0
3.313196,0.1574418588505069,0.0
3.3155400000000004,0.15930418997006354,0.0
3.3178800000000006,0.1515065144380057,0.0
3.320228,0.14477977409258638,0.0
3.3225680000000004,0.1399153648667237,0.0
3.3249119999999994,0.13425955970794295,0.0
3.327256,0.1258102578698272,0.0
3.329592,0.11629002084507292,0.0
3.3319360000000007,0.10756117975323674,0.0
3.334276000000001,0.09976350422117888,0.0
3.33662,0.09117443275620292,0.0
3.3389640000000007,0.0796520949850318,0.0
3.341304000000001,0.06705882202722212,0.0
3.3436520000000005,0.055396714629190776,0.0
3.346,0.0457367079775763,0.0
3.3483400000000003,0.0360767013259618,0.0
3.3506839999999998,0.028558565047624374,0.0
3.353024,0.022762990261983373,0.0
3.3553680000000004,0.017107185103202582,0.0
3.3577080000000006,0.011451379944421792,0.0
3.360048000000001,0.0057955747856410006,0.0
3.3623960000000004,0.0,0.0
3.3647399999999994,0.0,0.0
3.367084,0.0,0.0
3.3694240000000004,0.0,0.0
3.3717640000000006,0.0,0.0
3.374108,0.0,0.0
3.3764520000000005,0.0,0.0
3.3787920000000007,0.0,0.0
3.381136,0.0,0.0
3.3834800000000005,0.0,0.0
3.385828,0.0,0.0
3.388164,0.0,0.0
3.3905119999999997,0.0,0.0
3.3928600000000007,0.0,0.0
3.395212000000001,0.0,0.0
3.397552000000001,0.0,0.0
3.3998919999999995,0.0,0.0
3.4022360000000003,0.0,0.0
3.404572,0.0,0.0
3.4069160000000007,0.0,0.0
3.40926,0.0,0.0
3.411612,0.0,0.0
3.413952,0.0,0.0
3.416296000000001,0.0,0.0
3.418636,0.0,0.0
3.4209840000000007,0.0,0.0
3.423328,0.0,0.0
3.4256759999999997,0.0,0.0
3.4280159999999995,0.0,0.0
3.430356,0.0,0.0
3.4327039999999998,0.0,0.0
3.4350400000000008,0.0,0.0
3.4373880000000003,0.0,0.0
3.439732,0.0,0.0
3.442076,0.0,0.0
3.444424,0.0,0.0
3.4467680000000005,0.0,0.0
3.449116,0.0,0.0
3.451452,0.0,0.0
3.453792,0.0,0.0
3.4561360000000008,0.0,0.0
3.45848,0.0,0.0
3.4608159999999994,0.0,0.0
3.463156,0.0,0.0
3.465508,0.0,0.0
3.4678520000000006,0.0,0.0
3.470192000000001,0.0,0.0
3.472536,0.0,0.0
3.474876,0.0,0.0
3.477220000000001,0.0,0.0
3.479564,0.0,0.0
3.481904,0.0,0.0
3.484252,0.0,0.0
3.486592,0.0,0.0
3.4889360000000007,0.0,0.0
3.491276000000001,0.0,0.0
3.4936120000000006,0.0,0.0
3.495956,0.0005806684793085566,0.0
3.498296,0.0005806684793085565,0.0
3.5006439999999994,0.001021567331756903,0.0
3.502988,0.004535502117260631,0.0
3.505332000000001,0.008049436902764358,0.0
3.5076719999999995,0.012913846128627037,0.0
3.510012,0.01670732016785119,0.0
3.5123599999999997,0.018358923833798276,0.0
3.5146999999999995,0.022943793805940534,0.0
3.5170440000000003,0.026737267845164683,0.0
3.5193879999999997,0.03160167707102736,0.0
3.5217279999999995,0.035534920737111717,0.0
3.5240720000000003,0.036534898097000904,0.0
3.526408,0.036534898097000904,0.0
3.528756,0.036534898097000904,0.0
3.531096,0.03804673213608778,0.0
3.5334400000000006,0.040349962108092774,0.0
3.535780000000001,0.04172202652031944,0.0
3.538124,0.04202315574590758,0.0
3.5404599999999995,0.04202315574590757,0.0
3.542796000000001,0.04144248726659902,0.0
3.5451440000000005,0.04144248726659902,0.0
3.5474879999999995,0.04100158841415068,0.0
3.549828,0.03748765362864695,0.0
3.552172000000001,0.03397371884314322,0.0
3.554512000000001,0.02910930961728054,0.0
3.5568600000000004,0.02531583557805639,0.0
3.5592000000000006,0.023664231912109306,0.0
3.561548,0.019079361939967045,0.0
3.563892000000001,0.015285887900742893,0.0
3.5662319999999994,0.010421478674880214,0.0
3.568576,0.006488235008795856,0.0
3.570920000000001,0.007232409113470815,0.0
3.5732599999999994,0.012980762070868661,0.0
3.5756,0.02087098540154357,0.0
3.577952,0.028460079506630345,0.0
3.5802960000000006,0.03339544655924236,0.0
3.5826320000000003,0.04019314473141103,0.0
3.5849759999999997,0.04806177809021822,0.0
3.5873240000000006,0.059304576607668934,0.0
3.5896600000000003,0.07068714475197985,0.0
3.592008,0.08220948252315098,0.0
3.594348,0.09172971954790526,0.0
3.596696,0.10031879101288123,0.0
3.599036,0.10597459617166202,0.0
3.6013800000000007,0.1121422580096405,0.0
3.603728,0.11919386357915417,0.0
3.60606,0.13201755810457186,0.0
3.6084,0.15000704125020956,0.0
3.610744,0.17348717824016166,0.0
3.613088,0.20650749653763578,0.0
3.615432,0.2613129180466102,0.008511597230174223
3.617776000000001,0.3372774483174026,0.016168200028554597
3.62012,0.4208745028057864,0.023826191343323158
3.622452000000001,0.5075408015114871,0.03197245691995985
3.624796,0.6074719437638231,0.04016162967957482
3.627144,0.7239732829213269,0.04845530527538112
3.629484,0.8547178530134876,0.05666407150578464
3.631824,1.0001721847491287,0.06468897584688903
3.634164,1.1512569399559445,0.07280251070852606
3.636520000000001,1.3143032860972799,0.08098822425169513
3.638852,1.4947584469049442,0.08908139450344854
3.641192,1.6942524360730173,0.09708194531838138
3.643536000000001,1.9100389787504073,0.10497220877214358
3.6458720000000007,2.1383934126980004,0.11290710641415884
3.648216,2.3791759682889366,0.12083327851157026
3.650556,2.6325264151500765,0.12876428991958339
3.652904,2.8929522035792363,0.13664459417665306
3.655244,3.158128263463774,0.14439787929168793
3.657588000000001,3.4208867054370526,0.15207939005114754
3.659932,3.67643382793119,0.15964743254117375
3.662272,3.902374435683263,0.1588187899148125
3.664608,4.100336646529481,0.1589646801027882
3.666952,4.2894556283446095,0.15905496552943288
3.669296000000001,4.478997710756056,0.15850051169688145
3.671636,4.646522372530526,0.15800044503639
3.67398,4.7976638288549305,0.15736863934808423
3.676320000000001,4.932699723125123,0.15683963491695066
3.678664,5.053677482057892,0.15649684508049794
3.681004,5.169816213452404,0.15598475504011539
3.683348000000001,5.274272893166118,0.15537067671437865
3.6856880000000007,5.359318657467085,0.1548839218954444
3.688044,5.426396528594283,0.1545073525739345
3.690384,5.475971141398666,0.15429685091944226
3.6927280000000007,5.5180529996123155,0.15398593477084999
3.695076,5.545751857264451,0.15368887615557428
3.697412,5.558044000996673,0.15337950765228814
3.69976,5.553391964913519,0.15317008068943988
3.702104,5.539243177635349,0.15305666148162927
3.704456,5.524163224797399,0.15295853659031095
3.7068,5.504752309384653,0.15302004435027863
3.709144,5.495304675875747,0.15291027049615993
3.711492,5.490932179046315,0.15268095825949812
3.71384,5.48134477591055,0.15258287380726232
3.7161880000000007,5.467566179826848,0.1526359002584299
3.718536,5.465985283818881,0.15250279494006055
3.7208799999999993,5.4670108930351455,0.1523795181139949
3.72322,5.473763265236941,0.15214324569903342
3.725572,5.480655407065595,0.15189769659296098
3.7279079999999993,5.480610081095221,0.15180311108255568
3.730248,5.481076611804044,0.1517213059613685
3.732592,5.485826883259422,0.15153195011209622
3.73494,5.49113623322224,0.15130261179038523
3.737276,5.4976562879985575,0.15103408192741632
3.739616,5.503337725013715,0.15082716001754012
3.741964,5.511905206506824,0.15061118366805698
3.744300000000001,5.524010358783942,0.1503891593274405
3.746644,5.540212260352511,0.1501179005973296
3.748984,5.557437875279474,0.14987386019152527
3.751332,5.573824872445277,0.14969208031702214
3.753672,5.595938632596611,0.14940015234177495
3.7560160000000007,5.6151191264417495,0.1491710152546518
3.758364,5.632065202114993,0.14895185545829395
3.7607079999999993,5.650781061109177,0.14865269963039518
3.763048,5.6668431930508865,0.1483941108609811
3.765392,5.678249497193704,0.14822435950606577
3.7677359999999993,5.693148146150157,0.14796099754374853
3.7700720000000008,5.700597470628383,0.14783056247798226
3.772416,5.709257499920108,0.1476660931046934
3.774760000000001,5.721362652197226,0.14745322785014142
3.777104,5.733328034847483,0.1472511074284999
3.779448,5.742732238243884,0.14713112398326078
3.781792,5.757443895745233,0.14693809933131952
3.784132,5.772015783619723,0.14675284917907366
3.786476,5.790731642613905,0.14648105324002567
3.78882,5.811077515302169,0.14615165659907525
3.791156000000001,5.830679213885756,0.1457825829734644
3.7934959999999993,5.848977659857228,0.14540645483236375
3.79584,5.864901918029947,0.14504837364703604
3.798184000000001,5.882316420269884,0.14464201142735347
3.8005239999999993,5.898008361017123,0.14426299022616773
3.802876,5.915981941764502,0.14382900902964157
3.805224000000001,5.934607148817938,0.1433950020534851
3.8075639999999993,5.9536044429237105,0.14298143553211395
3.809904,5.977257564828377,0.14249539867008426
3.812248,6.005846053785652,0.1419258378793255
3.814588000000001,6.029359406063457,0.14146345070748842
3.816932,6.055154398341399,0.14094243162234124
3.819268000000001,6.075874253939868,0.14051895530168093
3.821616000000001,6.102088555098391,0.13997824366205297
3.8239680000000007,6.131934970697409,0.13935201028056415
3.826312,6.16303931293817,0.13865088330941844
3.828652,6.181619194021233,0.13815294477112552
3.8309960000000007,6.204063506970269,0.1375927586373502
3.83334,6.2212003658143535,0.1371049777879981
3.835676,6.237685598352382,0.1366209494747586
3.8380240000000008,6.250818255703633,0.13621050837751789
3.840364000000001,6.265254165667001,0.13580712179576696
3.842708,6.280481471563287,0.13539778013954767
3.845052000000001,6.2950571511535145,0.1349897898758945
3.847396,6.309260743691405,0.13456536114051598
3.8497400000000006,6.318389199549824,0.1342297242947466
3.852080000000001,6.3281692817143,0.1338964173213316
3.854432000000001,6.337018198318997,0.13357469006303138
3.856776,6.340978969699327,0.13329007554500766
3.859116,6.335628085481873,0.13313539494029578
3.861460000000001,6.325481603838666,0.13305419994123902
3.863808000000001,6.315567439620938,0.13300252845832813
3.86614,6.311519808015599,0.13285473794966762
3.868484000000001,6.299883082305175,0.13281987849194674
3.8708240000000007,6.28144865842258,0.13289045361938284
3.873172,6.260033746405548,0.13305338281361928
3.875508,6.247930489986299,0.13309051080093973
3.8778520000000007,6.2351756072609925,0.13312158483328462
3.880204000000001,6.220046536736932,0.13316569851389817
3.882540000000001,6.196909063227203,0.13334856314305046
3.884896,6.177216712702867,0.13349732840795264
3.887236,6.159526462924949,0.1336100925534937
3.8895839999999993,6.14253506128133,0.1336792751460331
3.891924,6.119956666279044,0.13382572206072924
3.894268,6.0909526601569235,0.13410341201822343
3.896616,6.067675417020336,0.13429483644785298
3.898956,6.04840237537658,0.1344150973926367
3.901300000000001,6.034623779292877,0.13441803198128716
3.903644,6.025361241381207,0.1343651347571222
3.905984,6.021266387947626,0.13426172965667096
3.90832,6.025412254925188,0.1340509872464677
3.9106640000000006,6.029186034850414,0.1338184655686929
3.913008,6.02765236067069,0.13364593122817145
3.915348,6.028260556864242,0.1334300812335916
3.9176920000000006,6.030032236043051,0.13323034691623126
3.920032000000001,6.035808116714693,0.13296157754703286
3.9223719999999993,6.038697952908384,0.13269301040961362
3.924716,6.040516853915436,0.1324474810081983
3.927060000000001,6.045361569027301,0.13219343789864477
3.9293999999999993,6.059797478990669,0.13179320475284187
3.931744,6.074652697834618,0.1313698630234115
3.934084,6.088576751118787,0.13096253509130482
3.936428,6.103804057015074,0.13056731627041449
3.938768,6.124990443322366,0.13011797933065422
3.941112,6.1569787292946625,0.12949955346845424
3.94346,6.18803584970718,0.12890045301040667
3.9458,6.215228538253725,0.1283631266506316
3.948144000000001,6.2374858597476575,0.1279090585460857
3.950488,6.254016418256058,0.1275357176833189
3.952832000000001,6.2693834937792055,0.12714539340589534
3.9551719999999992,6.283447316690236,0.126749977551253
3.9575080000000007,6.300956262586659,0.1263277342512509
3.959856,6.32498336740153,0.125827788483447
3.9621999999999993,6.3516641992688765,0.1253077037967031
3.964544,6.38076644076322,0.12473261307097383
3.966888000000001,6.406795646324508,0.12420969276124294
3.9692279999999993,6.434779730803971,0.12370229936154502
3.971572,6.459970318604097,0.1232281659942905
3.973908,6.486790920098303,0.12270741854159509
3.9762559999999993,6.50802452823384,0.12225638355314492
3.9786,6.528047431555876,0.12183453763756573
3.980952,6.547278938944997,0.12141744382781522
3.983292000000001,6.562925553721865,0.12103560718519542
3.985636,6.576757059207417,0.12063357463076944
3.987988,6.5828597009610235,0.12033445391391627
3.9903239999999993,6.587891407527991,0.12005435475729317
3.9926720000000007,6.592923114094957,0.11977353891312527
3.99502,6.597815051035066,0.1194999412726807
3.997356,6.608293981333843,0.11916454709365484
3.9997000000000007,6.618074063498319,0.11886760775354677
4.002048,6.625292966408937,0.11863094281477436
4.0043880000000005,6.624922775214469,0.11848418574762351
4.006728000000001,6.617894655474694,0.11841749129600594
4.009072,6.607002103868943,0.11839907240407312
4.011419999999999,6.596249321890053,0.11837200667505919
4.013756000000001,6.588709345471077,0.11829133288415081
4.0161,6.5846617138657395,0.1181428179694214
4.018447999999999,6.584618283753234,0.11793994469429574
4.020788,6.581082508827093,0.11780459039693741
4.02314,6.581271396140066,0.11763060756521568
4.0254840000000005,6.583462384199455,0.11743056266388555
4.027836000000001,6.585653372258845,0.11723078418034337
4.030172,6.590777626624429,0.11699485579307851
4.0325120000000005,6.593480471363016,0.11680793487845083
4.034856,6.599116582407799,0.11658497393111822
4.0372,6.604752693452581,0.11636223429096258
4.039543999999999,6.61225113561692,0.1161208808592703
4.041888,6.6218914481545355,0.11584625906385895
4.044228,6.629809199199455,0.11558517656119885
4.046571999999999,6.643081626177568,0.11524315981135878
4.048912,6.658635693155818,0.11486082977690588
4.051247999999999,6.683920724612432,0.11436593229712391
4.053592,6.714001353494796,0.11381810693862468
4.055936000000001,6.746223852750438,0.1132390183191191
4.058275999999999,6.777095877565721,0.11269383843685793
4.06062,6.805826032007728,0.11218534860842394
4.062956,6.830412215330041,0.11174009094413832
4.065300000000001,6.853647924211994,0.11132903244511232
4.067644,6.8793050427209455,0.11087240646030318
4.069984,6.903751456416398,0.11044225084844744
4.072328000000001,6.926195769365433,0.11003891940283624
4.074672,6.948500312687608,0.10964369700817958
4.077007999999999,6.9698736904500045,0.1092588375575116
4.079348,6.994831960824654,0.10884814345220749
4.081692,7.017788130452886,0.10846217512242014
4.0840320000000006,7.04074430008112,0.10807683309154563
4.08638,7.062769304149574,0.10770111717435302
4.08872,7.084235229710588,0.10735584380260293
4.091063999999999,7.103419515271464,0.10704834696493873
4.093412000000001,7.120322160832203,0.10678272681625052
4.095744,7.136945267139222,0.10653255774056988
4.098091999999999,7.148493236766768,0.10634494014926756
4.100432,7.160972371954095,0.10615215917339944
4.102776,7.17182149344734,0.10600160376836767
4.105119999999999,7.183741550127225,0.10583715104304824
4.10746,7.193519736433832,0.10570081437748169
4.1098040000000005,7.203158153113579,0.10557142792237582
4.112144000000001,7.209071907554213,0.10547185519642967
4.114492,7.213495417927627,0.10540750869407582
4.116835999999999,7.218058697927902,0.10533666509876366
4.119176,7.221411273114677,0.10528683911354343
4.12152,7.223413373861093,0.10526491736517499
4.123863999999999,7.227649892779405,0.10524789732942967
4.126204,7.228953145391521,0.10526012503587871
4.128552000000001,7.233841290615889,0.10524941850381057
4.1309000000000005,7.238589666213397,0.10524552964704163
4.133248,7.2439896681169635,0.10524781486595054
4.135584,7.248738043714473,0.105244032978768
4.137924,7.256699224871896,0.10519808236794721
4.140268000000001,7.262658305282903,0.10517381578277285
4.142612,7.269036694574491,0.10512984721640171
4.144947999999999,7.277556954239356,0.10505856111729933
4.147296000000001,7.282073012411387,0.10502957928164679
4.149644,7.290081415397055,0.10494666999876456
4.15198,7.296227487263165,0.10487802168901622
4.154324000000001,7.308519630995387,0.10474154661824082
4.156676000000001,7.3237450410338045,0.1045787173482949
4.15902,7.344836983684613,0.10436160194450192
4.16136,7.3683503359624165,0.10410602322656443
4.163704000000001,7.387207860441328,0.10388387329736955
4.1660520000000005,7.409557729733879,0.10360956438016285
4.168392000000001,7.434468778280285,0.1032891325621554
4.170736,7.457424947908518,0.10295252872950822
4.173083999999999,7.483873462350386,0.10256467202966137
4.175428,7.505945688247084,0.10219878534034132
4.177768,7.531370489330557,0.10179026050400077
4.180111999999999,7.5564232033616925,0.10136397828335128
4.182456,7.581615687019689,0.10093216140543665
4.184787999999999,7.604014673998351,0.10052182125743246
4.187132,7.627112509111313,0.10008091376563401
4.18948,7.651141509784054,0.09963748410898882
4.191828000000001,7.672377013777458,0.09921487744683698
4.194172,7.6951027618380845,0.0987610225591251
4.196512,7.711961977286319,0.0983584161812609
4.198855999999999,7.73203399829447,0.09792005625420083
4.201192000000001,7.745308321130451,0.09753889888359402
4.20354,7.75541706023476,0.09715921227984328
4.205888,7.762080676353676,0.0967929628712836
4.208235999999999,7.767021730979895,0.09643411325312903
4.21058,7.777037922285587,0.09602644572466634
4.21292,7.781978976911808,0.09566675855514305
4.215260000000001,7.78612863560511,0.09530788831052199
4.217604,7.784132222432301,0.09500629340028612
4.219951999999999,7.778271377393518,0.09473415502452585
4.222303999999999,7.774412633101152,0.09444379878508907
4.224648,7.765618521756175,0.09419457332242878
4.226988,7.757103949664917,0.0939328560772505
4.229331999999999,7.7468668160809635,0.09367554563864533
4.231684,7.735838286564092,0.0934167623254336
4.234024,7.723319512980001,0.09318768580253929
4.236371999999999,7.70493420678352,0.09300356596488496
4.238720000000001,7.686548900587037,0.09281880460985431
4.241052,7.665881954390419,0.09266287118632106
4.243396000000001,7.650150375246413,0.0924664964535016
4.24574,7.629203889796074,0.09232173786166455
4.24808,7.612401375465429,0.09213580329849909
4.250424000000001,7.593968847440704,0.09198550808459076
4.252768,7.576048176095177,0.09184772296454803
4.25512,7.557708195869069,0.09172790459250917
4.257456,7.538948906762381,0.09162597465156336
4.2598,7.526335689521803,0.09146706318743907
4.262148,7.513303163400645,0.09132619648704024
4.264492000000001,7.509210205824935,0.09111310383177966
4.266832000000001,7.505768874555279,0.09090643614615193
4.269176,7.502187773658765,0.09070597486539252
4.271528,7.502471104628223,0.09047880484545384
4.273864,7.504988853769576,0.09026196311858192
4.2762080000000005,7.510951725896322,0.09003742061699406
4.278556,7.519428555448682,0.08981007025394624
4.280900000000001,7.52990748574746,0.08956697031631664
