Time,Force,Position
4.58788,0.21998329701357958,0.0
4.590223999999999,0.22491866406619157,0.0
4.5925720000000005,0.22785193037238674,0.0
4.594908,0.22878309593216506,0.0
4.597251999999999,0.23064542705172172,0.0
4.599608,0.22743262149180615,0.0
4.601952000000001,0.2220779455586135,0.0
4.604296,0.21351046406550522,0.0
4.6066400000000005,0.20894718406523072,0.0
4.608992000000001,0.20689786149057074,0.0
4.611324,0.20205504223657575,0.0
4.6136680000000005,0.19507035260930372,0.0
4.616008000000001,0.18501262704897634,0.0
4.618352,0.17495490148864895,0.0
4.620692,0.16331438406248533,0.0
4.623036000000001,0.15381573700959875,0.0
4.625375999999999,0.14524825551649048,0.0
4.62772,0.13509798215754604,0.0
4.630063999999999,0.12443585211940385,0.0
4.632403999999999,0.11044770269757255,0.0
4.63476,0.09739071883551954,0.0
4.6371,0.08526490053324488,0.0
4.639443999999999,0.07514118297738707,0.0
4.641792000000001,0.0660884006081678,0.0
4.644131999999999,0.056104452679170184,0.0
4.64648,0.04812260549658943,0.0
4.648823999999999,0.042282628687285724,0.0
4.651176,0.037513587064620546,0.0
4.65352,0.030742444695538534,0.0
4.6558600000000006,0.023319676020398614,0.0
4.658200000000001,0.018690404024593658,0.0
4.6605360000000005,0.015132067215427238,0.0
4.662884,0.012644665592899342,0.0
4.665236,0.010177929995527952,0.0
4.667576,0.008481924305918168,0.0
4.669919999999999,0.0055752138028096416,0.0
4.67226,0.0017373377399227954,0.0
4.6746,0.0005531887295107001,0.0
4.67694,0.00069295835637091,0.0
4.679288,0.001505020314445525,0.0
4.681635999999999,0.006041744511633421,0.0
4.683972000000001,0.009647303149042998,0.0
4.686316,0.010179825853397193,0.0
4.688663999999999,0.010179825853397193,0.0
4.691000000000001,0.010179825853397193,0.0
4.693344,0.010179825853397193,0.0
4.6956880000000005,0.010179825853397193,0.0
4.698040000000001,0.010179825853397193,0.0
4.700376,0.010179825853397193,0.0
4.702719999999999,0.011224205236949078,0.0
4.705068000000001,0.014270685366917816,0.0
4.707404,0.014270685366917814,0.0
4.709744000000001,0.014270685366917814,0.0
4.712088,0.01425001934176131,0.0
4.71444,0.01425001934176131,0.0
4.716775999999999,0.01425001934176131,0.0
4.719116,0.014250019341761311,0.0
4.721468,0.014250019341761311,0.0
4.723796,0.013577727010546907,0.0
4.726139999999999,0.012765665052472291,0.0
4.728479999999999,0.008228940855284392,0.0
4.730828000000001,0.004623382217874816,0.0
4.733164,0.004090859513520621,0.0
4.735507999999999,0.004090859513520621,0.0
4.73786,0.004090859513520621,0.0
4.7402,0.008195003825043201,0.0
4.7425440000000005,0.03836799209462026,0.0
4.744888,0.08841842648576714,0.011028813495315875
4.747235999999999,0.14945396028128122,0.02144190106687812
4.749572000000001,0.2228969496949821,0.031422789049055856
4.751916,0.31090803526743405,0.04110119927801647
4.754251999999999,0.4218883730617985,0.050282996797722496
4.756596,0.5478107899251207,0.059195459760913303
4.758939999999999,0.6869999461929474,0.06785410967565435
4.761284,0.8384774544772571,0.07643665388995917
4.763631999999999,1.0024284103752839,0.08509720159435201
4.765980000000001,1.1868612168726953,0.09350555799343589
4.768324,1.390100534305038,0.10167956633477192
4.770668000000001,1.6024626200221914,0.1098749339734493
4.773008000000001,1.8266012010766302,0.11803014980162169
4.775356,2.0636325386253667,0.12622575410724507
4.777699999999999,2.317141525280654,0.13438314630095613
4.78004,2.5916933369006356,0.14221822864607173
4.782375999999999,2.871412832998707,0.14997478508022283
4.78478,3.1538332779774962,0.15763667297584147
4.787167999999999,3.429403303793671,0.16529909287270636
4.789543999999999,3.670384225986927,0.17313446870524943
4.79194,3.887902809446359,0.1700062416918409
4.794328,4.09178256644895,0.16754114575602866
4.796708000000001,4.268662313933707,0.16578298677161413
4.799111999999999,4.420778365930395,0.16445632225276113
4.801496,4.55367049396944,0.16356730467140757
4.803876000000001,4.674134500365143,0.16290406672844032
4.806279999999999,4.779981292915981,0.16255191302939287
4.808667999999999,4.872329028636838,0.16232196831236312
4.811048,4.95141192081106,0.16202500016613794
4.8134440000000005,5.008802257572398,0.1620269940966464
4.815832,5.048177479331724,0.16225214866706006
4.818216,5.079733185418354,0.16245739751649657
4.82062,5.098301691354201,0.16274958336054088
4.823003999999999,5.102254879303053,0.16303614022227336
4.825384,5.092151827772351,0.16326679627071183
4.827788,5.062169434262211,0.16383305139256854
4.830176,5.034328911125347,0.16431173090951967
4.832556,5.00821094948118,0.16474446288061798
4.834952,4.9879122986211595,0.16509341087833346
4.837339999999999,4.973992037052728,0.16533203377801908
4.83972,4.963609446268307,0.16556211770992296
4.842116000000001,4.961699893320508,0.16565681171257143
4.844504000000001,4.984652271233003,0.16523651597062686
4.846883999999999,5.020733514781011,0.16457705189881375
4.84928,5.05518474463494,0.16399426609051795
4.851668,5.088053182623032,0.16343732270858888
4.854048000000001,5.124925822103958,0.1627805213977053
4.856448,5.16529080639852,0.16201387779985357
4.858836,5.205004164387024,0.16124104507854892
4.861216000000001,5.243414269763412,0.16045343800026465
4.863612,5.279170648087326,0.15971197209475857
4.866,5.315346335291819,0.15894400317004065
4.86838,5.355246684735427,0.158097148717642
4.870784,5.40259635865726,0.1571051165527072
4.873172,5.448595558138735,0.15618129187632937
4.875552000000001,5.494641979448454,0.15520900645677682
4.877948,5.533099306653086,0.15442174585742127
4.880336,5.565642879417083,0.15382945950375754
4.882716,5.594322020315108,0.1533273530761397
4.885112,5.628495606773186,0.1526757571578182
4.887499999999999,5.6680710909927,0.15184239540432087
4.88988,5.7013154077488695,0.15108478578328366
4.89228,5.725248068907254,0.15052777016171479
4.894664000000001,5.745316298199665,0.15005673462999822
4.897043999999999,5.766595232305575,0.14954984246589123
4.89944,5.783358108239454,0.14911194929966962
4.901828,5.801331688986831,0.14864724604679727
4.904211999999999,5.819258047905966,0.14823793895980283
4.906608,5.8434230264898295,0.1477425143630914
4.908996,5.872523372126304,0.14715189446309862
4.911391999999999,5.902694652949417,0.1465315826718897
4.913788,5.931003602652973,0.14594505020923923
4.916172,5.954516954930777,0.14544529209887627
4.918556000000001,5.9716519179169945,0.14505260217514093
4.920952,5.984829901238619,0.14469011193648157
4.92334,5.993771365641934,0.14437618989282344
4.925724000000001,6.003132138925829,0.14403432482274167
4.928127999999999,6.016636883329418,0.14360353900010822
4.930516000000001,6.032143728479425,0.14313371975041947
4.932896,6.040620558031785,0.14275996699441437
4.9352920000000005,6.037364322359365,0.14260541034675134
4.93768,6.036854361538037,0.14245488275641466
4.940064,6.034714387022628,0.14236567131908784
4.9424600000000005,6.035647448440276,0.14221454057963423
4.944844,6.036487962059307,0.14202422308440268
4.947224,6.039190806797894,0.14180238767099257
4.949628000000001,6.036538975603289,0.14170069107132266
4.952016,6.033794596610067,0.1415601620998748
4.9544,6.028164173138893,0.14142407552931388
4.956796000000001,6.0152241948163505,0.14139193210886875
4.9591840000000005,6.001353050934031,0.1413744922315479
4.961563999999999,5.989344238171269,0.1413283570616725
4.96396,5.984412662834395,0.1411474889631033
4.966348,5.9806917923110205,0.14093449894600554
4.9687280000000005,5.97920533995954,0.14071334780285502
4.971124,5.980325392832292,0.140505443841613
4.973512,5.98060682794388,0.1403511315564625
4.9758960000000005,5.979445240816495,0.14019950487692867
4.978292,5.977259940330713,0.14002292346009915
4.98068,5.9776811450691625,0.1398598624178328
4.98306,5.981267933539285,0.13967186721265062
4.98546,5.983691239024152,0.13946885403915493
4.987848,5.989514341524037,0.13914016431704734
4.990232000000001,5.986817184359058,0.13894897326000893
4.992635999999999,5.979649294992421,0.13890843983833465
4.995024000000001,5.975926528611178,0.1388283564524617
4.997408,5.974485402230071,0.13869225546000805
4.999803999999999,5.969040074356132,0.1386321532166536
5.002196,5.960614258347752,0.13867265529277586
5.004576,5.95744867461608,0.1386944549660892
5.006971999999999,5.960521710549134,0.1386330229825523
5.009364,5.960941019429715,0.13860586355375198
5.011744,5.963130111631235,0.13851260141114174
5.014144,5.9655515212582335,0.13845000829618453
5.016532,5.970207349057126,0.13838175080555495
5.018912,5.9762136512963755,0.13827344665368782
5.021312,5.983198340923646,0.13810324607348223
5.0237,5.990974426483837,0.13792990177141756
5.02608,6.001729104320597,0.13779570818572714
5.028476,6.019281480329524,0.13755433254665433
5.0308600000000006,6.047775525630314,0.1371304374360422
5.0332360000000005,6.075198635744466,0.13672976387936978
5.035632,6.096428452164266,0.1364893736833778
5.03802,6.12575921936835,0.1361498442880701
5.040412,6.160304892878763,0.1357052247871868
5.042816,6.1946182489637005,0.13523687279223712
5.0452,6.230561618742716,0.13471932614159568
5.04758,6.271300585947486,0.13413151273822915
5.049975999999999,6.31497281945845,0.13349789786105482
5.05236,6.360694375544072,0.13278977359137834
5.054740000000001,6.402458951965105,0.1321143871905088
5.057136,6.447156794692334,0.13139593262978164
5.059519999999999,6.483147386299595,0.13086002338024097
5.0619,6.518486351600798,0.13032129438691772
5.064304,6.551451129103246,0.1297951397580207
5.066692,6.583484741045916,0.12928238793180355
5.069084,6.6172409144812825,0.12875811488254552
5.071488,6.648203591237313,0.12827183474167259
5.073876,6.675628597209334,0.12778361926961332
5.076256000000001,6.696954753143488,0.12735996927066112
5.078647999999999,6.710040188666497,0.12703734320927362
5.081035999999999,6.724336329003004,0.12668911781322245
5.083416,6.742544123033728,0.126244157496909
5.08582,6.755444462959502,0.12585233893379694
5.088203999999999,6.768764111765858,0.12543946653615975
5.090584,6.780453746878133,0.12507762518418136
5.092988,6.7869284756840775,0.12480101515648659
5.095376,6.788095750385072,0.12457413640592935
5.097756,6.787820002847089,0.12434641092612421
5.100152,6.78647332012247,0.1241380286121274
5.102539999999999,6.782565458143992,0.12398838114857545
5.10492,6.777494113180259,0.1238217334832185
5.107315999999999,6.77125928523127,0.12363690507609416
5.1097,6.7654437661628615,0.12342898695571396
5.112095999999999,6.762841052654367,0.12316721142105115
5.1145,6.759866252093537,0.12288510422158135
5.116884000000001,6.756519364480368,0.1225841291384177
5.119268,6.755174577613618,0.12225538496557009
5.121672,6.752339546679647,0.12196602866474884
5.124056,6.7461519405589,0.12173630260706106
5.126436,6.737822464064878,0.121541578933189
5.128831999999999,6.729632757197713,0.12133924849593834
5.131216,6.7202323455170525,0.12116205838918892
5.133596000000001,6.712834034582808,0.1209565112282164
5.135999999999999,6.703433622902145,0.12077842041755242
5.138387999999999,6.692590188982508,0.12059739550871797
5.140768,6.6849595606227865,0.12036256697758717
5.1431640000000005,6.682776155994873,0.12007477678357477
5.145552,6.679382046553461,0.11981203748491685
5.147931999999999,6.673985836365634,0.11957693904461018
5.150335999999999,6.669008935058386,0.1193178924204402
5.15272,6.661982711176479,0.11912979310795227
5.155099999999999,6.659193006212883,0.1189136207340655
5.157503999999999,6.655052826808928,0.11873034380660732
5.1598880000000005,6.649701942591473,0.1185727338643747
5.162267999999999,6.646585476545913,0.11841603457871488
5.164664,6.642909931992912,0.11828985401734243
5.167047999999999,6.637372056320355,0.11818291163941169
5.1694320000000005,6.632905115834435,0.11805843638170166
5.171828,6.634304707960907,0.11786003426834439
5.174216,6.639568731953352,0.11761453200814159
5.176596,6.642690885572518,0.11740409685106909
5.178991999999999,6.645673269564827,0.11720148275601847
5.181380000000001,6.648236344676555,0.11702181532603478
5.183764,6.6525219812809775,0.11683070396693862
5.186159999999999,6.662534380870931,0.11657620474175713
5.188544,6.673058637140083,0.11633577031193794
5.190924000000001,6.6815807926628175,0.11612377129219315
5.193315999999999,6.689963178558691,0.11591855471772969
5.195703999999999,6.699928356320401,0.11570991636747185
5.198084,6.713478426694364,0.11547209713840223
5.200480000000001,6.726376870762269,0.11522671107144312
5.2028680000000005,6.739554854083894,0.11496781954502977
5.205247999999999,6.755526334084855,0.11468209753221366
5.207644,6.769355943712538,0.11443019197904125
5.210032,6.782533927034165,0.11417462386569459
5.2124120000000005,6.793849579236234,0.11393765240542254
5.214808,6.807818958490778,0.11368191535902568
5.217196,6.8264441655442125,0.11338342103888482
5.219576,6.841856567037733,0.11313453725912619
5.221971999999999,6.855127098157976,0.11291847444310867
5.224360000000001,6.870259960397776,0.11268505832145297
5.22674,6.885253053010716,0.1124591511455695
5.229156,6.902527785623793,0.11219550623016318
5.231540000000001,6.920873453423508,0.11191838999463154
5.23392,6.9322816534241944,0.1117244746337342
5.236316,6.94490055823838,0.11150924077423686
5.238704,6.957799002306285,0.11128132081881169
5.241084000000001,6.973118856001187,0.11100887959764587
5.24348,6.989649414509588,0.11071603450966683
5.245868,7.006319742644852,0.11041915080442335
5.248248,7.028856603392505,0.11006115899755228
5.250643999999999,7.0521848600730745,0.10970515436805
5.253031999999999,7.073650785634088,0.10936713221552023
5.255412,7.098049977501297,0.1089993288790236
5.257828,7.122449169368506,0.10863424978083837
5.260216,7.148570922728411,0.1082606718425708
5.262596,7.172970114595621,0.1078982886408558
5.265008,7.192853248290798,0.10757056318181415
5.267396,7.2171598923593905,0.10718044634069901
5.269792000000001,7.243748176428119,0.10675569269283078
5.272183999999999,7.266472028630876,0.10636688862816222
5.274571999999999,7.289335650460491,0.1059715713794373
5.276952,7.310988567476608,0.10560066803629706
5.279356,7.329847987813391,0.10525385434412865
5.281739999999999,7.352571840016147,0.10486939148015811
5.284115999999999,7.375435461845763,0.1044825213179862
5.286512,7.394946508488604,0.10414434349892628
5.288895999999999,7.412967311064223,0.10384178165994054
5.291276,7.427263451400732,0.10356901595894204
5.293671999999999,7.439697260617684,0.10331224011685246
5.296056,7.446683846102824,0.1030928825136527
5.298436000000001,7.450085538975712,0.10289532459528754
5.300836,7.451764670355905,0.10270484642701616
5.303224,7.45092984431048,0.10252255095461692
5.305604000000001,7.445951047145363,0.10238762864326376
5.308016,7.438598062181492,0.10225363344212265
5.310404,7.434318113150677,0.10208595704951456
5.3127960000000005,7.4340423656126955,0.10187840646629168
5.315199999999999,7.42962264695502,0.10171784776226912
5.317588000000001,7.423992223483845,0.10157702329270923
5.319967999999999,7.422645540759224,0.101383336661354
5.322372,7.421438627661464,0.10118324023894434
5.324756000000001,7.416367282697731,0.10101572909707772
5.327135999999999,7.411156168107137,0.10085436059224545
5.329532,7.406084823143403,0.10068677268077003
5.331916,7.397940442246614,0.10055180265478075
5.334296,7.391937931723102,0.10039055506933602
5.336691999999999,7.387006356386228,0.10021643064087009
5.339076,7.382726407355412,0.10004819150215967
5.341472,7.377235753511097,0.09989932825719487
5.343864,7.37211718671912,0.09976951516424303
5.346247999999999,7.369512577352758,0.09963283472215616
5.348628,7.3715637957852875,0.09946363673132878
5.351032,7.37719990683007,0.09927579319310693
5.353415999999999,7.387911154554324,0.09903593895529376
5.3558,7.403929856383528,0.09877190507777563
5.3582,7.4147336519064,0.09856662421662665
5.360588,7.420043001869218,0.0984320656912853
5.362968,7.427866309257653,0.09829166937079234
5.365372000000001,7.436760551832726,0.09813914059079007
5.367756,7.446958047019913,0.09800118191205687
5.3701360000000005,7.461159743699933,0.09782810808829208
5.372532,7.481507512246066,0.09759434798396188
5.374916000000001,7.506650878217949,0.09732651986792049
5.377312,7.532725409749612,0.09705539189205518
5.379716,7.557868775721495,0.09678909855244722
5.382104,7.585154012066656,0.0965007052333782
5.3844840000000005,7.613510183598456,0.09620282189756758
5.38688,7.64479962143645,0.09588231832355656
5.389264000000001,7.678230929647722,0.09553855564390419
5.391643999999999,7.717016913792188,0.09513849267034584
5.394048,7.753009401257316,0.09475480071429504
5.396431999999999,7.786068622416251,0.09439740233291945
5.398812,7.812330145403017,0.09409162465785066
5.401216,7.837800272456865,0.09378825731042813
5.403604,7.857823175778901,0.09351352895388385
5.405984,7.8798481798473565,0.0932209972352191
5.408379999999999,7.90350319760989,0.09289110254301375
5.410764,7.92506356682739,0.09254851986872199
5.413143999999999,7.947415331977808,0.0922089389994204
5.415547999999999,7.966182204515974,0.09188623123291641
5.417932,7.974938573322055,0.09164715254367523
5.420316,7.976477935075386,0.09147580635237094
5.422712000000001,7.973361469029825,0.09133169561168335
5.425096,7.9646580096255954,0.09121894535237544
5.427476,7.957816881340921,0.09109538104521672
5.429880000000001,7.951115522683109,0.09096602335704745
5.4322680000000005,7.940829271413044,0.09085110217158511
5.4346440000000005,7.928029062717363,0.09073938327710533
5.43704,7.912575126969206,0.09063646993726221
5.439424000000001,7.890323493048882,0.09057991664263224
5.441803999999999,7.871564203942195,0.09047803472822352
5.4442,7.85122212296967,0.09037371199494233
5.446584,7.837957279423033,0.09021044880710517
5.448964,7.822690335129982,0.09006257762010073
5.451359999999999,7.80742339083693,0.08991402990051263
5.453744,7.791365050610959,0.08976409059532348
5.456123999999999,7.774375544825211,0.08961824304250247
5.458539999999999,7.75817743497238,0.0894727074064009
5.460924,7.737603036574378,0.08933896401354541
5.463303999999999,7.718379112616735,0.08918184871040728
5.4657160000000005,7.70730336127162,0.08895558581939997
5.468104,7.700371581046198,0.08869097626942024
5.470483999999999,7.694510736007415,0.08841521744916804
5.472887999999999,7.69637875470058,0.08808915439399945
5.475272,7.702390744513439,0.08772835031793948
5.477651999999999,7.704398532833465,0.0873987499516729
5.480048,7.7101309833926015,0.08705112249672062
5.482431999999999,7.7195880961908525,0.08668680459617167
5.484812,7.7306280008549395,0.08632477439746325
5.487208000000001,7.746603272571639,0.08592874975132873
5.489596000000001,7.762159235407759,0.08555280159368892
5.491975999999999,7.778506594176795,0.08517761853104804
5.494372,7.786705780333306,0.08486682340629838
5.49676,7.7970468368630925,0.08453621635740292
5.499140000000001,7.811112555631992,0.08418875747877484
5.501536,7.826109439960669,0.08383714548952126
5.503919999999999,7.8446912169016,0.08347508682187332
5.5063,7.863272993842532,0.08311424813397338
5.508716,7.8834375626493,0.0827553249206598
5.511099999999999,7.902391426642568,0.08241312853951073
5.51348,7.919203420262559,0.08209316253903397
5.515896,7.9370863490691885,0.08176464142080513
5.518280000000001,7.952687637875682,0.08146143160982706
5.52066,7.962142854816063,0.08120729176414775
5.523052,7.964800373584277,0.08099365685733888
5.52544,7.9671783530987685,0.0807906901130966
5.52782,7.966483296680207,0.0806116722802592
5.530215999999999,7.957919606902837,0.08048139067328688
5.532603999999999,7.9505666219389655,0.08033556812182614
5.534988,7.937998730668762,0.08023212669528353
5.5374,7.923568508279002,0.08013612165956535
5.539783999999999,7.906856645889104,0.08006507392696542
5.542168,7.899363891298374,0.07992386642895186
5.544568,7.891451827827062,0.0798001117759105
5.546956,7.8816774332361925,0.07968397050970608
5.549336,7.871111642712406,0.07956547093399967
5.551740000000001,7.8596146866288406,0.07945070367699143
5.554124,7.846627486478058,0.07936232182903957
5.556504,7.836573552633468,0.07925708649454931
5.558908000000001,7.827450784348658,0.07914792904731667
5.561292,7.8181882464369865,0.07904433959839967
5.563672,7.807854773338677,0.07894984009904911
