Time,Force,Position
5.5511040000000005,0.2447372081863226,0.0
5.553488,0.23924276262626976,0.0
5.555872000000001,0.2277420148269663,0.0
5.558263999999999,0.21356595000332046,0.0
5.5606480000000005,0.19659638850033956,0.0
5.563044,0.18134938849005516,0.0
5.565448,0.16596261885291053,0.0
5.567836,0.15364888514882125,0.0
5.570212,0.14040398588495367,0.0
5.572608000000001,0.12823002180772464,0.0
5.574992,0.11326256105116066,0.0
5.577372,0.10108859697393165,0.0
5.579764000000001,0.08705230177714597,0.0
5.582148,0.07394717214013861,0.0
5.584543999999999,0.06163343843604937,0.0
5.58694,0.049179935105099916,0.0
5.589324,0.03779736696078899,0.0
5.591704,0.029348065122673243,0.0
5.594099999999999,0.019036432165000852,0.0
5.596484,0.012729000700162156,0.0
5.598879999999999,0.006701108489043887,0.0
5.601276,0.0008129859047858267,0.0
5.60366,0.0,0.0
5.606044000000001,0.0,0.0
5.608447999999999,0.0,0.0
5.610832,0.0,0.0
5.613212000000001,0.0,0.0
5.615608,0.0,0.0
5.617991999999999,0.0,0.0
5.620388,0.0,0.0
5.6227920000000005,0.0,0.0
5.62518,0.0,0.0
5.627560000000001,0.0,0.0
5.629963999999999,0.0,0.0
5.632348,0.0,0.0
5.634728000000001,0.0,0.0
5.637131999999999,0.0,0.0
5.639516,0.0,0.0
5.641896000000001,0.0,0.0
5.644292,0.0,0.0
5.646675999999999,0.0,0.0
5.649056,0.0,0.0
5.651452000000001,0.0,0.0
5.653836,0.0,0.0
5.656216000000001,0.0,0.0
5.658620000000001,0.0,0.0
5.661004,0.0,0.0
5.663384000000001,0.0,0.0
5.665787999999999,0.0,0.0
5.668176000000001,0.0017913732928072981,0.0
5.670552000000001,0.001791373292807298,0.0
5.672955999999999,0.001791373292807298,0.0
5.675344000000001,0.0017913732928072981,0.0
5.677724,0.0017913732928072981,0.0
5.680128,0.0017913732928072981,0.0
5.682512000000001,0.0017913732928072981,0.0
5.684892,0.0017913732928072981,0.0
5.687288000000001,0.0017913732928072981,0.0
5.689672,0.0017913732928072981,0.0
5.692068000000001,0.0017913732928072981,0.0
5.694464,0.0017913732928072981,0.0
5.696852,0.0017913732928072981,0.0
5.699232,0.0017913732928072981,0.0
5.701628,0.0017913732928072981,0.0
5.7040120000000005,0.0017913732928072983,0.0
5.706391999999999,0.0017913732928072983,0.0
5.708788,0.0017913732928072983,0.0
5.711176,0.0017913732928072983,0.0
5.713571999999999,0.0017913732928072983,0.0
5.715968,0.0,0.0
5.718351999999999,0.0021634603451447776,0.0
5.720732,0.006329021436706406,0.0
5.723128000000001,0.011425748088046354,0.0
5.725512,0.020666445859080215,0.0
5.727907999999999,0.029115747697195965,0.0
5.730304,0.037565049535311715,0.0
5.732688,0.048016452119844316,0.0
5.735064,0.05874739395809734,0.0
5.73746,0.06640529986329498,0.0
5.739848,0.07099016983543724,0.0
5.742240000000001,0.07743737092713615,0.0
5.744643999999999,0.085235046459194,0.0
5.747032000000001,0.09317249161811206,0.0
5.749412,0.1009701671501699,0.0
5.751816,0.10797644674930963,0.0
5.754200000000001,0.12084925896083971,0.0
5.75658,0.13372207117236978,0.0
5.758984,0.1428702211447866,0.0
5.761367999999999,0.15215814074406364,0.0
5.763748,0.15758162847736712,0.0
5.766152,0.15991049030574753,0.0
5.768535999999999,0.15730398508151594,0.0
5.770916,0.1526953791108675,0.0
5.77332,0.14345468133983363,0.0
5.775708,0.13500537950171787,0.0
5.778088,0.12655607766360213,0.0
5.780480000000001,0.11610467507906956,0.0
5.782868000000001,0.10537373324081654,0.0
5.785247999999999,0.09913511357608872,0.0
5.787652,0.09811140021769332,0.0
5.790039999999999,0.09229208943354614,0.0
5.79242,0.0852620738359002,0.0
5.794824,0.07902345417117237,0.0
5.797212,0.07264506487958435,0.0
5.7995920000000005,0.06770969782697231,0.0
5.801988,0.0549056974155531,0.0
5.804372000000001,0.042032885204023034,0.0
5.806752,0.03288473523160622,0.0
5.809156,0.02359681563232921,0.0
5.811544,0.018173327899025683,0.0
5.813924,0.013982134951088621,0.0
5.816328,0.01365537386912505,0.0
5.818716,0.0142597783469398,0.0
5.821096000000001,0.014281368318807516,0.0
5.823492,0.014281368318807516,0.0
5.82588,0.014281368318807516,0.0
5.82826,0.014281368318807516,0.0
5.830652000000001,0.014281368318807516,0.0
5.833036,0.0128620820783377,0.0
5.835416,0.00930092546459082,0.0
5.837812,0.01027741699474305,0.0
5.840199999999999,0.010834599644314649,0.0
5.842592,0.010320847107247717,0.0
5.844988000000001,0.012088734570318053,0.0
5.847376000000001,0.015067326846887134,0.0
5.8497520000000005,0.02228243804176718,0.0
5.852148,0.03631683738068361,0.0
5.854536,0.05146749787661248,0.0
5.856928,0.06745488027583336,0.0
5.859324000000001,0.08930689942957536,0.0
5.861712000000001,0.12002777947078296,0.0
5.864091999999999,0.16015096705052156,0.007682824147339031
5.866496,0.2145192814227862,0.014721772166586124
5.868880000000001,0.2803392259082419,0.021618833604213405
5.871264,0.3554905201054792,0.028502493815844507
5.873656,0.43631945960213425,0.035728521146671195
5.876044,0.5306946777570142,0.04275966796592442
5.878424000000001,0.6339603467712275,0.04984716377262463
5.88082,0.7456046099655763,0.056948871081864395
5.883203999999999,0.862694201033866,0.06419840126301196
5.8856,0.9813430981382546,0.07172821108864166
5.887995999999999,1.1091619853556969,0.07926874986669948
5.890383999999999,1.246150862686193,0.08679863213657191
5.892764,1.3897957727041286,0.09427646684372891
5.895168,1.5343699524239731,0.10193272828188224
5.897551999999999,1.681363645912946,0.10969533202868169
5.899932,1.8264005646258756,0.11754039970879054
5.902336,1.9780954118841139,0.1252664143128907
5.904724,2.134633078396347,0.13288811296087372
5.907104,2.287959835206534,0.14044234762607088
5.909508000000001,2.4296951922766694,0.148116176348759
5.9118960000000005,2.5592347451289394,0.1481646737990922
5.914275999999999,2.672666840069126,0.14893237099534717
5.91668,2.7769289448962593,0.14977942835160143
5.919067999999999,2.8710898940505603,0.1506528037628631
5.921443999999999,2.961854837905581,0.15107682155497748
5.923848,3.037630480863401,0.15170422470160783
5.926235999999999,3.1029328810960517,0.15230042310648242
5.928616,3.1601362264022868,0.152849449490779
5.93102,3.21883171163361,0.153008471105309
5.933404,3.2788795671631616,0.15277304941334233
5.9357880000000005,3.3298972022065194,0.15254204207761407
5.938192000000001,3.3701620552709874,0.1523576500711371
5.940576,3.4017687749016,0.1522253056273756
5.942956000000001,3.4312355200168034,0.15191935814635593
5.945352,3.4591213691240403,0.15140108527915605
5.94774,3.4855660918501705,0.15066869926848964
5.95012,3.5035849985679226,0.15004987267735337
5.9525120000000005,3.5169952993150257,0.14949724631332667
5.9549,3.526121859315575,0.1491088430910834
5.957276,3.5407428648761767,0.14850083788026952
5.9596800000000005,3.558995984877275,0.14772683106222548
5.962068,3.5768770178260363,0.1469026267799844
5.964448000000001,3.5923366411477997,0.14619288863869126
5.966851999999999,3.612963948947652,0.14538493199729766
5.969236,3.6341031134267023,0.14461800267782027
5.971615999999999,3.6557541345849502,0.14386434274806215
5.974019999999999,3.6779170124223954,0.14312156006510765
5.9764040000000005,3.6983101069389015,0.14249071399475138
5.978783999999999,3.7074819929098246,0.14225329729637845
5.981188,3.714419460708853,0.14203913297844267
5.983575999999999,3.7211246110824048,0.1417753978732006
5.985956,3.726898595896178,0.14153156310024742
5.98836,3.729459775150036,0.14140509524068612
5.990743999999999,3.7364444647773083,0.14110936078171477
5.993124,3.73756262179219,0.14099058214432786
5.995528,3.7289498143287076,0.14116235297769428
5.997912,3.7171242013053107,0.14146055594590565
6.000292,3.701806243468277,0.14191585631700643
6.002696,3.689049464885101,0.14224657185002743
6.005084,3.672568024062812,0.14267281632874387
6.007464000000001,3.6512437639865274,0.14332520392019424
6.009855999999999,3.631874382828417,0.14400214698095018
6.012244000000001,3.613156627976364,0.14469378093246196
6.014624,3.5874088575266647,0.14554438092455294
6.017028,3.5577041074123756,0.14643680904775697
6.019416,3.5262767958053898,0.147383700219892
6.021796,3.499645081624156,0.14817078317405924
6.0242,3.4754347770699194,0.14884881641823516
6.026584,3.456718918075736,0.1493124148142232
6.028964,3.431996756842302,0.14998694236284923
6.0313680000000005,3.4085778482209834,0.1506653801134883
6.033756,3.3903266240777543,0.15123190934485514
6.036132,3.3790128677335542,0.15156539066605274
6.038536000000001,3.3614132698963832,0.15212461923823273
6.040924,3.3518220750448795,0.15240920691190246
6.043304000000001,3.353265097283855,0.15240405094119713
6.0457,3.362297213627918,0.15217809982716013
6.048083999999999,3.3751012140393373,0.15176453390946942
6.050464,3.387393357771559,0.15133469168411928
6.052868,3.39954573187692,0.15091834718681674
6.055256,3.4166334730348935,0.15033725728298178
6.0576360000000005,3.435211458260086,0.14966883216303675
6.060040000000001,3.4586322627392736,0.14878740080940508
6.062428000000001,3.486848664644213,0.14776156143465716
6.064807999999999,3.5167404062136054,0.14678003055430017
6.067208000000001,3.550589127447589,0.14573485855869084
6.069592,3.5819238912559572,0.14476524614473427
6.071975999999999,3.610744697638711,0.1438402222857772
6.074372,3.6382150295811067,0.14299209356436496
6.07676,3.671132585255311,0.1419957242688427
6.079140000000001,3.7020480401830995,0.14106441334427328
6.081543999999999,3.730729076938993,0.1401618386529856
6.083932000000001,3.755033825149715,0.1393685439256355
6.086312,3.781108356681378,0.13845938948629477
6.088716,3.798755176346792,0.13785826301514806
6.091100000000001,3.8098838370937584,0.137431334872333
6.09348,3.8131438644819173,0.13723694607276044
6.0958760000000005,3.8170555181761343,0.1370512569405569
6.098264,3.8214790285495477,0.13688727865974637
6.100644000000001,3.8276251004156583,0.13669211090645805
6.10304,3.8331195459757113,0.13649408334429974
6.105428,3.8386139915357638,0.13629824382699676
6.107808,3.8370311996699282,0.13631387941110534
6.110204,3.835168868550371,0.1363566469081616
6.112591999999999,3.8340053855651157,0.13633002580633968
6.114972,3.832097728475185,0.13623559553171416
6.117368000000001,3.828187970638837,0.1361965471312969
6.119752,3.8278631054147434,0.13608771728297692
6.122135999999999,3.8298198801907866,0.13589759068789187
6.124532,3.8324755031011306,0.13564309419228932
6.12692,3.8363418308249733,0.1353408509373498
6.129315999999999,3.8431414248550113,0.13497020867512807
6.131716000000001,3.8518033500046056,0.1345619175100912
6.134104000000001,3.8586954918332608,0.13425223164738928
6.136483999999999,3.8698713744084694,0.13380695678754176
6.13888,3.8838407536630135,0.13330017600662478
6.141268,3.9042357440373894,0.13258712678839854
6.143648000000001,3.921417928851849,0.131976931903196
6.146051999999999,3.9376689481065297,0.13138912815334214
6.148440000000001,3.9540597369880714,0.1307931497226914
6.15082,3.9700312169890326,0.13024214205769963
6.153224,3.9867940929229118,0.12969188666458542
6.155608000000001,4.008212796655682,0.129042433909234
6.157988,4.025627298895619,0.1284955180819042
6.1603840000000005,4.043693427441614,0.12796345373351703
6.162772,4.061060707853308,0.12749890770821243
6.165152000000001,4.080941945690616,0.1270055080658304
6.167552000000001,4.099472709087566,0.12657488899123615
6.169936,4.116792767671016,0.12619509088434847
6.172319999999999,4.133274208493305,0.1258987679492461
6.174716,4.155482412301125,0.12549572381291668
6.177104,4.176851998347782,0.12517659652407997
6.179484,4.200456002566336,0.12486358582714972
6.18188,4.22885560421064,0.12445864609980625
6.184267999999999,4.2591175369745,0.12403089150229443
6.186648,4.289379469738361,0.12360719154203806
6.189052,4.323226295114474,0.12315372473931353
6.19144,4.361217091610283,0.12260753593945863
6.1938200000000005,4.400930449598787,0.12204594218418593
6.196216,4.442226599453127,0.12148690685635506
6.198604,4.483942058188048,0.12090015656957459
6.200984,4.5228640202436345,0.12036053240839863
6.203384,4.56164621267236,0.11984032880452117
6.205768000000001,4.602570275474364,0.1192612000113007
6.208152,4.641632007156812,0.11871643489054723
6.2105440000000005,4.6828356092125345,0.11812494322726723
6.212932,4.721385484215783,0.11756728790779153
6.215328,4.758492336980055,0.11700430249601285
6.217732,4.7937368586247695,0.11647036050458907
6.22012,4.825396487657232,0.11598054440094273
6.2225,4.845974677770973,0.11571640519065828
6.224895999999999,4.862595888220123,0.11546963280803275
6.22728,4.8720473134447655,0.11531501070581505
6.229664,4.87647082381818,0.115203562060271
6.232060000000001,4.877309441579341,0.11513836787700266
6.234448,4.876425497847808,0.11509029565554096
6.236827999999999,4.8678126903843255,0.11517360265240698
6.239224,4.8576170910550065,0.11525994825587342
6.241612,4.844116138367156,0.115367697223211
6.243992,4.824236796387716,0.11556005449704834
6.246388,4.802215584034999,0.11579962468110304
6.248775999999999,4.782476011682421,0.11597883295508743
6.2511600000000005,4.7592913163444495,0.11619027132609556
6.253556,4.738388261006615,0.11633974676405141
6.255944,4.716833579362723,0.11648110681077217
6.2583400000000005,4.694487501785913,0.11662081059265188
6.260736,4.674423064209239,0.1167017449102552
6.263124,4.658362828125399,0.11670800274695066
6.265504,4.643653066481918,0.11666984096115111
6.267904,4.631364714465436,0.1165646417296567
6.270288000000001,4.624990116889586,0.11630056520597683
6.272668,4.618475749686876,0.11604552213840265
6.275072,4.617036519163639,0.11569178032851835
6.27746,4.619182181252654,0.11529708209536549
6.27984,4.620117138528171,0.11493467514944308
6.282235999999999,4.623193966176966,0.11452544392340858
6.284624000000001,4.627481498639258,0.11407930383789223
6.287004,4.6288357647953555,0.11368314399006323
6.2894000000000005,4.63805866431026,0.11315821234399676
6.291788,4.652496470131497,0.11252446318823331
6.294168000000001,4.668284750393092,0.11184586055578931
6.296564,4.680860225094773,0.11123736694907196
6.298947999999999,4.6937152390501735,0.11060302579156597
6.301344,4.703776756326239,0.11001105945527631
6.30374,4.711696403229029,0.10946105142938654
6.306127999999999,4.716822553452483,0.10894916139845004
6.308508,4.716733797369604,0.10854132782691242
6.310912,4.71357200535367,0.10819530899545417
6.313295999999999,4.70705763815096,0.10792833183530255
6.31568,4.696678839082277,0.10772101408097073
6.318076,4.686811896692792,0.10753243990853537
6.320460000000001,4.677596580609364,0.10735262897987993
6.322839999999999,4.666099624525799,0.10722982352698568
6.325236,4.651529632509178,0.10716530894041736
6.327628000000001,4.638961741238974,0.10706518282910789
6.330007999999999,4.621970339595358,0.10706978622640892
6.332404,4.606841269071297,0.1070478091329727
6.334792,4.593155220786212,0.10703383438786081
6.337184000000001,4.570250064701961,0.10719322721734771
6.339588000000001,4.545575125296769,0.10742746867802438
6.341972,4.521551812197637,0.10766734280325399
6.344352000000001,4.502324096524254,0.10783466899642612
6.346755999999999,4.487332899769186,0.10797223885622934
6.34914,4.470851458946895,0.10816579556362503
6.351520000000001,4.45702374517708,0.10833666128484841
6.353923999999999,4.446501384765798,0.10849106497348378
6.356312000000001,4.440914391407128,0.10856440685527115
6.358692,4.432114592488544,0.10870883155020605
6.361096,4.428250160622569,0.10876959110669299
6.363479999999999,4.4315555139811025,0.10875280541350967
6.36586,4.429366421779583,0.10886468458589332
6.368256000000001,4.431321300697757,0.10889307327798335
6.37064,4.436349215548985,0.10886255569694142
6.373023999999999,4.441377130400214,0.1088316329767206
6.37542,4.448267376371,0.10877673066884384
6.377803999999999,4.45944136308834,0.10862757994921893
6.380184,4.468333709805543,0.10853648102525759
6.382580000000001,4.478436761336244,0.10841157297292174
6.384968000000001,4.492544014359778,0.10821369098473527
6.387359999999999,4.511214547383588,0.10790547353399516
6.389756,4.526672274847483,0.1076653189326536
6.392144,4.538265570445404,0.10748699519565681
6.3945240000000005,4.5444116423115135,0.10737094493199895
6.396928000000001,4.556703786043734,0.10714104406905207
6.399316000000001,4.571277569776093,0.10685713327800571
6.401692000000001,4.586550201642754,0.10652521215560523
6.404095999999999,4.603824934255831,0.10616553604362833
6.406484000000001,4.624592011682543,0.10571550257570139
6.408864,4.644288153922617,0.10529216345984871
6.41126,4.657466137244244,0.10494919362862037
6.413644,4.677209501312561,0.10446171283514537
6.416024,4.694019599074682,0.1040244276744751
6.418431999999999,4.708827596090388,0.10362360994215548
6.420816,4.724706528292732,0.1032006647873128
6.4232,4.735789863069323,0.10284269873462029
6.4255960000000005,4.746733428219056,0.10249802968203203
6.427984,4.760889798928703,0.10209125948266892
6.430364000000001,4.778258975198266,0.10163010621450501
6.432767999999999,4.792694885161635,0.10120999353133243
6.435155999999999,4.798051456952696,0.10093523323982474
6.43754,4.807971308744033,0.1005582569137203
6.43994,4.81803093016223,0.1001694977280029
6.442328,4.832094753073259,0.09971763452793583
6.444708,4.8421543744914555,0.09933344588092007
6.447108,4.852353765536512,0.09894469401560894
6.449491999999999,4.855056610275101,0.09869394210920283
6.451872,4.855897123894131,0.09846543543786125
6.454268000000001,4.859391364565635,0.09821981331628607
6.456656000000001,4.862653287811665,0.09793597708470306
6.45904,4.870850578110304,0.09758508925272198
6.461436000000001,4.8809101995285005,0.09722242979558772
6.463824000000001,4.892180525760196,0.09683363889291122
6.466203999999999,4.9035906216187515,0.09643625141624423
6.468608,4.917002818223724,0.09601458218212948
6.470992000000001,4.937352482627725,0.09550530733007957
6.473372,4.959844017405004,0.09496732680304222
6.47578,4.981404386622505,0.09444409026863787
6.478164,4.995747748787254,0.09402820524992836
6.480544,5.015026478004617,0.09355450031186789
6.482939999999999,5.042173840580787,0.09298466515392201
6.485328000000001,5.063826757596904,0.09251196695724082
6.487708,5.085200135359301,0.09205549958196776
6.490112,5.104943499427619,0.09165557079570856
6.4925,5.126549194615493,0.09124234435774112
6.49488,5.148806516109425,0.09084689469279382
6.497275999999999,5.180143175775662,0.09033167690450926
6.499663999999999,5.210129361001541,0.08985410872155027
6.502044,5.235831805480865,0.08944739881851071
6.504440000000001,5.260695632199028,0.08909753788762359
6.5068280000000005,5.2854196892903325,0.08876224007248867
6.509207999999999,5.304137444142384,0.08850241616656208
6.511608000000001,5.3205735589943,0.08828545622075708
6.513992,5.335659199405857,0.0881024888752243
6.516375999999999,5.348742739070996,0.08794507917022093
6.518772,5.357822077243302,0.08783676647697593
6.52116,5.360615573922638,0.08781537458149902
6.523555999999999,5.360196265042057,0.08784176939766566
6.525952,5.361779056907893,0.0878450006271262
6.52834,5.3564243809747,0.08792576646337925
6.5307200000000005,5.347065503548674,0.08805230694296598
6.533116,5.343992467615619,0.08809146602836153
6.535504,5.342269906122921,0.08809695528017042
6.537884,5.341897819070584,0.08806877037686982
6.540284,5.335798969032717,0.08809253585785297
6.542668000000001,5.321971255262902,0.08819239470401502
6.545048,5.30656074962725,0.08828499297475732
6.54744,5.29250071843196,0.08834372031985155
6.549828,5.2808620968636655,0.08835352546645016
6.552224000000001,5.269223475295371,0.08836372013927293
6.554627999999999,5.254931126674602,0.08838516792522699
6.557012,5.244503209919807,0.08837007483205231
6.559396,5.239010660217623,0.08830308604536838
6.5618,5.23379764976916,0.08821861281250612
6.564183999999999,5.229515804880474,0.08812732345046151
6.566564,5.226304895178427,0.08802066643669518
6.568968,5.228588431036435,0.08782849044286771
6.571356,5.233153606894579,0.08759619434449623
6.573736,5.2409315883126375,0.08731885032948235
6.5761400000000005,5.254855641596808,0.08696593004015268
6.578528,5.272644126746951,0.0865797004789832
6.580908000000001,5.287499345590899,0.08622608983291147
6.583311999999999,5.305567369994764,0.08583269397668948
6.585699999999999,5.324985868838986,0.08541238139170168
6.58808,5.350410669922461,0.08492892433187195
6.59048,5.38491480917824,0.08434767972035392
