Time,Force,Position
5.329751999999999,0.05298218458679679,0.0
5.332156,0.058666553083881016,0.0
5.334539999999999,0.06463046083468567,0.0
5.336924,0.07059436858549031,0.0
5.339319999999999,0.07734967226921308,0.0
5.341707999999999,0.08196310557965877,0.0
5.344087999999999,0.08550560370346594,0.0
5.346484,0.08783739701377437,0.0
5.348872,0.09002942069722258,0.0
5.351248,0.09049888288797438,0.0
5.353648,0.08974988144350216,0.0
5.356031999999999,0.08699877925261311,0.0
5.358416,0.0822455763153072,0.0
5.360811999999999,0.0745591070718061,0.0
5.363199999999999,0.06915427782844231,0.0
5.365596,0.0637494485850785,0.0
5.367991999999999,0.057413453781936366,0.0
5.370379999999999,0.051077458978794246,0.0
5.37276,0.046603795295208764,0.0
5.375155999999999,0.0430612971714016,0.0
5.377544,0.03751669830117758,0.0
5.379923999999999,0.03183232980409335,0.0
5.382327999999999,0.025868422053288702,0.0
5.384712,0.019904514302484053,0.0
5.387091999999999,0.013149210618761294,0.0
5.389488,0.008535777308315595,0.0
5.391876,0.004993279184508428,0.0
5.394256,0.002661485874200001,0.0
5.396652,0.00046946219075178505,0.0
5.399039999999999,0.0,0.0
5.401436,0.0,0.0
5.403839999999999,0.0,0.0
5.406224,0.0,0.0
5.408604,0.0,0.0
5.411,0.0,0.0
5.413387999999999,0.0,0.0
5.415768,0.0,0.0
5.418172,0.0,0.0
5.42056,0.000888771071332416,0.0
5.422939999999999,0.0008887710713324159,0.0
5.425343999999999,0.003639873262221473,0.0
5.427731999999999,0.00746191063974906,0.0
5.430111999999999,0.011144178390416436,0.0
5.432508,0.016828546887500663,0.0
5.434896,0.023583850571223423,0.0
5.437275999999999,0.03005961500122576,0.0
5.439672,0.03746654499100642,0.0
5.44206,0.046084179794285814,0.0
5.44444,0.056564145717121865,0.0
5.4468440000000005,0.06704411163995791,0.0
5.449232,0.07724453830907352,0.0
5.451608,0.08972660497832642,0.0
5.454011999999999,0.10393123314027573,0.0
5.4564,0.11506282536916967,0.0
5.458779999999999,0.12419231685164676,0.0
5.461183999999999,0.13145947721456722,0.0
5.463568,0.13779547201770934,0.0
5.465947999999999,0.14506263238062977,0.0
5.468344,0.15037008648557926,0.0
5.470727999999999,0.15456421091544434,0.0
5.473108,0.15200303166158663,0.0
5.475512,0.14823114759423023,0.0
5.4779,0.14580973796723276,0.0
5.480279999999999,0.14017552278031972,0.0
5.482676,0.13342021909659693,0.0
5.485059999999999,0.12694445466659462,0.0
5.487439999999999,0.11953752467681394,0.0
5.489844,0.11091988987353454,0.0
5.492232,0.10043992395069849,0.0
5.494612,0.08995995802786245,0.0
5.497007999999999,0.07975953135874682,0.0
5.499392,0.06727746468949394,0.0
5.501788,0.05307283652754463,0.0
5.504192,0.04194124429865068,0.0
5.50658,0.03449191982042412,0.0
5.50896,0.03076725758131083,0.0
5.511364,0.028904926461754184,0.0
5.513752,0.02611142978241922,0.0
5.516131999999999,0.022526537170166155,0.0
5.518528,0.02201468049096846,0.0
5.520916,0.028580061237659854,0.0
5.523296,0.037287312357628305,0.0
5.525699999999999,0.04185059235790285,0.0
5.528088,0.04562247642525928,0.0
5.530467999999999,0.04823380898928813,0.0
5.532864,0.052847242299733824,0.0
5.535252,0.061464877103013224,0.0
5.537635999999999,0.06994274227943241,0.0
5.540039999999999,0.07828083782899138,0.0
5.542427999999999,0.08736310748322532,0.0
5.544808,0.10049490460066686,0.0
5.547203999999999,0.11814086403227057,0.0
5.549591999999999,0.14677192286824153,0.0
5.551971999999999,0.18587622442938204,0.0
5.554368,0.23023593092743166,0.007147007589090017
5.556756,0.27701515119460945,0.014539789318555641
5.559135999999999,0.3278892248953688,0.022365280674133896
5.561532,0.38802583650779904,0.030266810606516967
5.56392,0.4611496482710133,0.03808857917028419
5.5663,0.5434434501472811,0.045739761887923044
5.568695999999999,0.6298793272853739,0.053313214722113145
5.571083999999999,0.7191068052449324,0.0610297955495975
5.573464,0.8238826626091325,0.06856477933150737
5.575868,0.9427638771389985,0.07592620593081514
5.578256,1.0710020732370213,0.0832129296063905
5.580636,1.1975158119844789,0.09076986827974261
5.583031999999999,1.3213267059933491,0.09864652326384055
5.585419999999999,1.4568215475408877,0.10642459792893841
5.587795999999999,1.6074926814407304,0.11393813985580749
5.590195999999999,1.769198032431053,0.12120659758582993
5.59258,1.9253163900627057,0.12865213499809566
5.594963999999999,2.077152902805673,0.13615105126200117
5.59736,2.2172129202113555,0.14366178157710796
5.599748,2.346287838212671,0.151151613472943
5.602128,2.467496018713048,0.15152278664130903
5.604524,2.5880072469369932,0.15155270502902668
5.606912,2.7045633913542173,0.1511067213139004
5.609308,2.8124160763672115,0.1505211459836957
5.611704,2.9083997182443033,0.14994142478425634
5.614091999999999,2.9886952110898926,0.14967869124033548
5.616472,3.060145579046523,0.14960516501764715
5.618867999999999,3.129036663607165,0.14936918982539923
5.621255999999999,3.1828912254423627,0.14943935957021076
5.623635999999999,3.2234318260448127,0.14974674601528343
5.626032,3.254335905825385,0.1502279382277638
5.62842,3.2870569907551404,0.15043263778794824
5.630799999999999,3.3229927771026806,0.15018589243059308
5.6332,3.3445908888590776,0.15012599888010156
5.635584,3.342352678971445,0.15066837729788374
5.637979999999999,3.3226093149031275,0.15168388673171082
5.640376,3.3104097189695225,0.15225817073834944
5.642764,3.298769201543359,0.15276383807374033
5.645147999999999,3.2866168274379977,0.15325214135882595
5.647544,3.2706000214666626,0.15389556649117583
5.649927999999999,3.253232741054969,0.15463886012237893
5.652308,3.228508683963666,0.15572692323436532
5.654703999999999,3.2030857787380613,0.15689846431206267
5.6570920000000005,3.1778951909379343,0.15811437235593498
5.659468,3.1522380724289834,0.159483017328464
5.661876,3.1334711998908187,0.16068605200646904
5.664259999999999,3.119779464032126,0.1616633369506202
5.666639999999999,3.1035737707478184,0.1626983520658374
5.669036,3.091279731157727,0.1634951748764916
5.671424,3.0807554748885755,0.1641528260173192
5.673816,3.0705107578731448,0.16478572849323772
5.676212,3.0598939538053767,0.16537076662037542
5.678599999999999,3.044481552311857,0.16612513101518658
5.68098,3.035727079363645,0.16663067156017214
5.683384,3.0396368371999927,0.16664564320000552
5.685772,3.0495056754473473,0.1664878866942594
5.688151999999999,3.0582563566798204,0.16648703498555187
5.690548,3.0708714697782673,0.16634789250082027
5.692936,3.0837189003021903,0.1662609337106632
5.695316,3.099731914557788,0.16610375380322256
5.697716,3.120540526239136,0.16576015043727046
5.700099999999999,3.149637080159872,0.1650366461186259
5.70248,3.181574352588186,0.1641414453152474
5.704884,3.209135336471329,0.16336154931922772
5.707272,3.2409800611010264,0.1623873666351175
5.709652,3.273383864238164,0.1613627358925807
5.712043999999999,3.3028544010691068,0.1604716987312186
5.714432,3.3376796138332416,0.1593672503820318
5.716828,3.3712941217838783,0.15834689928756826
5.719232,3.39992604085366,0.15757997060837073
5.721615999999999,3.433074018095472,0.15667950287350543
5.724,3.4668736216433436,0.15580119218392793
5.726403999999999,3.50416557000485,0.1547674267969769
5.728788,3.536289833888268,0.15388510395399704
5.731168,3.560685234039738,0.1532698724635333
5.733563999999999,3.586570878258428,0.15256362524221934
5.735951999999999,3.6018416142672187,0.15213473467893368
5.738332,3.613155370611419,0.15178318975418179
5.740736,3.6270303062094764,0.15129879872235377
5.743119999999999,3.645049212927228,0.15066019245718887
5.7455,3.664278824458478,0.14998292112575695
5.747904,3.678480521138499,0.14941697568527543
5.750292,3.6892370948331275,0.14893434355642227
5.7526720000000005,3.705720431513286,0.14828076625922643
5.755068,3.7197823585664467,0.14774798483419282
5.757456,3.7366377822989434,0.1471597840821095
5.759836,3.7506071615534875,0.1465766644186496
5.762231999999999,3.7561960507700265,0.1462161148887864
5.764619999999999,3.759782839240149,0.145916641910325
5.767,3.771937109203379,0.145307260424472
5.769396,3.78027416912888,0.14473736571106896
5.77178,3.784282162337452,0.14418164297945824
5.77416,3.780701061440937,0.14382772226439425
5.776563999999999,3.775489946850343,0.14356745204575513
5.778952,3.7772163000587775,0.14309399735491787
5.781331999999999,3.779641501401514,0.14255437291646142
5.783735999999999,3.7902148753567775,0.1417453401059681
5.786123999999999,3.798227070058183,0.14105550037287692
5.788504,3.8046092510655094,0.14046591257605126
5.790908,3.810060266513058,0.13990948805688969
5.793296,3.809272662295878,0.13948658068916436
5.795672,3.8103473891982556,0.1390194351054449
5.798076,3.8093727935259727,0.13868577887875067
5.800464,3.804254226733996,0.1384856834538779
5.802847999999999,3.7947593713968475,0.13837210847577358
5.805244,3.7766044867679742,0.1384944086357764
5.807627999999999,3.7608237899378554,0.13859230642205111
5.810012,3.7490000727723274,0.1386483440943837
5.812408,3.737688212285996,0.13872782850175006
5.814791999999999,3.7223721503068314,0.13892410441485442
5.817171999999999,3.71050121131306,0.13905189447130104
5.819568,3.7051012094094933,0.13909513845544003
5.821956,3.7048688919840163,0.1390460527034235
5.824335999999999,3.708361236797652,0.13890411240242395
5.826732,3.7077096104915945,0.1388981999783172
5.829115999999999,3.7015635386254835,0.13909333000584176
5.831512,3.691785352318876,0.13944136728484277
5.833916,3.681867396385409,0.13981041958298052
5.836304,3.672228979705662,0.1401503545202823
5.838683999999999,3.658586361533082,0.14061258463585424
5.841087999999999,3.650251197465451,0.1409633047911065
5.843475999999999,3.6392150845171023,0.14144762009701287
5.845856,3.632322942688447,0.14179682454978482
5.8482520000000005,3.629435002352626,0.14202382095480193
5.85064,3.630923350561976,0.14216443398689835
5.853019999999999,3.635996591383579,0.14222370481067179
5.855416,3.643863328884517,0.1422116359883493
5.857804,3.650147274519618,0.14221740034019817
5.860184,3.659923564968356,0.1420782749002611
5.862575999999999,3.6683493809767356,0.14200626300748065
5.864963999999999,3.673981700305779,0.14200799107400178
5.867343999999999,3.6743065655298737,0.1421209269376791
5.869748,3.675842135567467,0.14218162363263043
5.872135999999999,3.680730280791836,0.14211927213918985
5.874516,3.6906935626956763,0.14190752524532982
5.876911999999999,3.704800815719212,0.1415625224734857
5.879296,3.721049939116024,0.141143542339966
5.881679999999999,3.7391613936323926,0.1406739051873445
5.884084,3.757924474454819,0.1402124069176404
5.886467999999999,3.7797605912103007,0.139652292752099
5.888847999999999,3.801224620913445,0.13907532146969495
5.891247999999999,3.8252498298704474,0.13838323757512158
5.893632,3.8487631821482515,0.1376835845258713
5.896016,3.8702744336796395,0.13704740515563688
5.898412,3.892484533345329,0.13634921200585925
5.900796,3.9152537115184582,0.13559629887352673
5.903195999999999,3.9335068315195563,0.13493847541814025
5.905592,3.9566953185732667,0.1341601604168236
5.907976,3.977462395999979,0.13348419486290475
5.910356,3.999719717493911,0.13273146757608864
5.912751999999999,4.02369960048054,0.13195850988187943
5.915139999999999,4.049402044959864,0.13115959504465036
5.91752,4.072310992759855,0.13042614251051604
5.919915999999999,4.0901448038803725,0.12984124638055075
5.922303999999999,4.101972312761639,0.12941596076226872
5.924683999999999,4.114870756829545,0.12896511566771598
5.927083999999999,4.127257344218252,0.12849777296183784
5.929471999999999,4.141134175674179,0.12796361090106734
5.931868,4.152357280077631,0.12747001104420674
5.934267999999999,4.163580384481084,0.1269806901798631
5.936655999999999,4.173033705563596,0.12659071543401504
5.939036,4.182347257019249,0.12621703476038182
5.941431999999999,4.189239398847903,0.12592939024818667
5.943819999999999,4.197202475863197,0.12561299790946545
5.946199999999999,4.206608575117466,0.12530423060099566
5.948596,4.220670502170627,0.1249188016418712
5.950987999999999,4.238457091462902,0.12446783160393839
5.953367999999999,4.251168544075703,0.12414036489182571
5.955772,4.264019766315366,0.12380046239602048
5.95816,4.280455881167281,0.12341444986520514
5.96054,4.293167333780084,0.12309259634445677
5.962935999999999,4.30415622490019,0.12279135043396004
5.965323999999999,4.319940713446046,0.12240415234359132
5.967704,4.3386584682980995,0.12196026832404608
5.9701,4.360449259083208,0.12144408456460548
5.972488,4.379958409868179,0.12099852777131213
5.974872,4.401981518078764,0.12053769686521523
5.977267999999999,4.4245164829685475,0.12010343059389283
5.979652,4.4517072756572205,0.11959600283948513
5.982035999999999,4.475825032412841,0.11915459888867586
5.984432,4.497568601369706,0.11872156538830791
5.98682,4.518101465513072,0.11832805883853195
5.989196,4.539565495216217,0.11791659650858406
5.991603999999999,4.559027424172944,0.11754748165737039
5.993988,4.57397329495764,0.1172438609515892
5.996368,4.582261237197027,0.11705899583447704
5.998764,4.588826617943719,0.11689388113897024
6.001151999999999,4.59688224275763,0.11666925319670163
6.003548,4.606939968317957,0.1164065309447688
6.005944,4.613273031639172,0.11620393135880719
6.008331999999999,4.621468426079942,0.1159718471719794
6.010712,4.630315446826771,0.115747106062626
6.013116,4.632085230147712,0.11566638550717456
6.015504,4.630921747162456,0.11563910890198771
6.017883999999999,4.6276163938039225,0.1156620270274821
6.020275999999999,4.628594781191944,0.11558539595161485
6.022663999999999,4.6265001326469095,0.11557180682761897
6.025039999999999,4.6234743185420974,0.11557153988102212
6.027443999999999,4.617794777384811,0.11559995577353409
6.029831999999999,4.616119437720357,0.11555399817520358
6.032207999999999,4.618028990668157,0.11546586725771579
6.034608,4.621009478802596,0.1153540230323155
6.036992,4.6273425421238095,0.11516193130869633
6.039387999999999,4.638610972497635,0.11488683697144406
6.041791999999999,4.654535230670353,0.1145496086997091
6.044179999999999,4.675115316641962,0.1141510684182608
6.04656,4.694344928173214,0.11379591292478337
6.048956,4.712084295637245,0.1134952467664247
6.051344,4.728752727914637,0.11322110601819266
6.053723999999999,4.74528139056517,0.11295780756329524
6.05612,4.7651626284024795,0.11262106172874409
6.058508,4.784252470306869,0.11228461480426698
6.060888,4.80948838407737,0.11183268856140378
6.063291999999999,4.83486406747473,0.11136798113111657
6.06568,4.865873966059004,0.11077798913600913
6.068056,4.890877562404028,0.11029738452229942
6.070452,4.913227431696577,0.10983768596822237
6.072839999999999,4.9339945091232895,0.10938286130051678
6.07522,4.956903456923279,0.10888876556375504
6.077624,4.980091943976991,0.10838287552996621
6.080012,4.9996955384184485,0.10791408095098004
6.082395999999999,5.019066815434428,0.10741055904170328
6.0848,5.035504826144212,0.10695750085484536
6.087183999999999,5.046635382749047,0.1065557980271237
6.089568,5.051247780435434,0.10623047071191866
6.091963999999999,5.051344119949789,0.10595074705877111
6.094348,5.05507257390464,0.1055810785221151
6.096731999999999,5.062153603046268,0.10514161881140505
6.099128,5.06779160994892,0.1046949013311312
6.101516,5.071986594612596,0.10423889697933596
6.103895999999999,5.0711064425967995,0.10386616221472114
6.106292,5.072507930581141,0.10344388298979958
6.10868,5.0715352307667265,0.10302657926011317
6.11106,5.07270440132559,0.10257046805914931
6.113455999999999,5.066516795204844,0.10224224354125432
6.115843999999999,5.058466857964541,0.10193126001860442
6.118224,5.054700661470792,0.10154026443693699
6.120628,5.05307633535032,0.10111033430930394
6.123016,5.046656411804097,0.1007391062337071
6.125399999999999,5.033299020458845,0.10046457474123818
6.127796,5.021152333927092,0.10015920310087523
6.130184,5.007375633701258,0.09991114785719148
6.132567999999999,4.991596832729009,0.0996916320986834
6.13496,4.976050349182237,0.09951003204307812
6.137347999999999,4.96837249899427,0.0992191857481419
6.139728,4.960554879179444,0.09893635633704853
6.142123999999999,4.950036310483901,0.09873202416834209
6.144511999999999,4.933511439549106,0.09861492074962731
6.146896,4.913913532681256,0.09854659222270282
6.149291999999999,4.894036086559687,0.09849770233197878
6.151679999999999,4.875229575624756,0.09842857280334147
6.154076,4.854420963943409,0.0983873703753291
6.156471999999999,4.832122108194842,0.09839363901041216
6.158859999999999,4.80567928132658,0.09846879053954821
6.161239999999999,4.782029951137654,0.09851612476628258
6.163644,4.766389023934394,0.09844252784057393
6.166032,4.748326687104138,0.09842718568134555
6.168412,4.7298450413933,0.09843910096087169
6.170807999999999,4.717881554600913,0.09838298264424389
6.173195999999999,4.710573895607415,0.09827940309877325
6.175576,4.704988798106615,0.0981661428524379
6.177975999999999,4.698612304672896,0.09805206514836619
6.180363999999999,4.693306746425816,0.09791770383251792
6.182744,4.690282828178873,0.09773388683938782
6.185139999999999,4.6808332988120975,0.09766760573082146
6.187528,4.67296656131116,0.09760236358698224
6.189907999999999,4.665519132690803,0.09750688004714213
6.192311999999999,4.660865200749781,0.09738198462459151
6.194699999999999,4.663660593286986,0.09717935476464284
6.19708,4.67204297918286,0.09692032025109079
6.199475999999999,4.678795351384655,0.09671947239501803
6.20186,4.691274486571979,0.09645487359017699
6.20424,4.704405248065362,0.09620010307670655
6.206636,4.723402542171136,0.09586895885857957
6.209023999999999,4.742539605903768,0.09552825875904808
6.21142,4.757253159262987,0.09527997925940981
6.213816,4.772106482249066,0.09502055947537452
6.216203999999999,4.786959805235146,0.09476349045356736
6.218584,4.796086365235695,0.09457318891754356
6.220988,4.809356896355937,0.09432115492712809
6.223376,4.8222081185956,0.09410002232652825
6.225752,4.843719370126987,0.09378752576605637
6.228156,4.868815514270628,0.09345430709457384
6.230544,4.889627917667715,0.0931912280721102
6.232923999999999,4.913001500318659,0.09286178380526858
6.23532,4.937725557409962,0.09249664026862671
6.237708,4.9623098448744045,0.09214283332867754
6.240088,4.992760664951239,0.09172579636472747
6.242483999999999,5.020417988348738,0.09134079174121396
6.244871999999999,5.045421584693762,0.0909776988069093
6.247252,5.076990561785477,0.09050573851600266
6.249651999999999,5.101482301451303,0.09012969069425183
6.252039999999999,5.124111709997572,0.08976595220263822
6.25442,5.143807852237647,0.08943865393821762
6.256815999999999,5.1644351600375,0.08910558192661372
6.259204,5.186552711904572,0.08873057032986471
6.261588,5.212534695637617,0.08832044868287442
6.263992,5.23358131231805,0.08796243574431682
6.266375999999999,5.2572816560509565,0.08759064080937339
6.268756,5.273904762357976,0.08730880695288279
6.271151999999999,5.28787414161252,0.08703900851015896
6.273539999999999,5.2890395204556455,0.08691082822663582
6.275919999999999,5.285409301873018,0.08682836770798438
6.278324,5.286062824036945,0.08668018776745112
6.280711999999999,5.287367972506928,0.0865432734903029
6.283092,5.286671020230497,0.08642989539585803
6.285492,5.287836399073623,0.0863027555785704
6.287875999999999,5.282343849371438,0.08623412836906068
6.29026,5.277130838922975,0.08614764790505255
6.292655999999999,5.269915727728095,0.08608336673989593
6.295043999999999,5.259487810973301,0.08606456096190576
6.297424,5.251481303845502,0.08599749443764645
6.299828,5.2466876022776185,0.0858842606863121
6.302216,5.241893900709736,0.08577092821349487
6.304596,5.236169033582076,0.08566414915863689
6.306991999999999,5.230164627200696,0.08557465038774228
6.309379999999999,5.2222978896997585,0.08549768518783604
6.31176,5.219506288878293,0.08536318370767552
6.314164,5.215131896190989,0.08522397190146723
6.316552,5.219045445743075,0.08498446464715102
6.318932,5.227102966414854,0.08469524696022838
6.321327999999999,5.246241926005356,0.08428709624913408
6.323711999999999,5.269245317461833,0.08384622260186539
6.326096,5.293179874478087,0.08340430274768826
6.328491999999999,5.315252100374785,0.08297534606323805
6.330879999999999,5.338395261458121,0.08253232538512746
6.333259999999999,5.358744925862123,0.08210899146779231
6.335656,5.38095692138568,0.08167278680771207
