Time,Force,Position
6.434111999999999,0.0282484848390872,0.0
6.436496,0.02019626697556954,0.0
6.438891999999999,0.010141948365635029,0.0
6.441276,0.004091831248534217,0.0
6.44366,0.0009749804376285775,0.0
6.446055999999999,0.0,0.0
6.448444,0.0,0.0
6.45084,0.0,0.0
6.453235999999999,0.0,0.0
6.45562,0.0,0.0
6.458003999999999,0.0,0.0
6.4604,0.0,0.0
6.462783999999999,0.0,0.0
6.465168,0.0,0.0
6.467563999999999,0.0,0.0
6.469951999999999,0.0,0.0
6.472332,0.0,0.0
6.474732,0.0,0.0
6.477119999999999,0.0,0.0
6.4795,0.0,0.0
6.481895999999999,0.0,0.0
6.484283999999999,0.0,0.0
6.48668,0.0,0.0
6.489075999999999,0.0,0.0
6.491463999999999,0.0,0.0
6.493843999999999,0.0,0.0
6.49624,0.0,0.0
6.498628,0.0,0.0
6.501011999999999,0.0,0.0
6.503408,0.0,0.0
6.505792,0.0,0.0
6.508175999999999,0.0,0.0
6.510572,0.0,0.0
6.512955999999999,0.0,0.0
6.515336,0.0,0.0
6.517735999999999,0.0,0.0
6.520123999999999,0.0,0.0
6.522516,0.0,0.0
6.524924,0.0,0.0
6.527308,0.0,0.0
6.529688,0.0,0.0
6.532083999999999,0.0,0.0
6.534468,0.0,0.0
6.536852,0.0,0.0
6.539247999999999,0.0,0.0
6.541632,0.0,0.0
6.544012,0.0,0.0
6.546415999999999,0.0,0.0
6.548803999999999,0.0,0.0
6.551183999999999,0.0,0.0
6.55358,0.0,0.0
6.555968,0.0,0.0
6.558347999999999,0.0,0.0
6.560744,0.0,0.0
6.563132,0.0,0.0
6.565527999999999,0.00018358450471046736,0.0
6.567924,0.00022739938256072413,0.0
6.570307999999999,0.00022739938256072413,0.0
6.572692,0.00022739938256072416,0.0
6.575087999999999,0.00022739938256072418,0.0
6.577475999999999,0.00022739938256072418,0.0
6.579856,0.00022739938256072418,0.0
6.582251999999999,0.00022739938256072418,0.0
6.58464,0.00022739938256072418,0.0
6.587019999999999,0.0017142364993869915,0.0
6.589416,0.004272008802851789,0.0
6.591808,0.009763047412511758,0.0
6.594187999999999,0.02046899232850417,0.0
6.596584,0.03317703799091343,0.0
6.598972,0.04467437883982395,0.0
6.601355999999999,0.053238453382539304,0.0
6.603748,0.0638046286716715,0.0
6.606135999999999,0.07451057358766391,0.0
6.608532,0.08707884962321298,0.0
6.610928,0.0987159600989837,0.0
6.613315999999999,0.1118920475627404,0.0
6.615696,0.12441650872043919,0.0
6.6181,0.13898688550240512,0.0
6.620488,0.15034445672445543,0.0
6.622867999999999,0.16356435906606237,0.0
6.625264,0.1750616999149729,0.0
6.627651999999999,0.1836257744576882,0.0
6.630035999999999,0.19139845306748546,0.0
6.632432,0.1991711316772827,0.0
6.63482,0.206388138730032,0.0
6.6372,0.2094611746630874,0.0
6.639604,0.20652790835689225,0.0
6.641992,0.19623786537108756,0.0
6.644371999999999,0.1835298197086783,0.0
6.646768,0.1720324788597678,0.0
6.649156,0.16346840431705245,0.0
6.651536,0.15290222902792022,0.0
6.653939999999999,0.1421962841119278,0.0
6.656328,0.12962800807637875,0.0
6.658707999999999,0.11799089760060805,0.0
6.661107999999999,0.10463122563214088,0.0
6.663492,0.09206294959659182,0.0
6.665875999999999,0.0774925728146259,0.0
6.668272,0.0661350015925756,0.0
6.67066,0.052915099250968635,0.0
6.67304,0.04583786182507955,0.0
6.675436,0.03941225070524837,0.0
6.677823999999999,0.031639572095451124,0.0
6.680208,0.023866893485653882,0.0
6.682604,0.01516304931607832,0.0
6.684987999999999,0.009532241079558142,0.0
6.687384,0.00990432813189562,0.0
6.689779999999999,0.01162688962459205,0.0
6.692167999999999,0.014696518607254539,0.0
6.694547999999999,0.015903816470360384,0.0
6.696944,0.01925298470674329,0.0
6.699332,0.02474402331640326,0.0
6.701711999999999,0.03102645785898134,0.0
6.704108,0.03744866202841963,0.0
6.706496,0.0429397006380796,0.0
6.708876,0.05043283999415643,0.0
6.71128,0.05899691453687178,0.0
6.713668,0.06662982351980881,0.0
6.716047999999999,0.07104992694283024,0.0
6.718444,0.07439909517921314,0.0
6.720832,0.06997899175619171,0.0
6.723212,0.07039830063677234,0.0
6.725619999999999,0.07761190073912876,0.0
6.728004,0.08589643602812369,0.0
6.730383999999999,0.09003700019742471,0.0
6.73278,0.09725060029978111,0.0
6.735168,0.09967200992677859,0.0
6.737548,0.10488691623311103,0.0
6.739944,0.11196415365900012,0.0
6.742331999999999,0.1196930173909471,0.0
6.744716,0.12341767963006038,0.0
6.747119999999999,0.12392953630925806,0.0
6.749504,0.1257918674288147,0.0
6.751887999999999,0.12523278892137385,0.0
6.754284,0.124673710413933,0.0
6.756672,0.12239207041379574,0.0
6.759055999999999,0.1179685600403814,0.0
6.761452,0.11647831597316226,0.0
6.76384,0.12034274783913576,0.0
6.766219999999999,0.12541788451860797,0.0
6.768616,0.13356265018074268,0.0
6.771004,0.14143128353954992,0.0
6.773384,0.14371292353968718,0.0
6.775779999999999,0.14678595947274256,0.0
6.778167999999999,0.1561448368987689,0.0
6.780567999999999,0.16135974320510135,0.0
6.782964,0.1673660454443519,0.0
6.785352,0.17123047731032537,0.0
6.787732,0.16950791581762895,0.0
6.790127999999999,0.1711379295117083,0.0
6.792515999999999,0.17663237507176116,0.0
6.7949,0.182126820631814,0.0
6.797295999999999,0.18133542469889594,0.0
6.799683999999999,0.18603847432603068,0.0
6.802068,0.1936747902593606,0.0
6.804463999999999,0.20103156693897012,0.0
6.806856,0.21025067473813627,0.0
6.809236,0.21625697697738683,0.0
6.811632,0.2202611784702205,0.0
6.814015999999999,0.2249170062691121,0.0
6.816395999999999,0.22906097738880601,0.0
6.8188,0.2297126036948639,0.0
6.821183999999999,0.23050399962778206,0.0
6.823563999999999,0.22757073332158687,0.0
6.82596,0.2215644310823363,0.0
6.828348,0.21583766809680616,0.0
6.830743999999999,0.2123925451114133,0.0
6.833148,0.2070850910064638,0.0
6.835535999999999,0.2076441695139047,0.0
6.837916,0.2040592769016516,0.0
6.84032,0.19726157872948297,0.0
6.842704,0.19274552055745156,0.0
6.845087999999999,0.1945153038783912,0.0
6.847484,0.18878854089286107,0.0
6.849872,0.17821895865333592,0.0
6.852248,0.16565068261778687,0.0
6.854656,0.15698686161032305,0.0
6.85704,0.15693395220847217,0.0
6.85942,0.16921661665134746,0.0
6.861815999999999,0.19337022008799445,0.0
6.864203999999999,0.2241798562120806,0.008221147456147245
6.866584,0.2568499275978542,0.017383636566080732
6.868979999999999,0.29878253689529854,0.026466429977921375
6.871368,0.3541216552241076,0.035108269147948526
6.873747999999999,0.42356613071858257,0.043185713922766544
6.876144,0.5010171133408555,0.05114053322542972
6.878532,0.5836338845833486,0.0591780746917176
6.880912,0.67793460336451,0.06716025723128781
6.883315999999999,0.7756313274449518,0.07532111198539357
6.885703999999999,0.8877129479447798,0.08319161771907094
6.888083999999999,1.0072892188932085,0.09103236269449395
6.890488,1.131239882528939,0.09895314630268974
6.892875999999999,1.2627305225836438,0.10684251659585685
6.895256,1.4111200164833493,0.11458658538146464
6.897651999999999,1.5732900023246263,0.12216115754144076
6.900039999999999,1.7452800934924912,0.12954785730321042
6.902419999999999,1.915507600005548,0.1368392186361726
6.904824,2.0804767700997675,0.14404830182590014
6.907212,2.2283147689235094,0.1513873045099234
6.909592,2.3566927346483926,0.1589537963400005
6.911996,2.4793458332456146,0.15828245144435915
6.914384,2.605073863633762,0.15655654223753632
6.916763999999999,2.7216791257370985,0.15490556330113897
6.919167999999999,2.8251574180627905,0.1537187364184505
6.921555999999999,2.9098745254239256,0.15327107899678954
6.923935999999999,2.985746507896101,0.15306319897164336
6.926332,3.05282058730756,0.15290665090073574
6.92872,3.1082107191803514,0.15288914546222063
6.931099999999999,3.1614155505673605,0.15249268936661858
6.933499999999999,3.200375255161843,0.15244982588833325
6.935884,3.229558669307589,0.1526255626021664
6.938267999999999,3.249524871512037,0.15293776476902735
6.940664,3.2576673565509564,0.1533928742724193
6.943047999999999,3.252962411065953,0.1539337801387822
6.945428,3.2348037347213405,0.15471754553807004
6.947823999999999,3.2085441075924446,0.15572866645929984
6.950215999999999,3.17972330120969,0.1568758032799375
6.952596,3.1498315596402975,0.15804737624733511
6.954991999999999,3.12859984736263,0.15890353065290716
6.957379999999999,3.115748625122968,0.15949888982205762
6.959764,3.10378134661484,0.16015231311615444
6.962159999999999,3.0944677951591877,0.1607005323215013
6.964547999999999,3.08738866187543,0.16122411950520452
6.966927999999999,3.0828234860172854,0.16169269842371817
6.969327999999999,3.086499030570287,0.16191017385439618
6.971712,3.097391582176037,0.16183237190041092
6.974091999999999,3.114290436021038,0.1615239416491796
6.976495999999999,3.1361246569186503,0.16103476643498107
6.97888,3.149670935576875,0.16088666842135252
6.981259999999999,3.163729070914298,0.1607519115192249
6.983663999999999,3.184724674050749,0.16034767977782566
6.986051999999999,3.2129372842399504,0.15963399326922378
6.988432,3.246225031108623,0.15871506691185908
6.990827999999999,3.2774634554026365,0.15795356714331366
6.993216,3.31265885936124,0.1571117264048494
6.995595999999999,3.3485058896259012,0.15626493882396997
6.997995999999999,3.3846324591442833,0.1553814793905875
7.00038,3.419827863102887,0.1545407021849864
7.002775999999999,3.4491567344491005,0.15393847357660925
7.005172,3.4776942098623955,0.15335814813958862
7.007555999999999,3.506139137477074,0.15270996100520326
7.00994,3.5252724094939683,0.15237596803514936
7.012343999999999,3.5449647600183045,0.15198683396331067
7.014728,3.5637259449828624,0.15162951034476616
7.017108,3.579553863641224,0.15137905464211765
7.019504,3.589655019314056,0.15132202951737
7.021891999999999,3.596171282374635,0.1513615785720052
7.024272,3.599894048755879,0.15148288376633523
7.026679999999999,3.606969390323899,0.15145951160267826
7.029067999999999,3.616466141518916,0.15131765935153382
7.031447999999999,3.6242403312212366,0.15121916782832429
7.033844,3.6325735994309984,0.15106781819319703
7.036228,3.6368101183493096,0.15098639544393477
7.038611999999999,3.645889456521616,0.15068585346700958
7.041008,3.657669743574639,0.15025691260196897
7.043391999999999,3.671080044321742,0.14973480233359612
7.045776,3.685468732456868,0.14911831932694247
7.048171999999999,3.6964122976066,0.14856291313235592
7.050556,3.7054935316367743,0.14804456276439493
7.052935999999999,3.7156457008535875,0.1474921243873501
7.055339999999999,3.72686880525704,0.146907679429394
7.057727999999999,3.7434465855936847,0.14612920206349966
7.060112,3.7548566814522397,0.1454524733825311
7.062507999999999,3.765754920631598,0.14475581789880543
7.064891999999999,3.7761413031317583,0.14403642735165326
7.067288,3.785736289699001,0.14332361384101444
7.069683999999999,3.796821520333462,0.142533324037531
7.072072,3.8063239591020874,0.14175966087535533
7.074451999999999,3.8146156930572133,0.1410335260198178
7.076855999999999,3.8238385925721183,0.1402916831258369
7.079239999999999,3.831898009101767,0.13953150390262417
7.081624,3.832508101153189,0.13896108318097708
7.084028,3.8344214458167274,0.13840035345348375
7.086416,3.829489870479854,0.13810742149934177
7.088796,3.8164101225304528,0.13807345665416934
7.091192,3.8017475827152154,0.13805329621784765
7.093575999999999,3.780799201407007,0.13824570221245955
7.095955999999999,3.765158274203749,0.13832735440574792
7.09836,3.756315045172659,0.1382169179728032
7.100747999999999,3.747099729089231,0.1380697702234916
7.103128,3.735370455580189,0.13796000392072982
7.105532,3.7174951102050358,0.13804188743042595
7.10792,3.703716514121334,0.1380678984714943
7.110299999999999,3.690449774716829,0.1381138363153197
7.1127,3.676251869752546,0.13818432326471786
7.115088,3.6612625688553453,0.13826591625784304
7.117467999999999,3.6447830238909247,0.13842498554381288
7.119864,3.628535796351982,0.13863798266349195
7.122252,3.619226036612068,0.13864202377635246
7.124635999999999,3.604980909819542,0.13878955500290102
7.127032,3.588965999706077,0.13904748630366384
7.12942,3.5779790044438404,0.13922812975027352
7.131803999999999,3.5685748010474407,0.13939020539552732
7.1342,3.562523172837816,0.13942948877765116
7.136588,3.561546681307664,0.13930639925610258
7.138968,3.5601508808969307,0.1392281384477152
7.141371999999999,3.566204404964424,0.1389580041990391
7.143756,3.5685332667928042,0.13878405957814902
7.146139999999999,3.5679288623149894,0.13869726520643869
7.148536,3.5615504730234013,0.1388482754039962
7.150924,3.5534023004108732,0.13911664895680884
7.153304,3.5508411211570152,0.13924141473373883
7.1557,3.548000402649437,0.13939541992256507
7.158087999999999,3.5432973530223024,0.13959931947535922
7.160468,3.541899656753701,0.1397516256342277
7.162863999999999,3.5440868530973524,0.1398216948785634
7.165255999999999,3.544691257575167,0.13991035833352672
7.167636,3.5517212731728134,0.1397644494101558
7.170031999999999,3.552465447277488,0.13983670326483397
7.172419999999999,3.5570740532481366,0.13979970934515573
7.174799999999999,3.565175004032421,0.1396182622422946
7.177196,3.572624328510648,0.1394333528864193
7.179584,3.577280156309539,0.1393179396780631
7.181968,3.586871351161043,0.13906223718765492
7.184363999999999,3.5963227763856866,0.13882398579467894
7.186752,3.6057742016103305,0.138585734401703
7.189136,3.6153653964618337,0.13834063424212983
7.191531999999999,3.6294726494853684,0.13800348258515668
7.19392,3.6440917591881012,0.1376882442945944
7.196299999999999,3.664856940756945,0.1371779631667149
7.198696,3.6891144671394245,0.13652552584639074
7.201084,3.711509662402347,0.13592331147924333
7.203479999999999,3.7351155624787684,0.13527942835497023
7.205879999999999,3.7633772903540814,0.1345301247098371
7.208268,3.790475535244139,0.1337616601269623
7.210647999999999,3.8149200530817216,0.13304773078598925
7.213044,3.8433215505838954,0.1322994703309413
7.215435999999999,3.86450604103332,0.13177938407069076
7.217815999999999,3.8871807755499628,0.1311808231675857
7.220212,3.9089243445068274,0.13060562334269044
7.2226,3.93131953976975,0.13005392020742604
7.224979999999999,3.9529233390997547,0.12951392309677862
7.227383999999999,3.975877612870119,0.12891209918645108
7.229771999999999,3.994036289214731,0.1284315587588571
7.232151999999999,4.013545439999703,0.127900765453709
7.234548,4.0339857563444514,0.1273531905433179
7.236939999999999,4.0514928063830045,0.12688213852906255
7.239319999999999,4.0672772949288625,0.12644293092755277
7.241716,4.083760631609021,0.12594384873384779
7.244104,4.097590241236706,0.12548827720244782
7.246483999999999,4.115144513103502,0.12497555924781843
7.24888,4.132838554597159,0.12445104553023281
7.251272,4.145597229038204,0.12403627683551628
7.253651999999999,4.156773111613413,0.12363745661435867
7.256048,4.169531786054459,0.1232344158415434
7.258436,4.1860151227346165,0.12276939897089786
7.260819999999999,4.199472645309964,0.12231175523871629
7.263216,4.216003203818366,0.12177899936252513
7.265604,4.234256323819464,0.12123148471941735
7.267984,4.254651314193839,0.12063306199734623
7.270379999999999,4.271181872702241,0.12011482646890609
7.272767999999999,4.285430791210506,0.11966150527824271
7.275152,4.301542040838326,0.11918209312687728
7.277547999999999,4.319236082331984,0.11869515667844065
7.279935999999999,4.332646383079087,0.11831933033192905
7.28232,4.346336223079911,0.11792348238390135
7.284715999999999,4.360305602334455,0.11750508216502863
7.287099999999999,4.374135211962139,0.11710168355755407
7.289484,4.385543411962825,0.11677620085681649
7.291884,4.398813943083068,0.11642152634606627
7.294271999999999,4.407428646404419,0.11614751812499095
7.296655999999999,4.418836846405106,0.11583374826394559
7.299052,4.435180413458404,0.11542405908519172
7.301439999999999,4.4501735060713425,0.1150648375323398
7.30382,4.464095663497645,0.114735209677126
7.30622,4.472151288311554,0.11451268411975019
7.308607999999999,4.483931575364579,0.11423727169473767
7.310991999999999,4.495711862417602,0.11396447602688572
7.313388,4.503487947977793,0.11376867711836958
7.31578,4.507911458351207,0.113658766255323
7.318159999999999,4.5131263646575395,0.11354580498175919
7.320556,4.5222057028298455,0.11336665214063418
7.322939999999999,4.530865732121571,0.11322344395234689
7.325336,4.539805300667017,0.11305936645580343
7.327727999999999,4.554611401824853,0.11279499356973362
7.330112,4.568858424475248,0.11257609348057845
7.332492,4.583757073431701,0.11236747629567802
7.334887999999999,4.596653621641738,0.11219546894765647
7.337271999999999,4.610481335411552,0.11200884020390306
7.339668,4.627242315487562,0.1117778376165802
7.34206,4.642792590750073,0.11158120540399007
7.344448,4.654478434146611,0.11144820956315232
7.346828,4.6630912416100925,0.11137509284317568
7.349231999999999,4.672123357954155,0.11127021937781299
7.351616,4.67943291280552,0.1111801315662991
7.353995999999999,4.691957373963219,0.11098435055359121
7.356399999999999,4.701688338441584,0.11082919429195658
7.358784,4.710488137360169,0.11068738734011328
7.361163999999999,4.719427705905615,0.11053264120700754
7.363567999999999,4.731999388891557,0.11027817460954148
7.365955999999999,4.747132251131357,0.10994928988331845
7.368335999999999,4.761753256691959,0.1096054961698929
7.370732,4.773068908894028,0.1092788093580312
7.373116,4.782661999603401,0.10896657369410044
7.375511999999999,4.786668096954103,0.10872719747501854
7.377908,4.789510711319552,0.10845972129039458
7.380291999999999,4.789559829005664,0.10822695285225668
7.382671999999999,4.791099190758994,0.10794059837129541
7.385067999999999,4.793197631019766,0.10761302318229907
7.387452,4.786636041988814,0.10741117640124889
7.389847999999999,4.7808658488907785,0.10720780965132976
7.392251999999999,4.775514964673326,0.10697242409632177
7.394636,4.773376886015788,0.1066709299796514
7.397019999999999,4.769376476238692,0.10639196735342306
7.399424,4.765376066461597,0.10611208754675647
7.401807999999999,4.759233786311224,0.10587702587940864
7.404187999999999,4.753882902093771,0.10564096959685254
7.406592,4.748532017876317,0.10540481905448723
7.40898,4.746393939218779,0.10510300248866587
7.41136,4.7431849253745995,0.10482441934713405
7.413763999999999,4.736623336343647,0.10461995112713487
7.416148,4.73192407843225,0.10439469709802265
7.418528,4.7272248205208545,0.10416798192805136
7.420923999999999,4.7276006992889315,0.1038597419684908
7.423311999999999,4.7289077436167855,0.10353934968611332
7.425692,4.729004083131141,0.10324828277842941
7.428087999999999,4.7323132282054114,0.10289492284842834
7.430472,4.73748470439924,0.10252343693253906
7.432851999999999,4.745589446899263,0.1021157630719135
7.435255999999999,4.761702592384953,0.10158674219604968
7.437643999999999,4.777443650818306,0.10102750815531328
7.440023999999999,4.794767501117494,0.10047008853537957
7.442428,4.811439725110626,0.09991004914757634
7.444811999999999,4.833698942462427,0.09929691214049138
7.447191999999999,4.860102130933923,0.09862277231758744
7.449596,4.886505319405417,0.09795005965821285
7.451979999999999,4.9079731408243,0.09733941956746213
7.454359999999999,4.927578631123626,0.0967459627729614
7.456764,4.949977618102288,0.09613549869875326
7.459152,4.968092864334395,0.09559910288125778
7.461532,4.986208110566503,0.09505998284970835
7.463936,4.998177284932498,0.09461646373451298
7.466324,5.010658315977692,0.09419009597517505
7.468703999999999,5.016434196649335,0.09389961639941437
7.4711,5.024212178067395,0.09358175254168086
7.473488,5.035714821724568,0.0932279596212374
7.475868,5.0460067605682415,0.09290465510772444
7.478263999999999,5.050152627545804,0.09267307718760939
7.480651999999999,5.050014753776813,0.0925169167572922
7.483027999999999,5.044382434447769,0.09246241476469669
7.485427999999999,5.039401741424784,0.09241798903907318
7.487812,5.03241894765538,0.09240043552927268
7.490191999999999,5.022083578699203,0.09244669294922908
7.492595999999999,5.003879576384216,0.09259057877919248
7.494983999999999,4.9792499629494,0.09284293399261909
7.497363999999999,4.954620349514583,0.09309419193500715
7.499767999999999,4.937999139065434,0.09323777077485289
7.502155999999999,4.92324025973584,0.09336464966561352
7.504539999999999,4.902335308540136,0.09357873313540249
7.506931999999999,4.887576429210544,0.0937033507528393
7.509319999999999,4.876961521000644,0.093764622424395
7.511704,4.871421749470217,0.09375622821373196
7.514099999999999,4.871236653872986,0.09365980357209829
7.516484,4.875614838276024,0.09347458953463106
