Time,Force,Position
7.091552,0.09096294859877936,0.0
7.093935999999999,0.08694763652013748,0.0
7.096315999999998,0.08279255481463539,0.0
7.09872,0.07784607717621518,0.0
7.101108,0.07462216103049142,0.0
7.103487999999999,0.07167778413848806,0.0
7.105892000000001,0.06659153687320765,0.0
7.108280000000001,0.05843225367487185,0.0
7.110659999999999,0.05120413603631437,0.0
7.113056,0.043696479144036474,0.0
7.115444,0.036049052624898374,0.0
7.117823999999999,0.02933279166553859,0.0
7.12022,0.02382723551967755,0.0
7.122608,0.01324654269434427,0.0
7.124991999999999,0.009603317668039865,0.0
7.127388,0.00596009264173546,0.0
7.129776,0.00596009264173546,0.0
7.132159999999999,0.004830825041045598,0.0
7.134556,0.004772492626994267,0.0
7.136939999999999,0.0008497283469694424,0.0
7.1393239999999984,0.0,0.0
7.1417280000000005,0.0,0.0
7.144116,0.0,0.0
7.146495999999999,0.0,0.0
7.148892,0.0,0.0
7.15128,0.0,0.0
7.153659999999999,0.0,0.0
7.15606,0.0,0.0
7.158448,0.0,0.0
7.160827999999999,0.0,0.0
7.163224,0.0,0.0
7.165611999999999,0.0,0.0
7.167995999999999,0.0,0.0
7.170392,0.0,0.0
7.172775999999999,0.0,0.0
7.175172,0.0,0.0
7.177568000000001,0.0,0.0
7.179956000000001,0.0,0.0
7.182335999999999,0.0,0.0
7.184736000000001,0.0,0.0
7.18712,0.0,0.0
7.189504,0.0,0.0
7.1919,0.0,0.0
7.194288,0.0,0.0
7.196667999999999,0.0,0.0
7.199064,0.0,0.0
7.201452,0.0,0.0
7.203835999999999,0.0,0.0
7.206232,0.0,0.0
7.20862,0.0,0.0
7.211016000000001,0.0,0.0
7.213411999999998,0.0,0.0
7.215799999999998,0.0,0.0
7.21818,0.0,0.0
7.220576000000001,0.0,0.0
7.222964000000001,0.0,0.0
7.225344,0.0,0.0
7.227740000000001,0.0,0.0
7.230128,0.0,0.0
7.232507999999999,0.0,0.0
7.234908000000001,0.0,0.0
7.237296000000001,0.0,0.0
7.239675999999999,0.0,0.0
7.242072,0.0,0.0
7.24446,0.0,0.0
7.246839999999999,0.0,0.0
7.2492480000000015,0.0,0.0
7.251632000000001,0.0,0.0
7.254016,0.0,0.0
7.256412000000001,0.0,0.0
7.258800000000001,0.0,0.0
7.261179999999999,0.0,0.0
7.263580000000001,0.0,0.0
7.265968000000001,0.0032239161457237727,0.0
7.268348,0.007518767478086077,0.0
7.270744,0.011673849183588169,0.0
7.273132,0.01582893088909026,0.0
7.275528000000001,0.023848444460565846,0.0
7.277923999999999,0.03186795803204143,0.0
7.280311999999999,0.04095840679015554,0.0
7.282692000000001,0.04804675480185281,0.0
7.285095999999999,0.05727697318682713,0.0
7.287483999999999,0.0643653211985244,0.0
7.2898640000000015,0.06637853253074943,0.0
7.292263999999999,0.06637853253074942,0.0
7.294651999999999,0.06637853253074942,0.0
7.297031999999998,0.0669014997957553,0.0
7.299431999999999,0.0669014997957553,0.0
7.301819999999999,0.0669014997957553,0.0
7.304199999999998,0.0669014997957553,0.0
7.306599999999999,0.06690149979575531,0.0
7.308987999999999,0.06690149979575531,0.0
7.311367999999998,0.06690149979575531,0.0
7.313768,0.06367758365003154,0.0
7.316155999999999,0.05938273231766923,0.0
7.318539999999999,0.055227650612167146,0.0
7.320936,0.05107256890666505,0.0
7.323319999999999,0.043053055335189466,0.0
7.325703999999998,0.035033541763713885,0.0
7.328099999999999,0.025943093005599764,0.0
7.330487999999999,0.018854744993902498,0.0
7.332871999999998,0.00962452660892817,0.0
7.335267999999999,0.0025361785972309037,0.0
7.337655999999999,0.000522967265005871,0.0
7.340036000000001,0.0017920044925559433,0.0
7.342435999999999,0.0017920044925559431,0.0
7.344823999999999,0.002817613708820565,0.0
7.347207999999998,0.0075789957500066495,0.0
7.349603999999999,0.012340377791192732,0.0
7.351991999999999,0.017753386138436716,0.0
7.3543759999999985,0.023026624858820493,0.0
7.356771999999999,0.02415589245951035,0.0
7.359159999999999,0.024155892459510355,0.0
7.3615439999999985,0.02415589245951036,0.0
7.363939999999999,0.02415589245951036,0.0
7.366332,0.02415589245951036,0.0
7.368711999999999,0.02415589245951036,0.0
7.371107999999999,0.02458631192589917,0.0
7.373491999999999,0.026879062511844617,0.0
7.375872000000001,0.030102978657568388,0.0
7.378276,0.03518922592284881,0.0
7.380659999999999,0.04027547318812922,0.0
7.383040000000001,0.04429078526677109,0.0
7.385435999999999,0.05324146439802501,0.0
7.387823999999998,0.06264566779442528,0.0
7.390204000000001,0.07546077879165267,0.0
7.392596000000001,0.08565637812097104,0.0
7.394984000000001,0.09156823670373529,0.0
7.397379999999998,0.0953382249132225,0.0
7.399771999999999,0.10045868756306862,0.0
7.4021599999999985,0.10678985502641351,0.0
7.404540000000001,0.11926709435586916,0.0
7.406932000000001,0.13008010460667968,0.0
7.409320000000001,0.14410592041740583,0.0
7.411712000000001,0.15999406734768862,0.0
7.414107999999999,0.17495104871819311,0.0
7.416491999999998,0.18585660676762072,0.0
7.418887999999999,0.19493404908205741,0.0
7.421284,0.2041965869937282,0.0
7.423667999999999,0.2146679338610285,0.0
7.426047999999998,0.22378691043010063,0.0
7.428439999999998,0.24114471155244818,0.0
7.430827999999998,0.267300415735512,0.0
7.433219999999999,0.28931025294101265,0.0
7.435624000000001,0.31732449652789463,0.0
7.438012,0.34957336317521837,0.009925986269281942
7.440391999999999,0.3872675576964825,0.020095411111352268
7.442796000000001,0.4308263889722678,0.030293971194801136
7.445180000000001,0.48267126662957166,0.040240352141997865
7.447559999999999,0.5355851836156448,0.050401207714966444
7.449964000000001,0.5894283703036269,0.06091817286495311
7.452352000000001,0.6483447978132122,0.07109397668190941
7.454732,0.7171300635701522,0.08098926954878473
7.457135999999998,0.7847027286557242,0.09117669646246461
7.459520000000001,0.8552067641896222,0.10138141392146642
7.4619,0.9302249620376822,0.11175229066838939
7.464296000000001,1.0169290032822798,0.1217508541265239
7.46668,1.1105705123259064,0.13147992539848297
7.469059999999999,1.2033280776379975,0.14122519678809112
7.471456,1.297390791420074,0.15077350529558176
7.473844,1.3949477458736557,0.16002905970773845
7.476223999999998,1.4816121487214873,0.16943266924288872
7.478628,1.560037727016043,0.17881283608186682
7.481012,1.638093114116131,0.18810990217387746
7.4833919999999985,1.7026947703566109,0.1978092652509772
7.485787999999999,1.7601285372304538,0.19761907554021468
7.488175999999999,1.8142588466036336,0.19708983793913604
7.490555999999998,1.8654577855284873,0.19640354013939618
7.49296,1.9113039443780175,0.19593565949505137
7.495343999999999,1.9544510502046992,0.19530528604063974
7.497727999999999,1.9998344700611441,0.19410148978974295
7.500119999999999,2.039445800961685,0.19323139392716904
7.502507999999999,2.0775687836528762,0.19231397494679714
7.504904,2.112341087015161,0.19123347083415337
7.507300000000001,2.1420401495558425,0.19018704226243524
7.509688000000001,2.1700185464616966,0.18886771916280504
7.512067999999999,2.1940871855312034,0.18771704060949818
7.514472000000001,2.2115451178836447,0.1869100722599785
7.516856000000001,2.2306330639301657,0.18593921495938345
7.519235999999999,2.247207052551072,0.18511756572084467
7.521636000000001,2.2594973004254246,0.1846358833126159
7.524024000000001,2.2770950024047263,0.18388874176310033
7.526403999999999,2.29729920960826,0.18314260681409725
7.528807999999998,2.321180857222663,0.1823488573728639
7.531192000000001,2.3571676571141844,0.18088788444500015
7.533571999999999,2.3945974792446822,0.17939249365234305
7.535975999999998,2.432539158054378,0.1779562521354876
7.538364000000001,2.4652659305577407,0.17684799829037606
7.540744,2.500925969367299,0.1756158395173189
7.543140000000001,2.5363536907513797,0.17431155212740543
7.545524,2.5688953676575084,0.17312691361141608
7.547908,2.60120472713816,0.17189309904495753
7.550311999999998,2.6247142877002263,0.17115960635832556
7.552696000000001,2.6553010856881816,0.17005533219476288
7.555076,2.688960919609192,0.1687951422629398
7.557479999999998,2.721410048716704,0.1676450371320256
7.559864000000001,2.751857077077799,0.16664971956348287
7.562244,2.7868201636109253,0.16548566905408704
7.564647999999998,2.821503710890331,0.1644099273165854
7.567035999999998,2.8549765533562383,0.16341723394753901
7.569416,2.8899396398893646,0.16231099482673705
7.571812000000001,2.921457603437098,0.16133559918403814
7.574200000000001,2.9510206880666576,0.16036507069543843
7.576575999999999,2.974484922658349,0.1596057492870388
7.578972,2.989708436838897,0.15917579422056077
7.58136,3.0053512599000243,0.158693440867742
7.583752,3.0188994344161184,0.15822569718628124
7.586155999999999,3.038081824119126,0.1574415099558543
7.588543999999999,3.0532600123292997,0.156850310067496
7.590924000000001,3.069741453151589,0.1562700807834973
7.593323999999999,3.0873863769591345,0.15573096751968096
7.595711999999999,3.1051710703935393,0.15518455067100637
7.598092000000001,3.128170670134277,0.15439069336531414
7.600496,3.1442328020759853,0.15390116727226272
7.602879999999999,3.1573616677114993,0.15353312856090254
7.605260000000001,3.1759849789070658,0.15292676330796703
7.607664,3.1923738719307373,0.15234776733231328
7.610052,3.2025241452896815,0.1519454712801219
7.612431999999998,3.208298130103455,0.1516589020783478
7.614827999999999,3.2155623589844478,0.15127549963490872
7.6172119999999985,3.2217556526788025,0.15094186879835028
7.619592000000001,3.228460803052353,0.15062794939177762
7.621995999999999,3.233163852679488,0.15038834933405665
7.624379999999999,3.2426624997323743,0.14998360973245373
7.626760000000001,3.2606814064501264,0.14931188910218032
7.629163999999999,3.2805626442874347,0.1485996791172267
7.631551999999999,3.304959940296774,0.14778283457814628
7.633931999999998,3.326935826679116,0.14709729324736784
7.636323999999998,3.3510535834347355,0.14632980361539022
7.638711999999998,3.374287396458819,0.14551269350353846
7.641092,3.3898395675792,0.1448470820766128
7.643495999999999,3.4012477675798864,0.14433363648694353
7.645879999999998,3.408511996460879,0.14397660561056994
7.64826,3.419128800528647,0.14347551401572778
7.6506560000000015,3.429093978290358,0.14296678556772677
7.653044000000001,3.429840048252902,0.1428007978151637
7.655424,3.4308184356409237,0.1426882423809721
7.6578279999999985,3.4363128812009767,0.14245752018103924
7.660212000000001,3.4453922193732818,0.14213518622603888
7.662592,3.455262953478506,0.14180901418172354
7.664988000000001,3.4640627523970915,0.14152416031024495
7.667380000000001,3.473421629823118,0.14117524166131776
7.66976,3.4874363350480366,0.14069668831639276
7.672156000000001,3.4950726509813665,0.14038496117325358
7.674544000000001,3.490603814637578,0.14041367459865378
7.676924,3.4805479849351193,0.1405973937203944
7.679327999999998,3.4643460833665505,0.140996025844764
7.681715999999998,3.4521483832908153,0.14125373716306283
7.684100000000001,3.4380883520955234,0.1415580763492949
7.686495999999998,3.42332947276593,0.14193746535686566
7.688880000000001,3.4142501345936243,0.14224381277273684
7.691264,3.40982662422021,0.14242482362996925
7.693660000000001,3.4094073153396294,0.14247217399860784
7.696044,3.4057752008991335,0.14264288596256872
7.698439999999998,3.402003316831778,0.14283064862624636
7.700844,3.3995819072047793,0.14294795510352107
7.703232,3.395577705711946,0.14308790232935326
7.705611999999999,3.387057446047081,0.14334801512675202
7.708007999999999,3.374160897837045,0.14371331563377693
7.710391999999999,3.357260148134175,0.14422099100065094
7.712775999999998,3.342221729550861,0.14467383717587304
7.715171999999999,3.327415628393025,0.14517966336813815
7.717555999999998,3.311026735369353,0.14569431467230567
7.719936000000001,3.2980829653310737,0.14614392441811236
7.722339999999999,3.2903068797708834,0.1464899983324108
7.724723999999998,3.2887694138754213,0.14667253993231752
7.727108000000001,3.2924468542862915,0.1466498621921837
7.729512,3.2916082365251302,0.14674779091699702
7.731895999999999,3.2890470572712722,0.14688450656648538
7.734276000000001,3.2866256476442746,0.14700496907130103
7.736671999999999,3.287696582830913,0.14696214343128639
7.7390599999999985,3.291328697271409,0.14679043342057344
7.741440000000001,3.2935177894729293,0.14662434433899413
7.743843999999999,3.299711083167283,0.14632856472877173
7.746231999999999,3.308837643167832,0.14594453037945426
7.748612000000001,3.3196867646610775,0.14552318850175908
7.751016,3.3364024187667143,0.1449275603159845
7.753399999999999,3.359776001417659,0.14414730630440858
7.7557839999999985,3.3875258726137747,0.1432694249945745
7.758179999999999,3.4222132116089186,0.14218631639799975
7.760563999999999,3.458251025044422,0.14105444062589517
7.762947999999998,3.4931253554946697,0.1398927837459687
7.765343999999999,3.5258578155716402,0.13881427078144606
7.767731999999999,3.561523541954806,0.13766191006599912
7.770112000000001,3.5986795124051913,0.13643040084532293
7.772507999999998,3.627454992817572,0.13540554097948426
7.774895999999998,3.6519467324833976,0.1345440576349413
7.777276,3.677741724761339,0.13369555674145944
7.7796759999999985,3.709263480024811,0.13270485024721904
7.782060000000001,3.743858271221338,0.13163282209441718
7.784451999999998,3.7736574649921133,0.13070726416512665
7.786847999999999,3.794889177269781,0.1300751086233788
7.789231999999998,3.815561811040008,0.12950294584256317
7.791612000000001,3.8305076818247037,0.12907709904297032
7.794015999999999,3.844662156676482,0.12866633072246478
7.796399999999998,3.860818732274677,0.12820367421177978
7.798780000000001,3.8712485448873415,0.12788558252918134
7.801172000000001,3.8790246304475318,0.12762192952691856
7.803556,3.8865683985822446,0.12731404388536235
7.805952000000001,3.8823791014921767,0.12729564781978434
7.808356,3.8756286251482512,0.1273837928012901
7.810744,3.8706007102970217,0.12744589077212304
7.813123999999998,3.868506061751988,0.12743608838769874
7.815528,3.866970491714395,0.12737257413876518
7.817912,3.862082346490026,0.12741805062425288
7.8202919999999985,3.8669251657440213,0.12723742175601205
7.822687999999999,3.8732582290652355,0.12698415330684448
7.825071999999999,3.8781482701474737,0.12672811545578955
7.827452000000001,3.877032008990461,0.1266248723904659
7.829855999999999,3.8719115463406153,0.12662136350707445
7.832243999999999,3.8685136451834654,0.12659435125376517
7.834623999999998,3.8687478584668122,0.1264317615699371
7.837028,3.869261611003879,0.12624249365889534
7.839416,3.872568860220281,0.1259947007681773
7.841795999999999,3.873594469436546,0.12582543077249375
7.844192,3.871826581973475,0.12571324449060114
7.846575999999999,3.870850090443323,0.12559493424867646
7.848956000000001,3.8649382318605596,0.1255993448896063
7.8513519999999986,3.858327525143494,0.12566996883720882
7.853739999999998,3.8645208188378475,0.12542626153602066
7.856135999999999,3.868200155106587,0.12520999599724553
7.858532,3.8709483258155477,0.1250140543370244
7.860916,3.868621359845036,0.12495483703766432
7.863295999999998,3.8587978475680553,0.12512696052902822
7.8657,3.8533978456644893,0.12515291435602102
7.868088,3.8422710807753924,0.1253035441508535
7.870467999999999,3.831795942192354,0.12546054306339785
7.872872000000001,3.823183134728872,0.12557947017364293
7.875260000000001,3.8165724280118067,0.1256490211742403
7.877639999999999,3.8119638220411587,0.1256672849084286
7.880043999999998,3.809357316816927,0.12563426989840876
7.882432000000001,3.8091249993914493,0.1255861968136506
7.884812,3.811825948272167,0.1254717259254109
7.887215999999999,3.818531098645719,0.1252632656835297
7.8896039999999985,3.8270985801388275,0.12501909365201908
7.891984000000001,3.836317687937993,0.12478234921840249
7.894387999999999,3.847259357229855,0.12452285473079815
7.896771999999999,3.863788019880388,0.12415374845233457
7.899156000000001,3.877662955478445,0.12382326030873002
7.901551999999999,3.881667156971279,0.12372635266631857
7.903939999999999,3.8915378910765033,0.12349782752964697
7.906320000000001,3.9029914170475632,0.12326218380310727
7.908723999999999,3.9205910148847347,0.12286937538483265
7.911107999999999,3.9454076197746546,0.12228454019629784
7.913488000000001,3.968594210970496,0.12179041391761976
7.915891999999999,3.9917808021663372,0.12129377721068327
7.918275999999999,4.012173896682843,0.12084787641519519
7.920659999999998,4.034569091945765,0.12036488734729235
7.923055999999999,4.0571040568355485,0.1198699376100549
7.925443999999999,4.077776690605775,0.11941098412866381
7.927824000000001,4.094724662136888,0.119024867033046
7.930228,4.110229611429025,0.1186379162333239
7.932611999999999,4.121450819974608,0.11836996095839734
7.934995999999998,4.126945265534661,0.11821471946625425
7.937391999999999,4.130996688855738,0.11805456616791893
7.939779999999999,4.140402788110007,0.1177580828162668
7.942160000000001,4.151299131431497,0.11740144379847804
7.944564,4.161404078820067,0.11705192840889446
7.946952,4.17644439326125,0.11660514378283994
7.949331999999998,4.199632880314961,0.11597992532250534
7.951727999999999,4.218817165875836,0.11544410282777368
7.954115999999999,4.238700299571013,0.1148588658455837
7.956499999999998,4.254998540653939,0.11432628763240225
7.958895999999999,4.270505385803944,0.11380730249629067
7.961283999999999,4.287782014274891,0.11321246504079606
7.963664000000001,4.306920973865393,0.11259196414734471
7.966068,4.330203904575589,0.1118857868526843
7.968456,4.348551468233174,0.11127260782123326
7.9708359999999985,4.369040902264034,0.11061717798635093
7.973231999999999,4.392323832974231,0.10992622679163574
7.975619999999999,4.415606763684426,0.10923260974137185
7.977999999999998,4.438749924767762,0.10855263693501845
7.980395999999999,4.461520998798763,0.10783422581555527
7.982783999999999,4.4860146343224585,0.10709709026695013
7.985164000000001,4.5134415361523486,0.10631607957794001
7.987559999999998,4.531649330183073,0.105723048290225
7.989947999999998,4.544642217907464,0.10523853466626998
7.992328,4.555912544139161,0.10476968434914663
7.994723999999998,4.560245402571827,0.10442246939349266
7.997112000000001,4.557361253951744,0.10422023993385249
7.999496000000001,4.5574103716378564,0.10396989715497136
8.001891999999998,4.552244583017637,0.10382573913669034
8.004276,4.5474508814497545,0.10371338553671738
8.006656,4.539444374321956,0.1036708815514623
8.009052,4.528085292007382,0.1037079251217326
8.01144,4.5156552745061695,0.10376732123171512
8.013819999999999,4.501735012937738,0.10388018047629306
8.01622,4.49181895286214,0.10392338771464582
8.018608,4.481483583905962,0.10399676661120555
8.020988,4.468075179016728,0.10412561136331454
8.023384,4.4534560693139955,0.10428955326959234
8.025772,4.440699290730819,0.10442833700907958
8.028168,4.429385534386619,0.10457733535988219
8.030563999999998,4.418071778042418,0.1047263337106848
8.032951999999998,4.405267777630999,0.10492712532311282
8.035332,4.395536813152635,0.10507577695936887
8.037728000000001,4.388599345353606,0.10519124029284191
8.040112,4.384036065353333,0.10530358334006944
8.042492,4.386270483525226,0.10531196977586085
8.044896000000001,4.393020959869152,0.10527159144546508
8.04728,4.397769335466661,0.1052664047577147
8.04966,4.407313308489921,0.10519121063227087
8.052064000000001,4.418999151886458,0.10507160426729473
8.054452000000001,4.4326870960294125,0.10491802119112423
8.056832,4.44437293942595,0.10479616741503389
8.059228000000001,4.456058782822488,0.10467431363894354
8.061612,4.466022064726329,0.10456502447435097
8.063996,4.46890810920428,0.10458316574285675
8.066388,4.466998556256479,0.1046731107340117
8.068776,4.465368542562401,0.10474120967269007
8.071168,4.465740629614739,0.10477373219455399
8.073571999999999,4.464250385547519,0.104830607825765
8.075959999999998,4.465181551107298,0.1048185299396171
8.07834,4.47039645741363,0.10471584806548123
8.080735999999998,4.476310211854263,0.10455992274782792
8.083123999999998,4.487299102974369,0.10431666400967245
8.085504,4.503642670027668,0.10396943828740808
8.087896,4.517472279655351,0.10363529153873827
8.090284,4.528648162230561,0.10332746006705548
8.092676,4.538660561820514,0.10299085224278279
8.095071999999998,4.548952500664188,0.1026339840126881
8.097459999999998,4.555380007641889,0.10233052696610126
8.09984,4.5570119171938375,0.10209029289014933
8.102243999999999,4.557712661186007,0.10186135599244564
8.104631999999999,4.5654906426040665,0.10151816966487229
8.107015999999998,4.57154606252943,0.10118418467689239
