Time,Force,Position
7.715832000000001,0.11199819632950336,0.0
7.71822,0.10557258520967218,0.0
7.720599999999999,0.09605234818491791,0.0
7.722996,0.08932560783949858,0.0
7.725384,0.08287840674779968,0.0
7.727767999999999,0.0813665727087128,0.0
7.730172,0.07906334273670781,0.0
7.732559999999999,0.07463983236329348,0.0
7.73494,0.06619053052517772,0.0
7.737335999999999,0.05681006312728364,0.0
7.739724000000001,0.04665978976833918,0.0
7.742108,0.03944278271558989,0.0
7.744503999999999,0.03501927234217555,0.0
7.746892000000001,0.025499035317421266,0.0
7.749271999999999,0.027221596810117696,0.0
7.751668,0.029363467183394755,0.0
7.754056,0.03429883423600678,0.0
7.75644,0.03816326610198027,0.0
7.758836,0.0398858275946767,0.0
7.761224,0.04670511573871308,0.0
7.763619999999999,0.052453468696110936,0.0
7.766019999999999,0.05682975724128211,0.0
7.768407999999999,0.06551137650487512,0.0
7.770788,0.07433276539532836,0.0
7.773184,0.08529602465905865,0.0
7.775568,0.0981216150423456,0.0
7.777951999999999,0.10866556542549523,0.0
7.780348,0.11383324990358452,0.0
7.782736,0.12209556028659692,0.0
7.785116,0.12942670510983098,0.0
7.787511999999999,0.13259228884150343,0.0
7.789899999999999,0.1326848366401205,0.0
7.79228,0.13184621887895925,0.0
7.79468,0.13303129183608256,0.0
7.797064000000001,0.12607223406518597,0.0
7.799448,0.11883363704056896,0.0
7.801843999999999,0.1097327088963953,0.0
7.804232000000001,0.1026338814986385,0.0
7.806616,0.0987478596607973,0.0
7.809011999999999,0.09192857151676093,0.0
7.811396,0.08618021855936309,0.0
7.813796,0.08057163522882543,0.0
7.816191999999999,0.07189001596523241,0.0
7.818580000000001,0.06306862707477917,0.0
7.820959999999999,0.05210536781104888,0.0
7.823356,0.039279777427761946,0.0
7.825744,0.028735827044612285,0.0
7.828127999999999,0.022475617408016742,0.0
7.830524,0.01421330702500435,0.0
7.832912,0.006882162201770282,0.0
7.835292000000001,0.005531687761411329,0.0
7.837692,0.00646285332118965,0.0
7.840076,0.007394018880967971,0.0
7.842459999999999,0.009256350000524612,0.0
7.844860000000001,0.010581192584508127,0.0
7.847248,0.012045804795351852,0.0
7.849632,0.01472112181969432,0.0
7.852028000000001,0.017536208470896996,0.0
7.854416,0.021422230308738202,0.0
7.856795999999999,0.02344592102702277,0.0
7.859196000000001,0.024258906931808596,0.0
7.861584000000001,0.027213763209871483,0.0
7.863968,0.031239554674572904,0.0
7.866364000000001,0.035265346139274324,0.0
7.868755999999999,0.036357871297780564,0.0
7.871136,0.039312727575843455,0.0
7.873531999999999,0.040405252734349695,0.0
7.875916,0.044570813825911326,0.0
7.878296000000001,0.04687404379791632,0.0
7.880687999999999,0.048106338583282775,0.0
7.883075999999999,0.04829333003838614,0.0
7.885467999999999,0.05048242223990636,0.0
7.887872,0.05467361518784342,0.0
7.89026,0.05672293776250342,0.0
7.892635999999999,0.06021528257613944,0.0
7.89504,0.06556995850933209,0.0
7.897428,0.06957416000216578,0.0
7.899808,0.07343859186813928,0.0
7.902212,0.07516115336083572,0.0
7.904596,0.07660417559981172,0.0
7.906976,0.07632463634609131,0.0
7.90938,0.07336978006802841,0.0
7.911764,0.069343988603327,0.0
7.914144,0.06531819713862558,0.0
7.916548000000001,0.06461934900432453,0.0
7.918932,0.06166449272626165,0.0
7.921312,0.0605719675677554,0.0
7.923707999999999,0.05640640647619377,0.0
7.926092000000001,0.05435708390153377,0.0
7.928471999999999,0.05312478911616732,0.0
7.930868,0.051634545048948155,0.0
7.933256,0.050004531354868785,0.0
7.935648,0.04623264728751235,0.0
7.938044,0.04288007210073654,0.0
7.940428000000001,0.03980703616768116,0.0
7.942807999999999,0.03473189948820892,0.0
7.945204,0.03179863318201375,0.0
7.947592,0.029936302062457107,0.0
7.949987999999999,0.028213740569760677,0.0
7.952392,0.027701883890562985,0.0
7.954776000000001,0.03426726463725438,0.0
7.957155999999999,0.04136609203501118,0.0
7.95956,0.049535854619406516,0.0
7.961948,0.056774451644023526,0.0
7.964328,0.06282797571151723,0.0
7.966723999999999,0.0722084431094113,0.0
7.969108,0.08452217681350054,0.0
7.971488000000001,0.09883801126400664,0.0
7.973884,0.10917527607805445,0.0
7.976272,0.12055784422236537,0.0
7.978652,0.12698345534219657,0.0
7.981044000000001,0.12847369940941572,0.0
7.983432,0.12931231717057698,0.0
7.985828,0.13401536679771175,0.0
7.988224000000001,0.14006889086520546,0.0
7.990608,0.1430493789996438,0.0
7.992988,0.1469610326938604,0.0
7.995392000000001,0.1496619815745783,0.0
7.99778,0.15436503120171305,0.0
8.00016,0.16307228232168147,0.0
8.002552,0.16977743269523307,0.0
8.00494,0.17448048232236785,0.0
8.00732,0.18104586306905923,0.0
8.009724,0.18747147418889043,0.0
8.012112,0.19347777642814099,0.0
8.014492,0.19375731568186141,0.0
8.016896,0.18910148788296982,0.0
8.01928,0.18458542971093841,0.0
8.021664,0.1836542641511601,0.0
8.02406,0.1832821770988226,0.0
8.026444,0.18919593153945607,0.0
8.028828,0.1997655137789812,0.0
8.031224,0.20898462157814734,0.0
8.033608,0.2111264919514244,0.0
8.036004,0.21149857900376187,0.0
8.0384,0.2169458027355716,0.0
8.040788,0.2155953282952127,0.0
8.043168,0.2125222923621573,0.0
8.045564,0.2082385516156032,0.0
8.047952,0.19967107012249496,0.0
8.050332,0.18586709235118654,0.0
8.052736,0.174065215326295,0.0
8.055124,0.1593300719952083,0.0
8.057504,0.14566586385076008,0.0
8.059908,0.13321236051981064,0.0
8.062296,0.12355235386819613,0.0
8.064676,0.11589444796299847,0.0
8.06708,0.10609467168452377,0.0
8.069468,0.096456255004777,0.0
8.071848,0.08544577391280356,0.0
8.074244,0.07352571723291951,0.0
8.076632,0.06109380387383777,0.0
8.079012,0.054947732007727,0.0
8.081408,0.050663991261172873,0.0
8.083796,0.04521676752936317,0.0
8.086176,0.03683627749135828,0.0
8.088572,0.03138905375954856,0.0
8.09096,0.030737427453490666,0.0
8.093344,0.032367441147570036,0.0
8.09574,0.03427699409536983,0.0
8.098127999999999,0.03928117294809272,0.0
8.100508,0.04307464698731687,0.0
8.102912,0.04686812102654102,0.0
8.1053,0.04945089025226643,0.0
8.10768,0.0541755298512689,0.0
8.110076,0.05782923426363284,0.0
8.112464,0.06134316904913656,0.0
8.114844,0.06406570790172218,0.0
8.11724,0.067418283088498,0.0
8.119628,0.06986128268736319,0.0
8.122012,0.06876875752885693,0.0
8.124408,0.06646552755685195,0.0
8.126792,0.06001832646515305,0.0
8.129176,0.055712995746731206,0.0
8.131572,0.052990456894145596,0.0
8.133956,0.05119908360133829,0.0
8.136352,0.05033887586830932,0.0
8.138748,0.04654540182908516,0.0
8.141136,0.04061005741658395,0.0
8.143516,0.03683817334922752,0.0
8.145912,0.03506839002828793,0.0
8.1483,0.039584448200319325,0.0
8.150684,0.043169340812572406,0.0
8.15308,0.046102607118767576,0.0
8.155467999999999,0.043681197491770095,0.0
8.157848,0.044332823797828,0.0
8.160252,0.042470492678271354,0.0
8.16264,0.043261888611189465,0.0
8.165024,0.039887723452545945,0.0
8.16742,0.03744472385368075,0.0
8.169808,0.03744472385368075,0.0
8.172188,0.03744472385368075,0.0
8.174584,0.03787993513252137,0.0
8.176972,0.052280733950167545,0.0
8.179352,0.07296547840291548,0.0
8.181748,0.09914277255784701,0.0
8.184132,0.1299739986538009,0.0
8.186524,0.16662263967603275,0.0
8.18892,0.21230150118445812,0.010270008245780558
8.191304,0.264614805408455,0.02003239919008592
8.193696,0.31920785377471983,0.029815007372945852
8.196092,0.3708657399769203,0.03994759010370157
8.198476,0.4299710547994781,0.04993693988406797
8.200852,0.499177525294868,0.05966369259445797
8.203248,0.5836075099708053,0.06870548746244494
8.205636,0.6701774691621505,0.07782680961894461
8.208028,0.7681990584666867,0.08670328419613549
8.210431999999999,0.8716659756451635,0.0955384369697853
8.21282,0.9890275225356964,0.10413511398561354
8.2152,1.119191173979779,0.1123576675533875
8.217596,1.2582471721410646,0.12025185077847284
8.219984,1.4054513429148776,0.12777238398434468
8.222364,1.5566438127832645,0.13507607844172054
8.224756,1.6910771984335107,0.14247184785855999
8.227144,1.817876164008296,0.14995495527185493
8.22954,1.93825141432112,0.15747037212303747
8.23194,2.052389940827085,0.16501346348526214
8.234328,2.158476634234878,0.17257981926700397
8.236708,2.252087984171084,0.16997464959866598
8.239112,2.333316538434321,0.16803841335410033
8.241496,2.4081213774355965,0.16620043823765918
8.243876,2.4825088034141607,0.16395658846315841
8.24628,2.5480983263320085,0.16199725238829563
8.248668,2.608242521375916,0.16018385840642466
8.251047999999999,2.655025533358832,0.15915713217310312
8.253452,2.6983180963859814,0.15805406542436004
8.25584,2.7317418211657762,0.1572564243334214
8.258216,2.7570664910191556,0.15651863691914158
8.260624,2.771079300386204,0.15605972132115428
8.263008,2.773221170759481,0.15593453311275035
8.265388,2.7655395288557774,0.15617811130550596
8.267792,2.7475678439662694,0.1569220992662514
8.270176,2.720097512023874,0.15817211370894413
8.272556,2.695560446387675,0.15930668777567333
8.27496,2.674887812617448,0.16026458965317766
8.277344,2.6585914673923927,0.16106173539741714
8.279724,2.647462806645427,0.16168805916790943
8.282128,2.6380094855629137,0.16237666768739364
8.284512,2.635586180078047,0.1628283192572356
8.286892,2.639913350937106,0.16308557186107697
8.289296,2.651177989595194,0.16302066860232062
8.291684,2.6604405275068648,0.16305079793337512
8.29406,2.677059842098145,0.16270997446049767
8.296464,2.689302868144254,0.16251494757337404
8.298848,2.7011738071380256,0.16226718781873034
8.301228,2.7125328894525995,0.1619970397657999
8.303632,2.7257543028867293,0.16165134535384426
8.30602,2.7405585081866963,0.1612723118358696
8.308396,2.7573648142330804,0.16080063821684706
8.3108,2.772588328413628,0.16036492107196582
8.313188,2.79032580001979,0.15986034989252745
8.315568,2.8105772290515665,0.15927067957588031
8.317972,2.8397682266287894,0.15824551595660216
8.320356,2.8698903897657893,0.157194900613706
8.322736,2.897778134730896,0.15619801293420188
8.32514,2.9231519222703883,0.1552993802871843
8.327528,2.9460117523842646,0.15449657207477963
8.329903999999999,2.9737144017521375,0.15342521882053847
8.332316,2.997320301828559,0.15246939428719974
8.3347,3.0180401574270284,0.1515404937518509
8.337083999999999,3.0348955811595246,0.15078771871172586
8.339492,3.0569659111983527,0.14983027905921864
8.34188,3.0720987734381526,0.1491543868838994
8.34426,3.089885362730427,0.14840698398268662
8.346672,3.110325679075176,0.14758492610739568
8.349064,3.130486456166205,0.14679824138737183
8.351444,3.1526493340036508,0.14595086211060393
8.353856,3.1743003551618987,0.14508663430134328
8.356244,3.1912955485212553,0.14435898849870374
8.35862,3.207080037067113,0.1436875582330168
8.361036,3.2222128993069123,0.1430185511983297
8.36342,3.236322048188317,0.14230108407617384
8.3658,3.2471258437111885,0.1416645895670774
8.368216,3.2562070777413634,0.14106982139182203
8.3706,3.2640776069580397,0.1405363598918714
8.372984,3.2696664961745787,0.14010892363168045
8.37538,3.274184450204479,0.13972881039958165
8.377763999999999,3.271764936435351,0.13959559483390796
8.38016,3.2670637826660855,0.13956875651613837
8.38256,3.2628744855760177,0.1395654629266109
8.384943999999999,3.259756123672589,0.13951638568322425
8.387324,3.247837962850574,0.13976374265439737
8.389716,3.2380616724018365,0.1399239591629153
8.3921,3.225631654900624,0.14014930920854962
8.39448,3.2105479103469365,0.14044160832160485
8.396876,3.197606036166526,0.14064092162265746
8.399264,3.182010434933641,0.14089817497674664
8.401644,3.1664148337007556,0.14115173556446342
8.40406,3.1565459954534014,0.14122968643578981
8.406444,3.148259949071882,0.14129055693097922
8.408824,3.139042737130586,0.14137746217125505
8.411228,3.1316878563088455,0.14140894640160853
8.413616,3.122842731419886,0.14153328849741992
8.415996,3.1135782976503465,0.14171004040387758
8.4184,3.106967590933281,0.14182268733855907
8.420788,3.0999847971638785,0.1418979055222203
8.423168,3.0932815426481954,0.1419382312068907
8.425572,3.090302950371626,0.14186965769029516
8.427956,3.0949134522001445,0.1415678488786816
8.430336,3.0985927884688835,0.14129129005611704
8.43274,3.0962658224983723,0.1412298053994717
8.435128,3.098734453953613,0.14100989375166406
8.437504,3.1006440069014127,0.14085968623186515
8.439907999999999,3.105719143580885,0.14066619232837382
8.442296,3.1162415039921667,0.14032507460556387
8.444676,3.1224801236568944,0.1401638964194744
8.447072,3.127508038508124,0.14006459047517292
8.44946,3.133047810038551,0.1399903455779739
8.45184,3.1353747760090616,0.14005183023461928
8.454244,3.1419854827261267,0.1399373981547981
8.456628,3.1505982901896092,0.13975494720694248
8.459008,3.157860623212732,0.13965103921419175
8.461412,3.163772481795496,0.13962114003489995
8.463799999999999,3.171406901870957,0.13955270387131438
8.46618,3.1751768900804445,0.139609883807111
8.468584,3.1874671379547967,0.13941297198696406
8.470972,3.202783199933962,0.13920012264576626
8.473352,3.2186111185923236,0.13901534260504103
8.475748,3.2293639005712134,0.1390114377277202
8.478136,3.2441208840429376,0.13887850304867566
8.480516,3.266466961619748,0.13852768308732277
8.482912,3.2889528088234186,0.1381673805873607
8.4853,3.3149310008407253,0.13766423069994357
8.48768,3.3413285017386127,0.13712562358106856
8.490076,3.3640013403973863,0.13669336914954294
8.492464,3.3930997901759916,0.1360358009275365
8.494844,3.4232691751412347,0.13533408324797916
8.497248,3.4525073945467,0.1346564610738933
8.499636,3.4856100458181385,0.1338764165931978
8.502016,3.511495690036828,0.13333710534060422
8.50442,3.5350996942553814,0.1328936147094797
8.506808,3.557632763287294,0.1324819831520184
8.509188,3.5855205082524013,0.13188097728475434
8.511584,3.614898497284727,0.1312071583691273
8.513972,3.6496311622502455,0.13034980897786266
8.516348,3.6755640282971784,0.1297585576725011
8.518744,3.695537813933104,0.12926155260748579
8.521128,3.7142083469569127,0.12875420758616923
8.523524,3.7335777281150238,0.12817503883130518
8.525924,3.7501536125937998,0.12766871982600012
8.528312,3.7646348485275416,0.1271662330384803
8.530692,3.7781849189015047,0.12668738675302252
8.533096,3.7886619533424133,0.12630360124080253
8.535484,3.796345491103986,0.12598056791681903
8.53786,3.802026928119142,0.12570783473832725
8.540256,3.8035643940146047,0.12555728999552693
8.54264,3.806172795096706,0.12537472302896743
8.54502,3.811202605805804,0.12510210037267985
8.547416,3.8115765887160107,0.12492335295662493
8.549804,3.8185159523729086,0.12453890077533322
8.55218,3.8270853297238867,0.12407040259293958
8.554584,3.83928682151536,0.12346901361940628
8.556972,3.8485550470006387,0.1229427145032431
8.559352,3.8548900061797218,0.12248596518826402
8.561755999999999,3.8581519294257496,0.12211274884985251
8.56414,3.8656975934183313,0.12161908522288441
8.56652,3.8778990852098048,0.12103836997620927
8.568923999999999,3.889681268120698,0.12049735898346975
8.571308,3.8998334373375116,0.12003768876445085
8.573692,3.9099856065543253,0.11957902329896754
8.576084,3.9183679924501997,0.11921776872189185
8.578472,3.9275417742789918,0.11885414757140529
8.580868,3.9376467216675626,0.11847586539126873
8.583264,3.9476118994292726,0.11810833077697365
8.585652,3.9585082427507614,0.11771871753357187
8.588032,3.966471319766055,0.11738998022629621
8.590436,3.9725720656617916,0.11709681221704837
8.59282,3.9734579052511965,0.11694291221986626
8.5952,3.9792791118932125,0.1166772410182982
8.597596,3.980816577788675,0.11653417835842476
8.599984,3.97993263405714,0.11647691896550602
8.602364,3.9764875110717472,0.1165173739098018
8.604768,3.975044488832771,0.11651159963084778
8.607156,3.975603567340212,0.11646056296145607
8.609532,3.9763024154745126,0.11639690203446056
8.611936,3.9735089187951784,0.11644480568975792
8.614324,3.9660595943169517,0.11657262042551463
8.616704,3.955444686107053,0.11671584053759232
8.6191,3.9443179212179555,0.11683944226276116
8.621488,3.9339825522617775,0.11695839938679001
8.623868,3.923275096253261,0.11704273164230371
8.626263999999999,3.9117762443118274,0.11712947062012068
8.628652,3.8970645868104774,0.11730561252747419
8.631032,3.883144325242045,0.11747975849810716
8.633428,3.869503602927334,0.11762977841194831
8.635816,3.8606584780383746,0.11768385608809945
8.638212,3.85460684982875,0.11768673689568068
8.640616,3.8524196534850996,0.11760973437531419
8.643,3.846088486021755,0.11763872405715234
8.64538,3.8396175489315496,0.11768177014526868
8.647784,3.8340777774011228,0.11770864306559836
8.650172,3.8336131425501687,0.11761186766207128
8.652552,3.8297959325124387,0.11761666570882749
8.654948,3.826490579153906,0.11764310616391392
8.657335999999999,3.8244884784074893,0.11768804771611793
8.659716,3.824628248034349,0.1176752621137606
8.662112,3.8302152413930193,0.11757850908187766
8.664496,3.8426924807224747,0.11740466015639872
8.666879999999999,3.8607567134106002,0.1171381922711257
8.669272,3.876818845352309,0.1169156495551365
8.67166,3.8933928339732153,0.11671475670135584
8.67404,3.9108979881539,0.11650036891335833
8.676444,3.9336180486409167,0.11615757839298513
8.678828,3.959550914687849,0.11573618297065916
8.681208,3.9913503133471724,0.11521004865177803
8.683604,4.024639956073715,0.1146364414792977
8.685992,4.058209138053978,0.11405319114201093
8.688388,4.090847154474462,0.11348680378952669
8.690784,4.12162283977539,0.11293778150920392
8.693168,4.152678064330036,0.11235955238561908
8.695548,4.186294468138543,0.11169939127435165
8.697952,4.211250842655324,0.11119858937350874
8.700336,4.237697461239323,0.11063286257169115
8.702716,4.257625920904875,0.1101613849126255
8.705119999999999,4.275459732025393,0.10967529006444122
8.707508,4.289988189787378,0.10920947750207699
8.709888,4.300000589377331,0.10880582035556313
8.712292,4.306428096355032,0.10845141753638557
8.714676,4.306337444414284,0.10819674012012921
8.717052,4.306526331727258,0.10791689528543146
8.719448,4.309136628667228,0.10756289020837995
8.721836,4.307742724114364,0.10728738000919828
8.724216,4.299271582135611,0.10715826136169851
8.72662,4.286004842731106,0.1071103686571851
8.729004,4.267802736273991,0.10715077645506904
8.731384,4.242383622764124,0.10734442340969247
8.733788,4.211609833321066,0.10766632345808345
8.736172,4.184188619064782,0.10789204517430041
8.738552,4.163984411861248,0.1079633308758742
8.740956,4.144851139844354,0.10800888759937241
8.743344,4.1243673933871,0.10809712878648041
8.745724,4.110821114728876,0.1080606844245775
8.748128,4.095132965697373,0.10807288251488946
8.750512,4.090526255584594,0.10787536841670763
8.752892,4.086431402151012,0.10769938089366721
8.755296,4.086573067635741,0.10749496954646845
8.75768,4.0884372946131675,0.10727609453188806
8.76006,4.091512226404092,0.1070224534442143
8.762456,4.099103216367048,0.10671725483554502
8.764844,4.1085565374495605,0.10638770793352176
8.767224,4.1157282185319355,0.10612019994490927
8.769627999999999,4.12983736741334,0.10573397139464819
8.772016,4.153957020026829,0.10517223979177631
8.774396,4.180870169319652,0.10457357481218565
8.776792,4.206572613798977,0.10400804048064576
8.77918,4.237070655704054,0.10336154543041923
8.78156,4.273574999848381,0.1026034260402308
8.783956,4.3015118624996,0.10203471501157603
8.786344,4.323023114030987,0.1016157775026154
8.78874,4.345977387801351,0.10121054824246448
8.791136,4.365718856011799,0.10087440490588076
8.793524,4.382107749035471,0.10062508136018582
8.795904,4.4031524698580355,0.10031676955094623
8.7983,4.417631809933908,0.10016545241760925
8.800688,4.431831610756061,0.10003561910759265
8.803068,4.443237914898878,0.09994113376162495
8.805472,4.457717254974751,0.09979261676779069
8.80786,4.470985890237124,0.09967886584704981
8.81024,4.484534064753219,0.0995463778171223
8.812636,4.498873635202231,0.09941601356021369
8.815024,4.514144371211021,0.09927544853490909
8.817404,4.526342071286756,0.0991918119113418
8.819808,4.528669037257266,0.09925577383124903
8.822196,4.529925068041139,0.09934052346464238
8.824576,4.536256235504484,0.09934270419472825
8.826972,4.5456604389008834,0.09929545639901256
8.82936,4.553202311177727,0.09926924863670027
8.83174,4.567169794574403,0.09912039532492378
8.834144,4.586631723531131,0.09886177159954848
8.836532,4.603719464689105,0.09860326074275137
8.838912,4.624159781033854,0.09827311793167907
