Time,Force,Position
14.912644,0.12473814515276954,0.0
14.915040000000005,0.11834821624789793,0.0
14.91744,0.11410015771630336,0.0
14.919832,0.10892093362493047,0.0
14.922228000000004,0.10080844322736242,0.0
14.924644,0.08976268652359919,0.0
14.927032000000011,0.07843739056611554,0.0
14.929432000000006,0.06818302979527041,0.0
14.93182800000001,0.0588598345842036,0.0
14.934228000000004,0.05032803530605491,0.0
14.936628,0.04286717121454476,0.0
14.93901600000001,0.03419560230953586,0.0
14.941416000000004,0.025384263777666748,0.0
14.943816000000012,0.01685246449951806,0.0
14.946204000000009,0.01246463634106328,0.0
14.948588,0.0052833115032735415,0.0
14.950984000000004,0.003037353718095826,0.0
14.953376000000006,0.0,0.0
14.955756000000008,0.0,0.0
14.95816400000001,0.0,0.0
14.960556000000013,0.0,0.0
14.962940000000003,0.0014545618522596047,0.0
14.965348000000006,0.0019779581447408887,0.0
14.967736000000002,0.004503455183639024,0.0
14.970120000000009,0.00782034815545527,0.0
14.972536000000003,0.010997471500411304,0.0
14.974924,0.014034825218507132,0.0
14.977308000000008,0.016141013376824637,0.0
14.979708000000002,0.016141013376824633,0.0
14.982100000000004,0.016141013376824633,0.0
14.984480000000003,0.016141013376824637,0.0
14.98688,0.018526740788862565,0.0
14.989272,0.018526740788862562,0.0
14.991656000000006,0.018526740788862562,0.0
14.994056,0.021052237827760698,0.0
14.996448,0.02544006598621547,0.0
14.998832000000007,0.02889672858489193,0.0
15.001232000000002,0.032353391183568385,0.0
15.003620000000012,0.03688098896888337,0.0
15.006004000000004,0.04233975231397668,0.0
15.008404,0.044865249352874816,0.0
15.01079200000001,0.046587810845571245,0.0
15.013180000000006,0.051243638644462845,0.0
15.01557600000001,0.05082432976388221,0.0
15.017964000000006,0.051755495323660534,0.0
15.020348000000013,0.04989316420410389,0.0
15.022744000000005,0.04845014196512788,0.0
15.025132,0.04886945084570852,0.0
15.027516000000006,0.0533970486310235,0.0
15.02991200000001,0.05606231529678185,0.0
15.032300000000006,0.057796416402761876,0.0
15.034684,0.05541068899072396,0.0
15.037084000000007,0.05541068899072396,0.0
15.039472000000004,0.05541068899072396,0.0
15.04185600000001,0.052885191951825825,0.0
15.044256000000004,0.04849736379337105,0.0
15.046644,0.04504070119469459,0.0
15.049024000000005,0.04158403859601813,0.0
15.051424000000011,0.038790541916683165,0.0
15.053812000000008,0.03492611005070967,0.0
15.056196,0.037067980423986735,0.0
15.058592000000004,0.039908698931564845,0.0
15.060984000000005,0.03967638150608757,0.0
15.063364000000009,0.03879243777455241,0.0
15.065776,0.03576662366974018,0.0
15.06816400000001,0.03967827736395682,0.0
15.070548000000002,0.04223945661781451,0.0
15.072948000000013,0.04279853512525535,0.0
15.075340000000011,0.04121574325941913,0.0
15.077724000000003,0.04442854881933472,0.0
15.080120000000008,0.04857251993902864,0.0
15.082512000000008,0.05431082253784236,0.0
15.08489200000001,0.05911795957687777,0.0
15.087292000000003,0.06285416142927465,0.0
15.08968,0.06551942809503299,0.0
15.092064000000008,0.07018679550720819,0.0
15.094464000000002,0.07699603329266044,0.0
15.096852000000013,0.07966129995841878,0.0
15.099236000000005,0.07792719885243878,0.0
15.10163200000001,0.0788583644122171,0.0
15.10402400000001,0.07578532847916171,0.0
15.106408000000002,0.06976748662662757,0.0
15.108804000000006,0.06482057996073194,0.0
15.111192000000004,0.06477335813248879,0.0
15.113576000000007,0.06355111370570646,0.0
15.115976000000003,0.058324667786090426,0.0
15.118368000000004,0.05416915705311291,0.0
15.12075200000001,0.052399373732173335,0.0
15.123148,0.050769360038093965,0.0
15.12554,0.04741678485131816,0.0
15.127920000000003,0.04299327447790384,0.0
15.130320000000012,0.041922339291265306,0.0
15.132708000000008,0.04192233929126529,0.0
15.135092,0.04513514485118088,0.0
15.137492000000009,0.05035005115751333,0.0
15.139880000000003,0.0526316911576506,0.0
15.142268,0.05170052559787228,0.0
15.14466800000001,0.056915431904204714,0.0
15.147056000000006,0.06586654006293403,0.0
15.149444000000004,0.06828794968993152,0.0
15.151844000000011,0.07350285599626395,0.0
15.154232000000007,0.08138302896835474,0.0
15.156624000000008,0.08833203638066721,0.0
15.159024000000002,0.09410602119444049,0.0
15.161412000000013,0.10012386304697464,0.0
15.163800000000007,0.10507076971287026,0.0
15.166200000000003,0.1070844100725707,0.0
15.168588,0.10764348858001155,0.0
15.17098,0.10634023596789575,0.0
15.173388000000005,0.10381473892899762,0.0
15.175776,0.10236017707673802,0.0
15.178176000000008,0.09769280966456283,0.0
15.180576000000002,0.09288567262552742,0.0
15.182964000000013,0.08593666521321495,0.0
15.185360000000005,0.07805649224112417,0.0
15.187760000000011,0.07110748482881168,0.0
15.190148000000008,0.06522941260313775,0.0
15.192548000000002,0.05734923963104697,0.0
15.194944000000008,0.04839813147231765,0.0
15.197336000000009,0.04345122480642203,0.0
15.199736,0.03664198702096977,0.0
15.20214,0.02876181404887898,0.0
15.20452800000001,0.021812806636566515,0.0
15.206932000000007,0.014863799224254045,0.0
15.20932400000001,0.008845957371719894,0.0
15.211724000000004,0.003899050705824277,0.0
15.214120000000008,0.00188541034612383,0.0
15.216512000000009,1.1539613283594389e-05,0.0
15.218912000000005,0.0,0.0
15.221308000000008,0.0,0.0
15.223696000000004,0.0025254970388981354,0.0
15.226096000000013,0.009194965197490183,0.0
15.228492000000005,0.01679559891586055,0.0
15.23088,0.023465067074452596,0.0
15.233264000000004,0.0322764056063217,0.0
15.235664,0.0409479745113306,0.0
15.238056,0.04920023453575888,0.0
15.240436000000004,0.057592264187047354,0.0
15.242836000000011,0.061700553091781705,0.0
15.245224000000007,0.06795071236979314,0.0
15.247608,0.0723385405282479,0.0
15.250008000000008,0.0777973038733412,0.0
15.252400000000009,0.08339583684529472,0.0
15.25478000000001,0.0869922690708314,0.0
15.257180000000004,0.08699226907083141,0.0
15.259572000000006,0.09035448801302154,0.0
15.261956000000012,0.10148900079966336,0.0
15.264352000000002,0.12980001082715706,0.0
15.26674,0.1737991698861527,0.007171137395787122
15.269124000000003,0.22301133939361162,0.014501176999540153
15.271524,0.27034774231036107,0.02266874770224509
15.27391200000001,0.31702872720531405,0.031799918728214124
15.276296000000002,0.37664969042280805,0.04057548711616038
15.27869600000001,0.452702976776479,0.0488725124066959
15.281084000000009,0.5389971884298422,0.056788319470057635
15.283468,0.626500209038835,0.0650465768327073
15.285864000000004,0.7186571615888501,0.07352586437455283
15.288256000000004,0.8189584950356542,0.08218100466043225
15.29064000000001,0.9441198634848834,0.09025126789504365
15.293036,1.084457524286417,0.09787449375017533
15.295428,1.2320102962828305,0.10551541717820948
15.297812000000008,1.3871030446982182,0.11319340706160749
15.300212000000002,1.556346476249646,0.1208022347297849
15.302600000000012,1.7415103742580529,0.12831919587865315
15.304988000000009,1.9427932697918262,0.1356903128295582
15.307388000000005,2.1438795301150817,0.14302441732310145
15.309780000000003,2.338823510287965,0.15026988939714575
15.31216400000001,2.510120056129791,0.15760083020302545
15.31458400000001,2.6651693744326743,0.15781556190289361
15.316972000000009,2.821104532324962,0.15775299686547312
15.319356,2.9806737005156148,0.15671426384060624
15.321776,3.1336359537049407,0.1546744613035257
15.32416400000001,3.269980788160856,0.152983295540391
15.326552000000008,3.3810009527633915,0.15197664067630506
15.328952,3.4741910979611488,0.15148187980485225
15.331344,3.566172434203276,0.1506592626050222
15.333728000000008,3.6487042410786286,0.14980390585664435
15.336124000000012,3.7270958685500264,0.14862416740736867
15.338512000000009,3.7808144524741025,0.1480983001602205
15.34089200000001,3.8073441395673733,0.14836012753186675
15.343288,3.8281017377047397,0.1486530846413483
15.345680000000002,3.8330314171837445,0.1492121609727914
15.348060000000004,3.8200857512875954,0.14995706905697936
15.350456000000008,3.7955033596810215,0.15067372782507965
15.352844000000005,3.7566758412819214,0.15158552585520604
15.355224000000009,3.7196181062037614,0.1523364058746465
15.357620000000011,3.678276630379047,0.15325512147257217
15.360008000000008,3.6410319038457835,0.1541349199682844
15.362392,3.6009011328345677,0.15506007899840846
15.364788000000004,3.5518780151061495,0.15620943219517044
15.367176,3.499362552564096,0.1574800922231092
15.369556000000005,3.4523396397242245,0.15873726447449832
15.371956000000011,3.4045706569218104,0.1602003825140555
15.374344000000008,3.3730035756879646,0.16122827641812956
15.37672400000001,3.3500493019176014,0.16206159396332442
15.37912,3.3297487551997125,0.16281696083221345
15.381512,3.325325244826298,0.16300369958456945
15.383892000000005,3.3138244970269946,0.16344102960908033
15.386288000000008,3.30148513146653,0.16399281080951011
15.388676000000004,3.3007390615039855,0.1641588490255828
15.391056000000006,3.3029262578476364,0.16421817204424635
15.39345200000001,3.320338864229704,0.1636846124994768
15.395840000000009,3.3437577728510224,0.1629209431691675
15.398224,3.364103645539285,0.16228858097179877
15.400620000000004,3.390408598638555,0.16152262713963564
15.403008,3.4101481709911337,0.1610538035985803
15.405392000000006,3.435055427821802,0.160458159593627
15.407796000000005,3.4669927002501164,0.1596920683566805
15.410184,3.5030267219698814,0.15882978809789408
15.412568000000007,3.5392930611151234,0.15798206308281637
15.414972000000006,3.5768626528724807,0.15714852064080176
15.417356000000012,3.616434345376255,0.15627276234645068
15.419740000000004,3.6645735193731386,0.15504166868884536
15.422136000000007,3.703540807399099,0.1541081382971474
15.424524000000003,3.7412048428129427,0.15319276166615498
15.426908000000012,3.7770065471072307,0.15234500437163484
15.429304000000002,3.801075186176737,0.1519138154123167
15.431692000000012,3.8314296667392154,0.15125977024624718
15.434072,3.8677904495409434,0.1503872605822082
15.436468000000003,3.903871693088952,0.14955584614608514
15.438856,3.9395336277563793,0.1487828885187117
15.441240000000008,3.966767850557559,0.14833843092693336
15.443636000000012,3.9895785629853235,0.14806399514545265
15.446024000000008,4.009176469853172,0.1478948610273983
15.448408,4.023327152989212,0.14786020575741565
15.450804000000003,4.043623907991362,0.14762551081087
15.453196000000004,4.064339971874094,0.14735922828541073
15.455576000000008,4.080679747211653,0.14719092661529048
15.457976000000002,4.096787205123736,0.14697978173360626
15.460364000000013,4.1225330797155655,0.14645378815797097
15.462744,4.148186406508779,0.14587941198441384
15.465140000000003,4.171605315130096,0.14533555576403442
15.467528,4.191579100766021,0.1448694307265717
15.469912000000008,4.214625922335002,0.1443112138422443
15.472308000000012,4.232597607224511,0.14389087749644872
15.4747,4.253223019166494,0.14342699527777064
15.47708,4.2766419277878125,0.14290177009382804
15.47948000000001,4.2960566349162965,0.14249208492551427
15.481868000000006,4.314400406858144,0.14211741892839155
15.484252000000012,4.330369991001235,0.14176521119165486
15.486648000000002,4.346247027345709,0.14136388804611902
15.489036,4.363893847011123,0.14087063070684044
15.491420000000003,4.385964177049952,0.14023933256720317
15.49381600000001,4.411387082275556,0.13948590114640277
15.496204000000006,4.441093728247714,0.1386081644135187
15.498584000000008,4.466144546420981,0.13784258828132062
15.500984000000004,4.487610471981996,0.13715043984377792
15.503372,4.507214066423452,0.1364954075956433
15.505752,4.526538121611188,0.13586768492219717
15.50815200000001,4.536503299372899,0.13550346706310779
15.510540000000006,4.547120103440667,0.13515040620069116
15.512924000000012,4.555874576388879,0.13483717421541577
15.515320000000004,4.560485078217397,0.13463107686842404
15.517708,4.565747206351972,0.13443153263331786
15.520092000000004,4.578226341539297,0.13404981119930534
15.52248800000001,4.590473159301145,0.133636317609
15.524876000000006,4.6006253285179595,0.13321972639186508
15.527260000000012,4.610125871428715,0.13279599461910344
15.529656000000005,4.622047823966469,0.1322967089997079
15.532044,4.635552568370057,0.13178531368002505
15.534428000000004,4.6462638160943115,0.13132705498111122
15.53682400000001,4.653902027885511,0.13094224041695582
15.539212000000006,4.657256498930156,0.13067064491247182
15.541596000000013,4.661122826653998,0.13041585034894215
15.543996000000009,4.659122621765451,0.13028394439159488
15.546384000000003,4.656470790570847,0.13014585527898787
15.54876800000001,4.657264082361633,0.12996455018191894
15.551164,4.658197143779281,0.12977068032700126
15.55355200000001,4.655917399637013,0.12966044939451313
15.555936000000004,4.654708590681383,0.12952110994330848
15.558336000000011,4.647121392434166,0.1294912649866573
15.560724000000008,4.639534194186949,0.12946068237504768
15.563108,4.633390018178707,0.12943094475195507
15.565504000000004,4.626594215864407,0.12939478626935588
15.567896000000005,4.613372802430277,0.12953189116083208
15.570276000000009,4.5962869571301725,0.12974615833856912
15.572676,4.5795731988824055,0.12998863525908308
15.575064000000012,4.564674549925954,0.13026141853243345
15.577448000000004,4.547214721715642,0.1306217879657127
15.579848000000013,4.530174202385912,0.1309456400186299
15.582236000000009,4.516066949362377,0.13120545217541477
15.58462,4.5096885600707886,0.13130744887745827
15.58702000000001,4.507454141898894,0.13131088560178616
15.589408000000006,4.507361594100277,0.13125992221733931
15.591788000000008,4.51271627003347,0.13112415350539716
15.594184000000013,4.521935377832637,0.1309155111729463
15.596572000000007,4.528640528206189,0.1307342600388457
15.598956,4.53930265824433,0.1305312587291589
15.601352000000006,4.554900155335084,0.13022681153691817
15.603740000000002,4.5727792924259765,0.1298574982817562
15.606120000000004,4.5965249621292585,0.12936978610189787
15.608516000000009,4.6186406181384605,0.1289510793850559
15.610908000000007,4.6415476700805804,0.12852397735707238
15.613288000000011,4.665757974634817,0.1281127912726628
15.615684000000002,4.695742264002826,0.12753504418658324
15.618072000000012,4.729730754863669,0.12688011253007306
15.620456000000004,4.763859015351373,0.12621512120900816
15.622852000000009,4.799757059160016,0.12547599608031612
15.625240000000003,4.832861606289324,0.12477421740604869
15.627624000000012,4.864103822299075,0.12410582365443572
15.630024000000006,4.89320416793555,0.12349687966490697
15.632408000000012,4.91229400983994,0.12310022658447067
15.634792000000004,4.9278915069306946,0.12280501395496778
15.637192,4.943628773648308,0.12250461086778122
15.63958000000001,4.957923018126947,0.12220613799388066
15.641960000000012,4.971286097045807,0.12192831487497754
15.644356000000002,4.984369636710947,0.12167209373135594
15.646748000000002,4.992937118204056,0.1214758781409357
15.649132000000009,5.0008529733911065,0.12127519005103686
15.651528,5.007837663018379,0.12108935039021579
15.65391600000001,5.011749316712596,0.12096610222326407
15.656296000000012,5.017430753727752,0.12076699762149891
15.658696000000006,5.023671269250349,0.12052671421746028
15.661080000000013,5.02888807141455,0.12025386457185518
15.663464000000005,5.029821132832198,0.12007736491983692
15.665864,5.028332784622847,0.11996899304826779
15.668248000000006,5.027775601973275,0.11984770874997724
15.670632000000012,5.024005613763787,0.11979555945812753
15.673028000000002,5.026241927793551,0.11963575260262775
15.675416000000013,5.027267537009816,0.11950808210281358
15.677796,5.030295246972498,0.11934504966204906
15.6802,5.039469028801291,0.11906261829057875
15.68258800000001,5.049993285070441,0.11873575820082444
15.684972000000002,5.054511239100342,0.1185171437713052
15.687368000000006,5.059960358690021,0.11828770700365879
15.689756000000004,5.0601945719733665,0.1181630256955575
15.692140000000007,5.059637389323796,0.11804112841109428
15.694536,5.0613618466743615,0.11786227744248082
15.69692400000001,5.060013268091873,0.11774282225896007
15.699304000000012,5.061597955815578,0.11757517064235248
15.701704000000008,5.0639740394722015,0.11740416434667707
15.704092000000005,5.066070583875104,0.11725361136611893
15.706472000000003,5.071100394584202,0.11705656508451352
15.708872,5.073289486785722,0.11695401427185032
15.71126000000001,5.077480679733659,0.11681616430860141
15.713640000000012,5.0799493111889,0.11669364949833157
15.716040000000008,5.08227817301728,0.1165817215281777
15.718428000000005,5.084467265218801,0.11647917071551449
15.720808000000003,5.083723091114126,0.11642499367225966
15.72320400000001,5.088193823315784,0.11626929961651304
15.72559600000001,5.092804325144302,0.11610577324073788
15.727976000000012,5.092339690293348,0.11603235479951937
15.730376000000009,5.094808321748588,0.11591359573073559
15.732764000000005,5.104074651375997,0.11569067057510136
15.735144000000004,5.107986305070215,0.11557630104753092
15.73754000000001,5.1160419298841235,0.11538288017608593
15.73993200000001,5.12568034656387,0.11518457926237126
15.742312000000013,5.1369015551094535,0.11498319385288325
15.744708000000005,5.154920461827205,0.1146811040613422
15.747096,5.167864231865484,0.11446887245006608
15.749480000000004,5.182949872277041,0.11421513494358723
15.75187600000001,5.19589364231532,0.11400290333231111
15.754264000000006,5.201620405300851,0.11392192180802381
15.756648000000013,5.209908347540238,0.1137676964130004
15.759044000000005,5.214192088286792,0.11368037420416244
15.761432,5.216613497913789,0.11361652242034714
15.763816000000006,5.218103741981009,0.11356505588769208
15.76621200000001,5.224808892354561,0.11341488986062315
15.768600000000006,5.231094733847533,0.11329380024270753
15.770984,5.2363096401538645,0.11319662410708463
15.773380000000005,5.236309640153865,0.11319662410708463
15.775768,5.242315942393116,0.11309714468373558
15.778152000000006,5.242315942393116,0.11309714468373558
15.780552,5.24059338090042,0.11311064459198186
15.78294000000001,5.243434099407997,0.11302045536993294
15.78532,5.242270616422742,0.11299576201828891
15.787720000000007,5.240735046385148,0.11294433419501067
15.790108000000004,5.240689720414774,0.11284398296068233
15.79249200000001,5.233846696272232,0.1128410889214487
15.794888,5.230356247316465,0.11276701513879524
15.79727600000001,5.225003467241141,0.1127150495025968
15.799660000000005,5.228730025338123,0.1125194035745993
15.802056000000007,5.241396151980551,0.11219030719395005
15.804448000000008,5.255784840115677,0.11185161476451641
15.80682800000001,5.273246564183857,0.11145946365430816
15.809228000000004,5.294712489744871,0.11100413326240641
15.811616,5.315387019372967,0.11054964262228575
15.814000000000007,5.3309864123215895,0.11018125046976478
15.816396000000012,5.346213718217875,0.10978569161852067
15.818784000000008,5.359159384114024,0.10944124488364307
15.82116400000001,5.376528560383586,0.10900661572839798
15.82356,5.392035405533593,0.10859887617997707
15.825948000000013,5.412617387363072,0.10811063871673099
15.828332000000003,5.431197268446134,0.10765383580104318
15.830728000000008,5.448566444715696,0.10722840111203265
15.833116000000004,5.475014959157566,0.10667049999463504
15.83550000000001,5.503186035092132,0.10610722568494448
15.837900000000005,5.524279873600808,0.10565083656855946
15.840284000000011,5.54751558248276,0.10515500843433744
15.842668000000003,5.568749190618297,0.10469056117190584
15.845068000000012,5.590122568380693,0.10421855122405356
15.847456000000008,5.604698247970922,0.10384170723607099
15.84983600000001,5.613686934202479,0.10352542379565434
15.852232,5.62337446856834,0.10317026340831914
15.854620000000011,5.634272707747696,0.10279066158305213
15.857,5.644239781367277,0.10242175451024293
15.859400000000008,5.657419660546772,0.10200298998977433
15.861788000000004,5.671018848606847,0.1015577433019188
15.864168000000006,5.685828741480422,0.10108767514453439
15.866564000000013,5.6982644465552434,0.10061557065922971
15.868956000000011,5.707627115697008,0.10018706117093393
15.871340000000004,5.716058619278994,0.09976902727284105
