Time,Force,Position
11.438947999999998,0.08740297919078346,0.0
11.44134,0.08740297919078346,0.0
11.443736,0.08691767831467243,0.0
11.44612,0.08657214706542159,0.0
11.4485,0.08301381025625516,0.0
11.450904,0.07731360307381167,0.0
11.453292,0.07254456145114652,0.0
11.455671999999998,0.06777551982848136,0.0
11.458076,0.06407741339245472,0.0
11.46046,0.05930837176978956,0.0
11.462839999999998,0.0546790997739846,0.0
11.465244,0.04632516553906636,0.0
11.467632,0.03610890018459148,0.0
11.470012,0.02575286520325638,0.0
11.472408,0.019540801341615205,0.0
11.474796,0.013328737479974028,0.0
11.477175999999998,0.0071166736183328515,0.0
11.47958,0.0016960056896097844,0.0
11.481964,0.0,0.0
11.484348,0.0,0.0
11.486752,0.0,0.0
11.489136,0.0,0.0
11.491516,0.0,0.0
11.49392,0.0,0.0
11.496304,0.0,0.0
11.498684,0.0,0.0
11.50108,0.0,0.0
11.503468,0.0,0.0
11.505843999999998,0.0,0.0
11.508248,0.0,0.0
11.510636,0.0,0.0
11.513016,0.0,0.0
11.51542,0.0,0.0
11.517804,0.0,0.0
11.520184,0.0,0.0
11.522588,0.0,0.0
11.524976,0.0,0.0
11.527356,0.0,0.0
11.52976,0.0,0.0
11.532148,0.0,0.0
11.534528,0.0,0.0
11.536931999999998,0.0,0.0
11.539319999999998,0.0,0.0
11.5417,0.0,0.0
11.544104,0.0,0.0
11.546487999999998,0.0,0.0
11.548872,0.0,0.0
11.551268,0.0,0.0
11.553652,0.0,0.0
11.556032,0.0,0.0
11.558436,0.0,0.0
11.560823999999998,0.0,0.0
11.563204,0.0,0.0
11.565599999999998,0.0,0.0
11.567987999999998,0.0,0.0
11.570368,0.0,0.0
11.572764,0.0,0.0
11.575152,0.0,0.0
11.577528,0.0,0.0
11.579924,0.0,0.0
11.582312,0.0,0.0
11.584692,0.0,0.0
11.587084,0.0,0.0
11.589472,0.0,0.0
11.591864,0.0,0.0
11.594256,0.0,0.0
11.596644,0.0,0.0
11.599036,0.0,0.0
11.601439999999998,0.0,0.0
11.603827999999998,0.0,0.0
11.606208,0.0,0.0
11.6086,0.0,0.0
11.610988,0.0,0.0
11.613368,0.0,0.0
11.615764,0.0,0.0
11.618152,0.0,0.0
11.620532,0.0,0.0
11.622936,0.0,0.0
11.62532,0.0,0.0
11.6277,0.0,0.0
11.630096,0.0,0.0
11.63248,0.0,0.0
11.634876,0.0,0.0
11.637272,0.0,0.0
11.63966,0.0,0.0
11.64204,0.0,0.0
11.644436,0.0,0.0
11.646824,0.0,0.0
11.649204,0.0,0.0
11.6516,0.0,0.0
11.653988,0.0,0.0
11.656384,0.0,0.0
11.658779999999998,0.0,0.0
11.661164,0.0,0.0
11.663544,0.0,0.0
11.66594,0.0,0.0
11.668324,0.0,0.0
11.67072,0.0026743930776312558,0.0
11.673124,0.011355088394513064,0.0
11.675508,0.02403998520422858,0.0
11.677891999999998,0.03672488201394409,0.0
11.680284,0.04833884363702107,0.0
11.682667999999998,0.05902163970031973,0.0
11.685048,0.06863350057697985,0.0
11.687444,0.07824536145364,0.0
11.689832,0.08585512158388328,0.0
11.692212,0.09518744320682299,0.0
11.694608,0.10531116076268081,0.0
11.696996,0.11650581350517716,0.0
11.699388,0.12662953106103497,0.0
11.701792,0.13661347899003257,0.0
11.70418,0.14645765729216997,0.0
11.706559999999998,0.15322879966125202,0.0
11.708956,0.15920854609741594,0.0
11.711344,0.16532806216044005,0.0
11.71372,0.17130780859660397,0.0
11.716116,0.17300381428621375,0.0
11.718504,0.1703294212085825,0.0
11.720884,0.16164872589170068,0.0
11.72328,0.14896382908198516,0.0
11.725668,0.13627893227226967,0.0
11.72806,0.12466497064919267,0.0
11.730455999999998,0.11398217458589398,0.0
11.732843999999998,0.10437031370923387,0.0
11.735224,0.09475845283257374,0.0
11.737628,0.08714869270233044,0.0
11.740016,0.07781637107939074,0.0
11.742396,0.06769265352353292,0.0
11.744792,0.05649800078103656,0.0
11.747179999999998,0.046374283225178746,0.0
11.749556,0.03639033529618114,0.0
11.751952,0.026546156994043734,0.0
11.75434,0.019775014624961715,0.0
11.756732,0.01379526818879781,0.0
11.759128,0.007675752125773692,0.0
11.761516,0.0016960056896097844,0.0
11.763896,0.0,0.0
11.7663,0.0,0.0
11.768684,0.0010424835256826414,0.0
11.771064,0.006274264141433103,0.0
11.773459999999998,0.011132061846976843,0.0
11.775844,0.02506730186695727,0.0
11.778228,0.04351670420109985,0.0
11.780624,0.06685235590174206,0.0
11.783008,0.09451517846144304,0.0
11.785403999999998,0.1331631004255113,0.0
11.7878,0.18307566104766715,0.010274619362442363
11.790188,0.24159913327543595,0.020263414135088042
11.792564,0.3088732867356779,0.029993995736103715
11.794963999999998,0.3864809132942292,0.03943298688204555
11.797351999999998,0.4733510777644513,0.04875649269813427
11.799732,0.5674816793999273,0.05815379808194525
11.802127999999998,0.6723650630142933,0.06728173542386051
11.804516,0.7858593582342722,0.07634928673570096
11.806912,0.9082441043135844,0.08531645267618045
11.809316,1.0393795316253698,0.09421932535542356
11.811704,1.1803365753562667,0.10300245490372391
11.814084,1.3330247884540751,0.11150918870485493
11.81648,1.4928167947808595,0.11989713684121503
11.818868,1.6505594785329833,0.12843217309470975
11.821248,1.8150998604572763,0.1369034073933615
11.823652,1.9704683564106464,0.1455470412602547
11.826036,2.125000130460724,0.15414060838545535
11.828416,2.280372418129832,0.1625242008554457
11.83082,2.4327680093802413,0.17082884693671854
11.833208,2.5733871052933646,0.1791481670854443
11.835588,2.7018103969886216,0.17722378528267438
11.837991999999998,2.8233453385709626,0.1755396365913016
11.840376,2.937060764480609,0.17408331247755496
11.842756,3.0407222565456653,0.17288696620716637
11.845159999999998,3.1371233114454684,0.17173110523327167
11.847547999999998,3.229336965113073,0.17038436068581211
11.849928,3.3073054919881515,0.1694708321588757
11.852324,3.3753126328172582,0.16869474956650377
11.854712,3.433218617973533,0.16808130152459427
11.857092,3.483444857083973,0.16748570906895738
11.859488,3.521707609402024,0.16710329007462493
11.861876,3.544607077912668,0.1671912760460449
11.864252,3.558940960788073,0.16744788520678888
11.866656,3.5751390706409025,0.16739499281420112
11.869044,3.5862639396721305,0.16732642192911512
11.871424,3.601627223479538,0.16691750278620207
11.873827999999998,3.6162463331822705,0.16645649504087814
11.876216,3.625930075832391,0.166192221516951
11.878596,3.6393384807216247,0.1658251171574668
11.880999999999998,3.6535382815437765,0.1654433387305297
11.883387999999998,3.6706713486721236,0.16496344806519242
11.885768,3.685802315054054,0.1645579285249336
11.888163999999998,3.701724677368903,0.164145054500475
11.890548,3.7181588963629495,0.16375226176961474
11.892932,3.7308684531178824,0.16347195838500364
11.895328,3.7386426428202033,0.1633614021022407
11.897716,3.756055249202271,0.16287609292948768
11.900096,3.7806848626370875,0.16214217019121077
11.902492,3.8074563464451816,0.16132279585149525
11.90488,3.8312945639470803,0.1605964746094763
11.90726,3.8546209247697814,0.15983453774043094
11.909664,3.8841405792868366,0.15876332599608778
11.912048,3.9152902474979707,0.15759238687622806
11.914428,3.941504548656493,0.15660687237219514
11.916835999999998,3.9655769794417384,0.15571057027619195
11.91922,3.984714043174371,0.154992024411226
11.9216,4.002919941347226,0.15431591328752645
11.923996,4.019403278027385,0.153676033230045
11.926384,4.029600773214573,0.15326820833409013
11.928764,4.038075706909064,0.15289403537877294
11.931168,4.04389691355108,0.15258347087519353
11.933556,4.052139529820095,0.15216968651123547
11.935936,4.056797253476856,0.15184064744935025
11.938339999999998,4.05987218526778,0.15153319746686073
11.940724,4.064669678551401,0.15118825817148138
11.943104,4.072540207768078,0.15073958343036922
11.945512,4.071610938066169,0.15055936636553904
11.947895999999998,4.05908837276634,0.1507136166753932
11.950276,4.049638843399565,0.15076271190689233
11.952684,4.044193515525625,0.15068912741689222
11.955068,4.0443351810103545,0.15047370300199037
11.957448,4.042846832801004,0.15035056315713888
11.959848,4.040287549405016,0.15026385091022829
11.962231999999998,4.036657330822389,0.15021376403881634
11.964616,4.03381850817268,0.15015394520671604
11.967012,4.032702247015668,0.15006112561772256
11.969399999999998,4.026930158059764,0.15008447647227338
11.97178,4.020087133917221,0.1501465340656889
11.974175999999998,4.013663418655259,0.15016858859851304
11.976563999999998,4.012966466378827,0.1500341343598598
11.978948,4.011058809288897,0.14995025726604808
11.981343999999998,4.005146950706132,0.1499886972659429
11.983731999999998,4.003239293616202,0.14990467545088007
11.986116,4.003985363578747,0.14976392518538917
11.988516,4.0095270309670425,0.14949696733868573
11.990904,4.013718223914979,0.14929430130614504
11.993284,4.023496410221585,0.14895570709229716
11.995679999999998,4.041143229887,0.14838605909860852
11.998067999999998,4.053854682499802,0.14796577209566605
12.000444,4.066286595858884,0.1475797267560919
12.002847999999998,4.076995947725269,0.14723175356280105
12.005235999999998,4.08477203328546,0.1469607284557151
12.007616,4.093479284405428,0.1466696977162139
12.010015999999998,4.1092637729512855,0.1461812461679266
12.012403999999998,4.12705036224356,0.14564190013134704
12.014784,4.142974620416278,0.14514495375967423
12.017188,4.162344001574389,0.14458453924344727
12.019571999999998,4.185857353852193,0.14390026458692995
12.021956,4.210953497995834,0.14319903558807
12.024352,4.23176590139292,0.14264467707920805
12.026739999999998,4.255232031842481,0.14203660211904362
12.02912,4.282562594158016,0.14133176081425083
12.031515999999998,4.307611516473414,0.14071422447924953
12.0339,4.3277250717362,0.1402232626667082
12.036284,4.340249532893898,0.13991611121254893
12.038688,4.353844929238236,0.13957637666369302
12.041071999999998,4.364367289649518,0.139327219342452
12.043452,4.373539175620442,0.13913909169427807
12.045848,4.384573392710921,0.1389107954201662
12.048236,4.389601307562151,0.13883910253374376
12.050616,4.393418517599881,0.13881336272260436
12.053016,4.402171094690223,0.13866239364304928
12.0554,4.410783902153704,0.13852560050575502
12.05778,4.413250637751076,0.138558083446355
12.06018,4.415717373348446,0.13859083893833263
12.062564,4.419115274505597,0.1386043879808449
12.064944,4.422792714916466,0.13859398915356957
12.067348,4.426190616073615,0.13860840653731643
12.069736,4.431870157230903,0.13855128414867146
12.072116,4.437177611335852,0.1384647663457521
12.074516,4.4436957702543,0.13833774384792696
12.076904,4.449422533239832,0.13821907971815398
12.079284,4.455428835479083,0.13807710509110838
12.081687999999998,4.468652144771082,0.1377534114681716
12.084075999999998,4.484668950742417,0.13737211506806535
12.086456,4.500965295967472,0.1369713833691124
12.088852,4.518472346006026,0.13653108905513092
12.091236,4.534117064925023,0.1361252659380746
12.093632,4.548970387911102,0.1357274995121637
12.096028,4.574113753882986,0.13507625509456955
12.098416,4.6001882854146485,0.13440969974287847
12.100796,4.621746758774279,0.13382359018786139
12.103191999999998,4.6414429010143525,0.13327221967630004
12.105576,4.660487416948369,0.13270970019767844
12.10796,4.6778093713896896,0.1321760157431423
12.110359999999998,4.6931292250845935,0.13168475635922025
12.112747999999998,4.705655582100159,0.13124540308429267
12.115128,4.7184614783694485,0.13078952209765937
12.117524,4.726332007586125,0.1304435802360769
12.119908,4.734854163108859,0.13010302012961047
12.122288,4.740443052325398,0.1298257389099398
12.124688,4.745100775982159,0.12956678028998134
12.127076,4.749618730012061,0.1293192867885924
12.129471999999998,4.746268050683155,0.12923865865916226
12.131868,4.743336680234829,0.12912416557301615
12.134251999999998,4.738263439413226,0.1290648957126717
12.136632,4.730536471539148,0.1290433924237536
12.139031999999998,4.724439517359149,0.12894900833665565
12.141419999999998,4.716200692805873,0.12891031662898073
12.143804,4.70023300452065,0.12902093321337252
12.146195999999998,4.684544855489149,0.12910703258497663
12.148583999999998,4.6715104335101225,0.12915594410458567
12.150964,4.660617881904371,0.12915033292958542
12.15336,4.649445791044901,0.12916852660024492
12.155748,4.638785556864629,0.1292034350752281
12.158143999999998,4.63240906343091,0.1291294262729873
12.160548,4.628686297049666,0.12901850879113527
12.162936,4.617886293242533,0.12906560827439106
12.165316,4.611230260555094,0.1290137801979696
12.167712,4.603922601561597,0.12895546501090055
12.1701,4.594752611448542,0.128930480715896
12.172484,4.584232146895129,0.1289560563543631
12.17488,4.5717095815953,0.12902738653904383
12.177268,4.564913779281,0.12898791196813308
12.179647999999998,4.556348193645762,0.12903435414389272
12.182048,4.550855643943578,0.12900710446941557
12.184436,4.5458749509205925,0.12899794617257007
12.186816,4.540195409763304,0.129045970322617
12.189212,4.536657738979295,0.12903774808546511
12.1916,4.534283551180541,0.1290539458123184
12.193979999999998,4.529907262635369,0.12911544749590037
12.196376,4.523528873343781,0.12922226470622833
12.198759999999998,4.515939779238694,0.12936815751088693
12.20114,4.513565591439941,0.1293835874383795
12.203544,4.510679546961988,0.12938095380135148
12.205927999999998,4.5055118624839,0.1294448123709334
12.208308,4.504488149125504,0.12940925547538887
12.210703999999998,4.511612608379636,0.12918948598929167
12.213091999999998,4.514313557260354,0.12909005762637057
12.215488,4.522601499499741,0.12889863639106114
12.217892,4.5386183054710765,0.12856337586946542
12.22028,4.55584581625591,0.1281891756041305
12.22266,4.577357067787297,0.12770959727742798
12.225063999999998,4.597937153758906,0.127251570984676
12.227448,4.622289123797873,0.1266731938316133
12.229832,4.641426187530506,0.1262132919298434
12.232228,4.663776056823054,0.12567705176094301
12.234612,4.688407566115741,0.12508213130732065
12.236996,4.713178845035287,0.12447853424409545
12.239392,4.737717806529357,0.12383260579147075
12.24178,4.766121199889399,0.12312244135530426
12.244155999999998,4.799599729928915,0.1223155424078627
12.24656,4.831215928848874,0.12153316343706218
12.248948,4.8608300270224145,0.12080509556850878
12.251328,4.891375290755734,0.12006846162481588
12.253735999999998,4.92406242486233,0.11928863475577785
12.25612,4.950091630423619,0.11862836974084325
12.2585,4.973187569678712,0.11802873059424514
12.260896,5.002709120053636,0.11729151473645658
12.26328,5.025432972256391,0.11667545587108738
12.26566,5.043640766287115,0.11612514046573466
12.26806,5.0619883299446995,0.11556632048470776
12.270444,5.077402627296089,0.11505925008215255
12.272828,5.092025528714561,0.11455729097909041
12.275228,5.103295854946256,0.11413480859984035
12.277616,5.119129461178226,0.1136018813740312
12.279996,5.132169570730861,0.11310876392213812
12.282396,5.145209680283496,0.11262201868941074
12.28478,5.1589014161421884,0.11214490839126227
12.287164,5.174315713493578,0.11165513812801874
12.28956,5.1849344134192155,0.11123598363520204
12.291948,5.189407041478744,0.11092721109188262
12.294327999999998,5.198163410284824,0.11053482169245221
12.296724,5.2037069735309895,0.1102051290816206
12.299112,5.205897961590378,0.1099478540647413
12.301491999999998,5.205155683343572,0.10973519661584982
12.303888,5.205996196962604,0.10951836152223271
12.306276,5.2066969409547745,0.10931139238882426
12.308659999999998,5.199109742707557,0.10925289336530354
12.311051999999998,5.192453710020118,0.1091831388512602
12.313439999999998,5.189522339571792,0.10906805554776994
12.31584,5.189384465802801,0.10892044422886404
12.318236,5.189898218339869,0.10878070684664043
12.320624,5.19213453236963,0.10862944286877924
12.323004,5.199445983078866,0.10839795143050533
12.325408,5.2061983552806606,0.10820563194745468
12.327796,5.214533519348292,0.10801134851995635
12.330176,5.218724712296228,0.10788696726499285
12.332572,5.223195444497886,0.1077448797004799
12.33496,5.228876881513043,0.10757573452011437
12.337344,5.236420649647755,0.10738569578658712
12.33974,5.248108388902161,0.10712750742084105
12.342128,5.255512387410014,0.10694755907770072
12.344512,5.265198025918004,0.10671890749241078
12.346908,5.279307174799409,0.10640380702395777
12.349296,5.296349589987009,0.10605111298621588
12.351676,5.310598508495273,0.10572610247796076
12.354076,5.326569988496234,0.10539215159367202
12.356464,5.350689641109723,0.10493180043457988
12.358844,5.374529754469491,0.10448635444379449
12.36124,5.388079824843453,0.10420576396397331
12.363628,5.397485924097723,0.10399533899760967
12.366008,5.406892023351993,0.10378491403124603
12.368404,5.414435791486707,0.1035960888903408
12.370792,5.4156937181284475,0.10351375658651388
12.373172,5.418302119210548,0.10339503780541613
12.375572,5.420119124359731,0.10327731500369314
12.37796,5.42528870469569,0.10309404569346557
12.38034,5.42924758021815,0.10293918682032552
12.382736,5.427991549434276,0.10286862738639914
12.385124,5.4265957490235435,0.10280710590890542
12.38752,5.424129013426172,0.10276425420508768
12.389916,5.425247170441053,0.10269243488445604
12.392304,5.430089989695048,0.10258414479058388
12.394684,5.433861873762405,0.10249510812823173
12.397087999999998,5.432418851523428,0.10248690470313306
12.399475999999998,5.437773527456621,0.10239748126947376
12.401856,5.4404744763373385,0.10232672207871465
12.40426,5.438240058165445,0.10231848295073084
12.406643999999998,5.439777524060908,0.10222295974575482
12.409024,5.4489513058896994,0.10199370392716814
12.411428,5.459615331785712,0.1017202364004357
12.413816,5.4722814584281405,0.1014217611620029
12.416196,5.486949685816985,0.10109925451288132
12.418592,5.5051102580194655,0.10070628169800512
12.420979999999998,5.518987089475392,0.10038399417942911
12.423364,5.535936956864374,0.10002204287547055
12.42576,5.5516761194398585,0.09968809856515577
12.428143999999998,5.567834590895923,0.099329353712668
12.430524,5.5912100694047355,0.0988707203908386
12.432928,5.615796252727049,0.09838865873429466
12.435315999999998,5.63558683862361,0.09795434441785682
12.437696,5.654074171908054,0.0975053595831051
12.440096,5.667765907766746,0.09711001172471044
12.442484,5.6802469388119405,0.09674114347217205
12.444864,5.699153580976967,0.0962735524402237
12.447259999999998,5.71312485608938,0.09586659264168561
12.449644,5.7249542608285156,0.0954892233867056
12.452028,5.738785766314069,0.09508815798249713
12.454427999999998,5.752337732545901,0.09470958660859931
12.456815999999998,5.765330620270294,0.09436695899170391
12.459196,5.7808374654203,0.0940213912298846
12.461592,5.7956926842642496,0.0936703781099337
12.463976,5.8057523056824465,0.09336465531643429
12.46636,5.814461452660283,0.09309195565856815
12.468763999999998,5.827454340384676,0.09275789628713159
12.471148,5.833369990683179,0.092507236661549
12.473528,5.840496345795179,0.09223420274620285
12.475927999999998,5.84827432721324,0.09197140320656426
12.478316,5.852839503071384,0.09175674976652062
12.480696,5.855262808556251,0.09157207635255422
12.4831,5.864483812213285,0.09132301467025339
12.485483999999998,5.877429478109433,0.09105011630377725
12.487864,5.893028871058057,0.09076582021073766
12.490268,5.906626163260263,0.09050144807082627
12.492655999999998,5.918081585089192,0.09026966424104346
12.495036,5.927814445425426,0.09004151860604613
12.497431999999998,5.945555708747327,0.08973047285873208
12.499819999999998,5.961946497628868,0.0894505451662148
12.5022,5.974844941696775,0.08923025175894934
12.504604,5.98788315539154,0.08900334144606634
12.506992,5.9969171675934705,0.08881863383621054
12.509372,6.004740474981904,0.08865677099546393
12.511767999999998,6.015077739795952,0.0884902755226266
12.514155999999998,6.024483839050223,0.08832982998418708
12.516536,6.035472730170327,0.08817499951726229
12.518935999999998,6.054050715395521,0.08796212691510212
12.521323999999998,6.068065420620438,0.08781987541809269
12.523704,6.0797984858452185,0.08771325570147978
12.526108,6.089529450323582,0.08762713994452466
12.528491999999998,6.099260414801945,0.08754055245438098
12.530872,6.107129048160752,0.087467885523331
12.533271999999998,6.108851609653449,0.08746327274924393
12.535659999999998,6.108851609653449,0.08746327274924393
12.53804,6.112064415213366,0.08742209816229692
12.540435999999998,6.114857911892701,0.08740398071913824
12.542824,6.125380272303983,0.08732336601201642
12.545204,6.128033999356457,0.08731326639886214
12.5476,6.131246804916373,0.08727314224945054
12.549988,6.14102499122298,0.08714679509697328
12.552368,6.150942947156447,0.08701401256412819
12.554768,6.160349046410715,0.08686383105846597
12.557152,6.170686311224763,0.0867085782461136
