Time,Force,Position
17.14578800000001,0.062123587261820656,0.0
17.148172000000002,0.05773575910336588,0.0
17.150568000000007,0.05334793094491111,0.0
17.152956000000003,0.050031037973094855,0.0
17.155336000000005,0.0504503468536755,0.0
17.157736,0.049286863868419906,0.0
17.16012400000001,0.048123380883164306,0.0
17.162508000000003,0.04588896271127019,0.0
17.16490800000001,0.042024530845296705,0.0
17.167296000000007,0.03698507638078403,0.0
17.16968,0.031666082662550936,0.0
17.172076000000004,0.025415923384539515,0.0
17.174468000000005,0.01930553373338831,0.0
17.17685200000001,0.014126309642015417,0.0
17.179248,0.010949186297059382,0.0
17.18164,0.009634394071659986,0.0
17.184024000000008,0.008319601846260592,0.0
17.186420000000012,0.006073644061082878,0.0
17.188812,0.004898621462543692,0.0
17.191196000000005,0.004898621462543692,0.0
17.193596,0.004898621462543692,0.0
17.19598400000001,0.004898621462543693,0.0
17.198368000000002,0.004898621462543693,0.0
17.20076800000001,0.004898621462543693,0.0
17.20316000000001,0.0034440596102840886,0.0
17.205544000000003,0.002780893690942594,0.0
17.207944000000012,0.0010467925849625686,0.0
17.210336000000012,0.000383626665621074,0.0
17.212720000000004,0.0,0.0
17.21511600000001,0.0,0.0
17.21750800000001,0.0,0.0
17.21988800000001,0.0,0.0
17.222288000000006,0.0,0.0
17.224680000000006,0.0,0.0
17.227064,0.0,0.0
17.229460000000003,0.0,0.0
17.231848,0.0,0.0
17.234232000000006,0.0,0.0
17.236632,0.0,0.0
17.23902000000001,0.0005233962924812844,0.0
17.241404000000003,0.0005233962924812843,0.0
17.243800000000007,0.0005233962924812843,0.0
17.246192000000008,0.0005233962924812844,0.0
17.248576,0.0005233962924812844,0.0
17.25097600000001,0.0005233962924812844,0.0
17.253364000000005,0.0005233962924812844,0.0
17.25574800000001,0.0005233962924812844,0.0
17.258144,0.0005233962924812844,0.0
17.260536000000002,0.0005233962924812844,0.0
17.262916000000004,0.0005233962924812844,0.0
17.265316,0.0005233962924812844,0.0
17.26770400000001,0.0005233962924812844,0.0
17.2701,0.001326331838682989,0.0
17.272500000000008,0.001326331838682989,0.0
17.274888000000004,0.001326331838682989,0.0
17.27727200000001,0.001326331838682989,0.0
17.279672000000005,0.001326331838682989,0.0
17.28206,0.001326331838682989,0.0
17.284444000000008,0.001326331838682989,0.0
17.286840000000012,0.0008029355462017046,0.0
17.289232000000013,0.0008029355462017046,0.0
17.291616000000005,0.0008144751594852989,0.0
17.29401200000001,0.0008144751594852989,0.0
17.29640400000001,0.003759281078964066,0.0
17.298788000000002,0.003759281078964065,0.0
17.301184000000006,0.005772921438664511,0.0
17.303576000000007,0.005772921438664511,0.0
17.30595600000001,0.006016778477425376,0.0
17.308356000000003,0.01128855036741532,0.0
17.310748000000004,0.016233561175441696,0.0
17.313128000000006,0.02229483314048051,0.0
17.315528,0.027842352568452394,0.0
17.31791600000001,0.03444737171190997,0.0
17.320300000000003,0.05000160315622761,0.0
17.322696000000008,0.07333002430286616,0.0
17.325084000000004,0.10135959921877022,0.0
17.32746800000001,0.13194845753066273,0.0
17.329868000000005,0.16975242703743526,0.0
17.332256,0.21398011180616971,0.009226045276607598
17.334640000000007,0.26411965515766844,0.018095416689773318
17.337036000000012,0.316306625225958,0.027180876549449402
17.339424000000008,0.37332297907708956,0.03612874266809614
17.341808,0.4339810911241318,0.045156351675234734
17.344204000000005,0.4959762421403801,0.05425041181221492
17.346592,0.5673399143380692,0.06314270339082426
17.348976000000008,0.6392492295720461,0.07222488987151221
17.351376000000002,0.7218775404278228,0.08087495926697531
17.353764000000012,0.8092426872678247,0.08942621791059104
17.356148000000005,0.895769216346665,0.09791931838600608
17.358548,0.9892332132245344,0.10612759419998417
17.36093600000001,1.0839551367441458,0.11425983622888924
17.363324000000006,1.1801219783606023,0.12233958338808616
17.36573200000001,1.2708434921031184,0.1306060674639314
17.368120000000005,1.3524875635311977,0.13892877148950594
17.370508,1.4259381363763757,0.14734050206002597
17.37290800000001,1.495339181758346,0.15575396809267175
17.375296000000006,1.562972339677246,0.16413977539783878
17.377684000000002,1.6241817823341835,0.17249836611773695
17.38008400000001,1.676406330475302,0.17189513988921865
17.38247600000001,1.7220201718993549,0.17180074472765383
17.384864000000007,1.7716854366444847,0.17116861596805127
17.387264000000002,1.8178130306056048,0.170676833670745
17.389652000000012,1.8638952985963508,0.16992099659772816
17.39204000000001,1.9072785135642483,0.16905061970248222
17.394440000000003,1.9459605747628799,0.16830939490477348
17.396828,1.9845973099911378,0.16728610118093837
17.399224000000004,2.017182417009771,0.16658227749132132
17.401624000000012,2.0418535646992235,0.16614041195825305
17.40401200000001,2.06140424973883,0.1658044661958505
17.40642000000001,2.0734130625015927,0.1658019122549875
17.408820000000006,2.0838390833985194,0.16585244177026395
17.411212000000006,2.0961274354150023,0.16581371864774921
17.41360800000001,2.11679627746949,0.16534326091923876
17.416004,2.137325349897118,0.16488304834812273
17.418400000000005,2.16199839344444,0.16416622703948822
17.4208,2.186671436991761,0.16345288048726545
17.423204000000013,2.2133465812854993,0.16264860459034308
17.42559200000001,2.2372282288999026,0.1619726212033248
17.427992000000003,2.264741990954803,0.16097026907453277
17.430392000000012,2.2929546011440043,0.1598157597422292
17.432788000000002,2.311203929429363,0.15916795188870284
17.43518800000001,2.3262876739830505,0.15860256190861527
17.437576000000007,2.336995129991567,0.15824109231830172
17.439976,2.3434660670817724,0.15803733493216937
17.44237600000001,2.3454209459999458,0.1580464137004038
17.444764000000006,2.341788831559449,0.1583477525223546
17.447148,2.3313590189467845,0.15905604729608921
17.449548000000007,2.32665596931965,0.15943872992993582
17.451936000000003,2.3208819845058763,0.15990857621004145
17.45432000000001,2.316690791557939,0.16033012655470644
17.456720000000004,2.314501699356419,0.16061501163704534
17.459108,2.31138144159512,0.1609397018837645
17.461492000000007,2.3045365215947085,0.16143404720242385
17.463892,2.299693702340714,0.16181332265176096
17.466280000000012,2.2892638897280495,0.1624582051337517
17.468664000000004,2.2776705941301287,0.1630699133313671
17.471072000000007,2.263144032226013,0.16382621694676724
17.473464000000007,2.256765642934425,0.16409796419089043
17.47584400000001,2.2537398288296124,0.16414412472841758
17.478248000000008,2.254578446590774,0.16401077316357235
17.480636000000004,2.2639373240168004,0.1635093455640547
17.48302000000001,2.2788831948014967,0.1627855446152767
17.485416,2.295411857452029,0.1620292212343888
17.48780400000001,2.3163168086477324,0.16111796451950772
17.490188000000003,2.340666882828829,0.16007395559280307
17.492588000000012,2.3719544248089544,0.1586852499529972
17.49497600000001,2.409388038655191,0.15692347955243388
17.49736,2.4450990910087307,0.15527631624157232
17.49976000000001,2.4846745752282433,0.15343717289315337
17.502148000000005,2.525600533888116,0.15152414278093432
17.50453200000001,2.5626620606820145,0.14981636192962067
17.506932000000006,2.5975817171026363,0.14824692249045768
17.509320000000002,2.633292769456176,0.14669735563921668
17.511708,2.6671414906901596,0.14522395255923493
17.514108000000007,2.7028525430436994,0.14365252463917247
17.516496000000004,2.7395873087556346,0.14213551099749797
17.51888000000001,2.780466045587264,0.1404490626777227
17.521280000000004,2.8119859049928664,0.13927982384590007
17.52367600000001,2.837871549211556,0.13846232812883472
17.52605600000001,2.8589615960044936,0.13785275332659241
17.528456000000006,2.8743248798119017,0.13747343582275304
17.530848000000006,2.885032335820417,0.13726061468935355
17.533232000000012,2.896950496642432,0.1369841762786429
17.535652,2.911150297464584,0.13660611833913433
17.53804000000001,2.9276317382868737,0.13612406586006764
17.540428000000006,2.944904575042081,0.1356613938809118
17.54282400000001,2.9600355414240114,0.13529411885188386
17.54521600000001,2.9735364941118623,0.1350415625228786
17.547600000000003,2.984755806799576,0.13489652052991064
17.550008000000005,2.993833249114012,0.1348419741159853
17.552400000000006,3.0069148929212823,0.13465041353203008
17.554784000000012,3.0222781767286904,0.13435796627100657
17.557180000000002,3.0373619212823773,0.1341061757761511
17.559572000000003,3.0578928895678748,0.1337285915718714
17.56195600000001,3.0773529226667335,0.13338903437619745
17.564364000000012,3.098163430205951,0.13297835959806537
17.566752000000008,3.1129676355059175,0.13277148082651616
17.569136,3.129773941552301,0.13248539055245287
17.571544000000003,3.146440477971825,0.13220666316572605
17.573936000000003,3.164969345510905,0.13187589803250094
17.576324,3.1825670474902066,0.13156161871164654
17.578732000000002,3.2018873109622046,0.13121014299469533
17.58112,3.2149217329412316,0.13109996823077202
17.583512,3.224603579733483,0.13114449693112926
17.58592,3.2332144913390963,0.131235060634731
17.588312000000002,3.233584682533565,0.1315361621804628
17.590708000000006,3.2358172048475895,0.131785807032043
17.593108,3.240890445669193,0.13186900878895444
17.5955,3.2483850961177936,0.1318370152882639
17.597896000000006,3.256159285820114,0.13177208912765354
17.600296,3.259789504402741,0.1318548648033029
17.602688,3.2623487877987296,0.1319779393989694
17.605096000000003,3.2614629482093243,0.13216448294051034
17.607496000000012,3.2532675537685543,0.13252438088009458
17.609892000000002,3.2460033248875617,0.1328629400402411
17.61229200000001,3.238739096006569,0.1331955599325951
17.61469600000001,3.2322662630584946,0.13352619190184442
17.617096000000004,3.2300771708569744,0.1336944778018604
17.619496000000012,3.229098783468953,0.13380763322497985
17.621888000000013,3.2239764249612377,0.1340693391331193
17.624284000000003,3.224580829439052,0.13416655621354007
17.626692000000006,3.2245336076108084,0.13425545794858681
17.629084000000006,3.231051766529257,0.13408331911688873
17.631468000000012,3.235195737648951,0.13393508139420046
17.633876,3.237617147275948,0.13382125569827572
17.636268,3.2442750758212564,0.13363028328761092
17.638644,3.2476276510080324,0.13349004157769342
17.641052000000002,3.2476276510080324,0.13349004157769342
17.64343600000001,3.243623449515199,0.13362113450748234
17.64581600000001,3.2364064424624495,0.13387949201752267
17.64822000000001,3.231610845036698,0.13402151763541384
17.650608000000005,3.227094786864667,0.13412863408775505
17.652988000000008,3.2256517646256904,0.1341288890418275
17.655392000000006,3.226071073506271,0.1340789998538136
17.657780000000002,3.2317052886931843,0.13384246579803785
17.660160000000005,3.232823445708066,0.13371165182941538
17.66256,3.2392962786561403,0.13338101986016607
17.664944000000006,3.244837946044436,0.1330823835084097
17.667328000000012,3.249867756753534,0.1327585435051308
17.669724000000002,3.2614629482093247,0.13218422447854497
17.672112,3.266679750373526,0.13175903029059477
17.674496000000005,3.2746900492170625,0.13127154977836192
17.67689200000001,3.28107033436652,0.13088969651090662
17.679280000000006,3.289033411381813,0.1304911786790703
17.681660000000008,3.2939234524640515,0.13018743075475878
17.684060000000002,3.297510240934174,0.129866357637025
17.686448,3.3036109868299106,0.12950788608382266
17.688828,3.3127847686587026,0.12905140568795742
17.691224000000005,3.324379960114493,0.1284834611328024
17.693612,3.3421212234363935,0.12771439780356364
17.695996000000008,3.3575808467581565,0.12703988582722053
17.698392000000013,3.3726211611993393,0.12641930351273611
17.70078000000001,3.38845287157344,0.1258031261527589
17.703164,3.410290884186791,0.1250256736302172
17.705560000000006,3.42691399049381,0.12443217773550382
17.707948000000002,3.4489843205326385,0.12372982891624956
17.710328000000004,3.4667709098249126,0.12318268503336494
17.712728,3.480273758370633,0.12277512171140702
17.71511600000001,3.4982926650883845,0.12229129667322937
17.7175,3.515612723671835,0.12189485299657238
17.719896000000006,3.539450941173734,0.12137020725185921
17.722284000000002,3.558353791623021,0.12097020783189355
17.72466800000001,3.580888756512804,0.12044372135002393
17.727064,3.606776296589363,0.11981770942416832
17.72945200000001,3.640532470024729,0.11901472999408601
17.73183200000001,3.676802600885709,0.11819261125071882
17.734232000000006,3.713864127679608,0.11737616900968327
17.736616000000012,3.7479923881673116,0.11663097293337292
17.738996,3.7832841316402703,0.11592710797139172
17.741404000000003,3.8141523647398157,0.11536320112180151
17.743792,3.8450205978393597,0.11479112045728088
17.746172,3.872164168699791,0.11428021400111527
17.748568000000006,3.895955164373447,0.1138753934558163
17.750956000000002,3.9125291529943533,0.11366277609943636
17.75334000000001,3.9292429112421208,0.11343615875382188
17.755736,3.9402299065043573,0.11332360301480118
17.75812400000001,3.949354570647037,0.11324286794047374
17.76050400000001,3.9624834362825503,0.11306570739673552
17.762904000000006,3.9696059996788136,0.1130326158590663
17.765292000000002,3.9712813393432667,0.11308837617878104
17.767672000000005,3.9661589808355515,0.11328975259547719
17.77006800000001,3.9628989534473926,0.11345859191791201
17.772456000000005,3.9521423797527646,0.11384051085434672
17.77484000000001,3.9378934612445002,0.1143348395263435
17.777236000000002,3.918709175683623,0.11492744582288293
17.779624000000013,3.901666760496024,0.11544747570880942
17.782004,3.8801082871363928,0.1160377749898177
17.784400000000005,3.85934120970968,0.11662802971047315
17.786788,3.8400643763501865,0.11714016051058215
17.789168000000004,3.8222777870579123,0.11758867549751464
17.791568000000012,3.8077040033255534,0.11794897662122761
17.79395600000001,3.7989967522055847,0.118189249957681
17.79633600000001,3.789917414033279,0.11839760829338182
17.798736000000005,3.784330420674609,0.11849384640889538
17.80112000000001,3.777812261756161,0.11860667049587487
17.803504000000004,3.7802336713831584,0.11852387475364906
17.80590000000001,3.7858678865700712,0.11835484990145596
17.808288000000005,3.786846273958093,0.11826486325414826
17.810668000000007,3.7921084020926683,0.1180597107033741
17.81306400000001,3.8023058972798554,0.11774877417776058
17.815452000000008,3.8155764284000986,0.117359633567868
17.817836,3.8300576643338404,0.1169298590988523
17.820232000000004,3.8488226410141366,0.11637739264771366
17.82262,3.8662843650823167,0.11580125382774108
17.825016000000005,3.8829546932175787,0.1152272513615071
17.82741200000001,3.8917563879940333,0.11482611534629839
17.829800000000006,3.9064246153828783,0.11430068362303059
17.832180000000008,3.923514252398721,0.11369555959206837
17.834580000000003,3.936739457548591,0.11317422151311614
17.836968,3.952106533071736,0.11260181035908538
17.839348,3.966262903781384,0.11207755449223426
17.84174800000001,3.977765547438557,0.11159321490354021
17.844136000000006,3.9909907525884254,0.11108850526593632
17.846520000000012,3.9997924473648796,0.11070557289609609
17.848916000000003,4.012738113261029,0.11022846591295322
17.851304,4.017954915425231,0.10990163599174561
17.853688000000005,4.023171717589432,0.10957778773006364
17.85608400000001,4.033603426059966,0.1091335873414997
17.858472000000006,4.042312573037804,0.10871024396848525
17.86085200000001,4.049950784829003,0.10831765042314732
17.863252000000003,4.059591097366619,0.10788951650369724
17.86563600000001,4.067648618038399,0.10746583238049191
17.86802,4.075845908337039,0.10703383131581098
17.87042000000001,4.08976996162121,0.10651720448177199
17.872808000000006,4.103554245278519,0.10600979174560207
17.87518800000001,4.1214825000555235,0.10540787843359073
17.877588000000003,4.1364774885263325,0.10486456325811025
17.879976,4.147468275504307,0.10439841307494332
17.882356,4.1573881272956426,0.10395332087142248
17.88475600000001,4.165305878340563,0.10355001352781987
17.887144000000006,4.172572003079424,0.10313760555073169
17.889528,4.1776962574450085,0.10277218813283576
17.891924000000003,4.1869644829302874,0.1023276667362974
17.894316000000003,4.199445513975482,0.10180636948939017
17.896696000000006,4.205780473154565,0.10140723815246269
17.89909200000001,4.212906828266567,0.10100444562811671
17.901480000000006,4.217891313005291,0.10065073132866624
17.90386000000001,4.222176949609715,0.1003596725507899
17.906260000000003,4.226183046960418,0.10009266953664454
17.90864400000001,4.229118209124482,0.0998500249230919
17.911028,4.231261975355628,0.09961019212444701
17.913424000000006,4.232846663079334,0.0994153409725965
17.915812000000003,4.234431350803039,0.09922186367109047
17.918192000000005,4.230009736287494,0.09913086587280395
17.92058800000001,4.22465695621217,0.09905098844647649
17.922976000000006,4.21702253613671,0.09902813590356818
17.925356000000008,4.211250447180807,0.09898200758834882
17.927752000000012,4.2112051212104324,0.09885748409877555
17.930144,4.212230730426698,0.09870959635571863
17.932524,4.213768196322159,0.09858498141039877
17.934920000000005,4.213024022217485,0.0985163746591233
17.937312000000006,4.215073344792145,0.09841385350360332
17.939692000000008,4.213118465873971,0.0983791255086381
17.942092000000002,4.215167788448631,0.09827949923405495
17.94447600000001,4.220429916583206,0.09811325067070062
17.94686,4.227554375837338,0.09792545145533797
17.949256000000005,4.2346788350914695,0.09773646558929287
17.951644,4.2340744306136555,0.09765620944022392
17.954028000000008,4.230257220575925,0.09764396725517577
17.956424000000013,4.224437909791778,0.09766649912909434
17.958808000000005,4.216057419753773,0.09776955503703137
17.961208,4.210749965648824,0.09781488546494335
17.963604000000004,4.206094137849933,0.09787081927520752
17.965992,4.20115877079732,0.09795116618318557
17.968376000000006,4.2020899363570985,0.09793988079977559
17.97077200000001,4.205023202663293,0.0978940846312143
17.973160000000007,4.205023202663294,0.09789408463121431
17.97554000000001,4.196875030050766,0.09804264105258395
17.977936,4.195384785983547,0.09809905876550626
17.98032400000001,4.1944536204237695,0.09810993457611851
17.982704000000012,4.1987373611703225,0.09802191107304088
17.985104000000007,4.203160871543737,0.097923457104606
17.987492000000003,4.20837577785007,0.09782602754989324
17.989872000000005,4.20823600822321,0.0978370715067022
17.99226800000001,4.210749965648824,0.09782835961112783
17.994656000000006,4.211401591954883,0.09784004471442195
17.997040000000013,4.215777880500053,0.09781126155114403
17.999436000000003,4.235239809456781,0.09754734782379854
18.001824,4.260708040652759,0.09719003722754865
18.004204,4.290320242968431,0.09676060477320446
18.006600000000006,4.323285020470879,0.09625913589079847
18.008988000000002,4.356389567600187,0.09575697653445102
18.01137200000001,4.384838286930604,0.09530240388038702
18.013768,4.415428876634298,0.09480134181409358
18.01615600000001,4.442946430404935,0.09436120900278457
18.018552,4.474468185668407,0.09386943127953505
18.02095200000001,4.505058775372101,0.0933822185225894
18.023336,4.540864271382127,0.09279586161720513
18.025720000000007,4.568009738100428,0.09232599032465409
18.02812,4.591802629631952,0.09192742523898974
18.03050800000001,4.611451550043784,0.09160281803571285
18.032888,4.629238139336058,0.09129800446129356
18.03528800000001,4.644091462322137,0.09103036634342493
18.037676000000005,4.662297360494993,0.09069348440764109
18.04006000000001,4.675707661242096,0.0904151046563092
18.042460000000005,4.692330767549114,0.09007994640500464
18.044848,4.707231312363437,0.08975700303212981
18.047232000000008,4.711469727139617,0.08956806129471469
18.049628,4.715056515609739,0.08937030055722925
18.05201600000001,4.715710037773666,0.08920786566361044
18.0544,4.714361459191176,0.08907223786253905
18.05679600000001,4.71115054948913,0.0889529297706856
18.059184,4.713014776466555,0.08876462141191327
18.061564000000004,4.719302513817396,0.0884993211890354
18.06396000000001,4.726289099302537,0.08818812254818444
18.06635200000001,4.728619856988788,0.08791651640151232
