Time,Force,Position
12.165632,0.0,0.0
12.168016,0.0,0.0
12.170412,0.0,0.0
12.1728,0.0,0.0
12.17518,0.0,0.0
12.17758,0.0,0.0
12.179964,0.0016329451760073745,0.0
12.18236,0.004336825538653279,0.0
12.184755999999998,0.008251410714797926,0.0
12.187143999999998,0.014447635891079842,0.0
12.189528,0.02264596181377861,0.0
12.191923999999998,0.02991312217669906,0.0
12.194311999999998,0.04025331847267489,0.0
12.196692,0.04644954364895681,0.0
12.199087999999998,0.052645768825238734,0.0
12.201479999999998,0.058702224374660446,0.0
12.20386,0.06196518324474719,0.0
12.20626,0.06229487580863876,0.0
12.208647999999998,0.0646266691189472,0.0
12.211028,0.06481659205597855,0.0
12.213432,0.06481659205597855,0.0
12.21582,0.06481659205597855,0.0
12.218199999999998,0.06481659205597855,0.0
12.220596,0.06481659205597855,0.0
12.222979999999998,0.06481659205597855,0.0
12.22536,0.06481659205597855,0.0
12.227755999999998,0.06318364687997118,0.0
12.23014,0.06047976651732527,0.0
12.232535999999998,0.056565181341180625,0.0
12.234932,0.050368956164898705,0.0
12.237315999999998,0.04217063024219994,0.0
12.2397,0.03490346987927948,0.0
12.242095999999998,0.02456327358330366,0.0
12.244479999999998,0.01836704840702174,0.0
12.246876,0.012170823230739822,0.0
12.249272,0.006114367681318114,0.0
12.25166,0.002851408811231366,0.0
12.254039999999998,0.0025217162473397912,0.0
12.256436,0.00018992293703136494,0.0
12.258824,0.0,0.0
12.261203999999998,0.0,0.0
12.2636,0.0,0.0
12.265983999999998,0.0,0.0
12.26838,0.0,0.0
12.270776,0.0007490014444722056,0.0
12.273164,0.0016377725158046215,0.0
12.275543999999998,0.0025265435871370374,0.0
12.27794,0.0025265435871370374,0.0
12.280328,0.002526543587137038,0.0
12.282707999999998,0.002526543587137038,0.0
12.285112,0.002526543587137038,0.0
12.2875,0.002526543587137038,0.0
12.289879999999998,0.002526543587137038,0.0
12.292276,0.002526543587137038,0.0
12.29466,0.002526543587137038,0.0
12.297043999999998,0.002526543587137038,0.0
12.299448,0.002526543587137038,0.0
12.301836,0.002526543587137038,0.0
12.304215999999998,0.002526543587137038,0.0
12.306612,0.002526543587137038,0.0
12.308996,0.0039271713376671435,0.0
12.311376,0.003927171337667143,0.0
12.31378,0.003927171337667143,0.0
12.316168,0.0039271713376671435,0.0
12.318552,0.003178169893194938,0.0
12.320948,0.0022893988218625214,0.0
12.323332,0.0014006277505301055,0.0
12.325715999999998,0.0014006277505301055,0.0
12.328112,0.004663586620616852,0.0
12.3305,0.00885771105048192,0.0
12.332879999999998,0.014122770666985515,0.0
12.335276,0.016454563977293942,0.0
12.337663999999998,0.022930328407296283,0.0
12.34006,0.031268423956855265,0.0
12.342456,0.03853558431977571,0.0
12.344844,0.04352110468255888,0.0
12.347228,0.04557335873914689,0.0
12.349624,0.0455733587391469,0.0
12.352012,0.0455733587391469,0.0
12.354392,0.0455733587391469,0.0
12.356796,0.04417273098861679,0.0
12.359184,0.04417273098861679,0.0
12.361564,0.04417273098861679,0.0
12.363963999999998,0.04417273098861679,0.0
12.366348,0.04417273098861679,0.0
12.368728,0.0441727309886168,0.0
12.371128,0.0441727309886168,0.0
12.373512,0.0441727309886168,0.0
12.375892,0.04090977211853005,0.0
12.378292,0.03671564768866498,0.0
12.38068,0.03145058807216138,0.0
12.38306,0.029118794761852956,0.0
12.385456,0.022643030331850614,0.0
12.387844,0.014304934782291636,0.0
12.390223999999998,0.0070377744193711855,0.0
12.392628,0.0020522540565880063,0.0
12.395016,0.0,0.0
12.397396,0.0,0.0
12.399796,0.0,0.0
12.40218,0.0,0.0
12.404564,0.0,0.0
12.406968,0.0,0.0
12.409356,0.0,0.0
12.411736,0.0,0.0
12.414132,0.0,0.0
12.41652,0.0,0.0
12.418904,0.0,0.0
12.4213,0.0,0.0
12.423688,0.0,0.0
12.426068,0.0,0.0
12.428471999999998,0.0,0.0
12.430856,0.0,0.0
12.43324,0.0,0.0
12.435636,0.0,0.0
12.438024,0.0011626227514451102,0.0
12.440404,0.0112629181904667,0.0
12.4428,0.024341805906057376,0.0
12.445188,0.04240138664463397,0.0
12.447568,0.0664653737645919,0.0
12.449964,0.09597468875849029,0.0
12.452352,0.13535284199974346,0.0
12.454736,0.18264495457017776,0.009225388833241907
12.457132,0.23319519867090155,0.018415059344729295
12.45952,0.2884465965408909,0.02750775466417697
12.461916,0.35156473191181814,0.036316552802223796
12.464311999999998,0.42240983515682307,0.04494544000978868
12.466696,0.4999581929175105,0.05335201006581699
12.46908,0.5818356173951259,0.06166555855933471
12.471476,0.6690658219480647,0.06996757245401283
12.473864,0.7610897280688861,0.07838403351503734
12.476244,0.8597696668771466,0.08678808045731466
12.47864,0.9642216946413112,0.09509504368381949
12.481028,1.0747725724433432,0.10313148950839396
12.483408,1.186394385432014,0.1110955280133592
12.485804,1.2944793878704854,0.11912440145247592
12.488192,1.3897622857554066,0.12737915354057536
12.490588,1.4865826495357901,0.13541183562191672
12.492988,1.576280449919911,0.14359445092322326
12.495371999999998,1.6573201168701754,0.15190367245664327
12.497756,1.7326821385210225,0.16012854176237815
12.500151999999998,1.7985946308050953,0.1682719710080892
12.502536,1.8563136245062666,0.16724423252950804
12.50492,1.9124970481698447,0.16617776268303133
12.507319999999998,1.9664932754897717,0.1651139408027004
12.509703999999996,2.011412060495262,0.16443495404804995
12.512088,2.0484641079998145,0.16396224598182263
12.514483999999998,2.0781140528543838,0.16384472523837992
12.516871999999998,2.106460745096837,0.1637512241908937
12.519256,2.1334588587568004,0.1634293854329918
12.521651999999998,2.1584567675282167,0.1628598453112456
12.524039999999998,2.1803835362244466,0.16215770467569812
12.526424,2.2010542741368035,0.16137755057280764
12.528819999999998,2.221352924996823,0.16062782842380854
12.531207999999998,2.245376238095956,0.15976261159283012
12.533588,2.274846774926899,0.15869895511722354
12.535984,2.3088333699298733,0.15741739642341718
12.538372,2.338536224186293,0.1564234978177978
12.540752,2.372335827734164,0.15530220961161195
12.543148,2.41316544687968,0.15394248264761576
12.545536,2.4527371393834554,0.15277066626624805
12.547931999999998,2.4893283437527916,0.15183634722743522
12.550328,2.5313667718539374,0.15072043230202958
12.552715999999998,2.574708452567199,0.14965262987994768
12.555096,2.6152566366011265,0.14871513480421483
12.557496,2.6591573958218295,0.14758363559668067
12.559883999999998,2.7013355935498353,0.14648285469827185
12.562264,2.746634049039141,0.1451216411326755
12.564659999999998,2.7866250504234964,0.14393905208660773
12.567047999999998,2.82140114550152,0.1430614657273101
12.569432,2.851661182407511,0.1423582790118861
12.571827999999998,2.8727493333425786,0.14198722808875489
12.574211999999998,2.8881107212921173,0.1418628833563726
12.576596,2.8963948718157666,0.14207126859354885
12.578991999999998,2.8996038856599435,0.1425072563961913
12.581376,2.8986689283844265,0.1431316089672323
12.58376,2.8992242151761287,0.14363930321843044
12.586163999999998,2.8967536878630193,0.14418494947708888
12.588551999999998,2.8943303823781528,0.1446187312947198
12.590932,2.886599622788337,0.1451986880359621
12.593327999999998,2.882640747265877,0.14554809950282693
12.595715999999998,2.8844558565571896,0.14558689335465835
12.5981,2.8764474535715223,0.14591546058605687
12.600495999999998,2.8675551068543195,0.14616537109587638
12.602883999999998,2.8580111338310594,0.14641188195240087
12.605268,2.8451145856210234,0.14682387243719228
12.607663999999998,2.8359426996501,0.14711252955380077
12.610051999999998,2.8228591599849606,0.1476402613639174
12.612432,2.813640052185795,0.14803058790483628
12.614831999999998,2.804420944386629,0.14842859060448638
12.617219999999998,2.799717894759494,0.14868547554451725
12.6196,2.8048855792375837,0.1485536547138374
12.622004,2.80632860147656,0.14854597583315896
12.624387999999998,2.8089823285290345,0.14846499315898665
12.626768,2.812846760395008,0.14831158259344351
12.629163999999998,2.8148488611414244,0.14822260453602104
12.631552,2.8108446596485908,0.14840241846042676
12.633947999999998,2.8145693218877037,0.1482652749965567
12.636344,2.8164316530072604,0.14819795102468772
12.638728,2.8181542144999567,0.14814938735951286
12.641108,2.817455366365656,0.1482475144454095
12.643512,2.811681381551883,0.14856909989783765
12.645896,2.812565325283418,0.1486396848826752
12.648279999999998,2.8082343627086206,0.14895926968465534
12.650676,2.8037636305069626,0.14930255203060105
12.653059999999998,2.8018540775591636,0.1494766791043278
12.655444,2.7975703368126097,0.14969160359347064
12.657839999999998,2.7942649834540774,0.1497693745821334
12.660223999999998,2.793800348603123,0.14964056485666194
12.66262,2.7948259578193877,0.1494001890953987
12.66502,2.792406444050259,0.1492532256502999
12.667408,2.7847720239747984,0.14934032138182912
12.669788,2.7851460068850047,0.14909738048911603
12.672184,2.785659759422072,0.14883509886837717
12.674572,2.7835197849066637,0.14864925552308492
12.676951999999998,2.788317278190285,0.14818308053605672
12.679356,2.8001920088997956,0.14741452205413258
12.681744,2.805129271810277,0.14693511274627252
12.684124,2.8108579306536763,0.1464462030636475
12.68652,2.8187284598703526,0.14585745850612905
12.688908,2.827809693900528,0.14520295032243732
12.691287999999998,2.838753259050259,0.14447954410471658
12.693692,2.845552853080297,0.1439375317174829
12.69608,2.8552857134165297,0.1432697864441163
12.69846,2.8699539408053747,0.14241507328349798
12.700856,2.882200758567222,0.14170253300970181
12.703244,2.89267779300813,0.14112652141695498
12.705628,2.90604087192699,0.1405443468349729
12.708024,2.9136299660320772,0.14027944447149698
12.710412,2.92252231274928,0.14003159132803417
12.712792,2.9337888472652365,0.13975130511405473
12.715196,2.9459865473409717,0.13943854433441358
12.71758,2.954971441856792,0.1392778062860022
12.71996,2.9667498330519466,0.13903379509539143
12.72236,2.9839754479789105,0.13863962826943402
12.724744,2.997057091786181,0.13842346756143226
12.727128,3.006786160406676,0.13836647722964213
12.729524,3.020519430520004,0.13816525413555714
12.731912,3.033321535073554,0.13799303274586483
12.734291999999998,3.0478462011198006,0.1377923608005324
12.736688,3.0642331982856037,0.13754917186237553
12.739076,3.0832739225038814,0.1372516992130181
12.741455999999998,3.109391884148048,0.13671926886260155
12.74386,3.1355098457922144,0.13618364417189305
12.746248,3.158694541130186,0.1357571322499373
12.748627999999998,3.1838813372145744,0.1352638423584503
12.751024,3.2153539747919346,0.1345473229737229
12.753408,3.245523359757178,0.13382816859734406
12.755804,3.2771829887896415,0.13301175585295294
12.7582,3.3083307611429063,0.13218313356723985
12.760588,3.333751770510642,0.1315023353983193
12.762968,3.3591727798783766,0.13082153722939877
12.765371999999996,3.385804494059611,0.13008807204014838
12.76776,3.408571776374871,0.12947280994880503
12.77014,3.4276143964510184,0.12896399254485494
12.772543999999998,3.4478677213406637,0.12840337814293487
12.774928,3.4701231469767264,0.1277858854942963
12.777312,3.4899571629857915,0.12728000726517022
12.779716,3.5125846756741916,0.12671489073064512
12.782104,3.532558461310117,0.12621082869501768
12.784484,3.5485280454532084,0.1258290148556647
12.786879999999998,3.561052506610907,0.12550692529512078
12.789263999999998,3.568501831089134,0.1253413059569729
12.791644,3.579303730754136,0.12505991447147685
12.794043999999998,3.590385169672859,0.1247534428392115
12.796428,3.6005354430318035,0.12446831812112895
12.798808,3.6088233852711915,0.12423110856773226
12.801208,3.6171113275105786,0.12399676961410624
12.803592,3.6272616008695233,0.12372807448644348
12.805972,3.6372721046016077,0.12347597515627197
12.808368,3.654359845759581,0.12303797439525853
12.810756,3.6731701484102506,0.1225799887283097
12.81314,3.6918406814340603,0.12214065542754877
12.815536,3.711861688898229,0.12164077165325025
12.81792,3.728809660429342,0.12121581043893732
12.820316,3.7418932000944816,0.12087652336016845
12.82272,3.75032091196073,0.12062946808684843
12.825107999999998,3.7605184071479174,0.12028149826004274
12.827488,3.7641977434166565,0.12006321296934332
12.829883999999998,3.766666374871897,0.11989089890873424
12.832268,3.7694145455808576,0.11968936323639585
12.834652,3.7741648170362354,0.11943663567605373
12.837047999999998,3.7793343973721942,0.11914217303448905
12.839436,3.781151402521377,0.11896210881091906
12.841816,3.7776137317373673,0.11894401695864663
12.844212,3.774215830580218,0.11891181803808215
12.8466,3.765742792743596,0.11901554872429285
12.84898,3.754476258227639,0.11917569642703255
12.85138,3.739485061472569,0.11940988746089268
12.853768,3.7227713032248024,0.11966686705923892
12.856148,3.7031242786708405,0.119986150141353
12.858544,3.682174001504763,0.12028125920218996
12.860932,3.659501162845989,0.12059787441962712
12.863312,3.637619720120133,0.12090555987551174
12.865708,3.6209531837006095,0.12107047557927472
12.868092,3.610013410266616,0.12111408919434907
12.870492,3.6038692342583745,0.12105503472588745
12.872884,3.595583187876856,0.12105784327746469
12.875272,3.5939550700406455,0.12092309667645436
12.877652,3.5927462610850167,0.12074648629761908
12.880048,3.592468617689165,0.12055168178095922
12.882436,3.5889781687333984,0.12045163724355923
12.884816,3.584277014964133,0.12039692795023428
12.887212,3.577061903769253,0.12036909158461577
12.8896,3.5752014685075655,0.12017928198575528
12.891984,3.573201263619018,0.12000357945518685
12.89438,3.575205260223304,0.11972414756109975
12.896764,3.578931818320287,0.11941986733451115
12.899164,3.587314204216161,0.11902381018277389
12.901559999999998,3.5916923886192014,0.11872477438847089
12.903944,3.593137306716046,0.11849600798925967
12.906328,3.5929522111188117,0.1183594299124761
12.908732,3.597422943320469,0.11812828468485188
12.91112,3.6009625099623483,0.11791749642794076
12.9135,3.603570911044449,0.11772829336432673
12.915895999999998,3.6015234843276587,0.11763150498515053
12.918283999999998,3.597473956864451,0.11758513415669607
12.920664,3.594215825334162,0.11753469932979321
12.923063999999998,3.58737280119162,0.11754106410350186
12.925447999999998,3.583183504101552,0.11750746886943926
12.927828,3.5779232718248455,0.1175053967734055
12.930227999999998,3.575875845108055,0.11740848116817787
12.932612,3.5738284183912645,0.11731126571889573
12.934992,3.577507754660004,0.11709357083794998
12.937392,3.5801161557421044,0.1169087513966094
12.939776,3.5857975927572605,0.1166469742246845
12.942171999999998,3.5913392601455563,0.11640107731445525
12.944568,3.5976723234667705,0.11615252308841004
12.946955999999998,3.598138854175594,0.11603271177098945
12.949339999999998,3.6063342486163643,0.1157481108943157
12.951736,3.624260607535499,0.11526146299899158
12.954123999999998,3.644468606454771,0.11469945882001516
12.956504,3.6589498423885125,0.11425608052661924
12.958904,3.673151539068534,0.11383972142938986
12.961291999999998,3.686142530935057,0.11346962433099944
12.963672,3.7017872498540547,0.11306288415614313
12.966067999999998,3.7165008032132736,0.11267093028216708
12.968455999999998,3.730422960639575,0.11228100729959381
12.97084,3.7439258091852947,0.11192936817196379
12.973235999999998,3.7554265569845984,0.11162770982686697
12.975623999999998,3.7717229022096537,0.1112361540699863
12.978008,3.7888106433676265,0.1108491771290997
12.980403999999998,3.807900485272017,0.11041806436008453
12.982787999999998,3.823917291243352,0.1100668531415678
12.985168,3.8419361979611035,0.10967721517926457
12.987564,3.855019737626243,0.10939192302040476
12.989952,3.867451650985325,0.10909803450080137
12.992336,3.8805824124787076,0.10874415383469824
12.994732,3.9007904113979794,0.10823995502936079
12.99712,3.921277949570972,0.10772559595331717
12.999515999999998,3.93189475363874,0.10740645053641204
13.001912,3.9434427232662865,0.10707811751688917
13.0043,3.9569927936402496,0.10670876408751864
13.006683999999998,3.969891237708155,0.10632700955403392
13.00908,3.981998285843142,0.10594568308630399
13.011468,3.995176269164768,0.10554318588977123
13.013847999999998,4.012498223606088,0.1050560573219243
13.016244,4.032613674726743,0.10453282404814712
13.018631999999998,4.055010765847535,0.10394794942147575
13.021012,4.073543425102353,0.10341934769643026
13.023416,4.08756002618514,0.10295132525791041
13.025804,4.099714296148371,0.10251305787722913
13.028183999999998,4.109866465365185,0.10211275557042064
13.030588,4.118156303462442,0.10173563133225186
13.032976,4.122162400813146,0.10145793989176642
13.035355999999998,4.128961994843183,0.10114088289451331
13.03776,4.13520251036578,0.10087214055960017
13.040148,4.13902161626138,0.10067814933909197
13.042528,4.1374860462237875,0.10060826407185636
13.044924,4.1336688361860565,0.10059850381432058
13.047312,4.13385582764116,0.10051602601223654
13.049696,4.129247221670511,0.10050689161293158
13.052092,4.124498846073002,0.10050949032165404
13.05448,4.1225439671548285,0.10047513118908308
13.05686,4.123382584915991,0.10040452218562661
13.059256,4.122219101930734,0.10036987021185331
13.061644,4.11956537487826,0.10039313051291018
13.064023999999998,4.117703043758703,0.10041575936228288
13.066428,4.1163525693183445,0.10046075564047167
13.068816,4.1227309586099326,0.10039406369501847
13.071196,4.13469634126019,0.10026426631719021
13.0736,4.147453119843366,0.10013573898138584
13.075988,4.1631431647327375,0.09996492961150893
13.078368,4.18362880704786,0.09973092686465929
13.080764,4.210260521229094,0.09939109158529405
13.083152,4.23596106985055,0.0990632337898374
13.085532,4.263151862539225,0.09868218725946035
13.087932,4.290994281533958,0.09830943170428212
13.09032,4.317253908662854,0.09792850870954997
13.0927,4.339788873552636,0.09758853921174235
13.0951,4.360181968069143,0.09729286628297691
13.097484,4.386301825571179,0.09692096191555173
13.099868,4.4145635534464915,0.0965096335050079
13.102264,4.440823180575388,0.09613483815237453
13.104652,4.4660118725176465,0.09578665117753729
13.107031999999998,4.491340334086765,0.09542823976606106
13.109428,4.511221571924072,0.09511887760973624
13.111816,4.525655586029571,0.09486231702918112
13.114195999999998,4.54078844826937,0.09455630443814518
13.116596,4.5524761875237765,0.09427458586556829
13.118984,4.555084588605878,0.09413631510140431
13.121363999999998,4.556901593755061,0.09399769204607067
13.123768,4.555925102224908,0.09388886410363073
13.126156,4.553086279575199,0.09379997755664754
13.128536,4.545451859499739,0.09376857362092955
13.130932,4.541030244984194,0.09367789388585221
13.13332,4.536468860841788,0.09359745349880731
13.135699999999998,4.533397720766602,0.09346714382108634
13.1381,4.535401717370888,0.09326101374303915
13.140484,4.545274347333982,0.0929548925487002
13.142867999999998,4.555286746923935,0.09263659805199481
13.145272,4.562645419461414,0.09233789146353688
13.147656,4.5670708256926975,0.09207672582096162
13.15004,4.57256716711062,0.09179767571151298
13.152436,4.5782032781554,0.0915101165350953
13.154824,4.584770554759962,0.0912152190831193
13.157208,4.597995759909831,0.09085068069263443
13.159604,4.612803756925537,0.09048524806820363
13.161988,4.621977538754329,0.09023310893220093
13.164367999999998,4.633805047635596,0.08996923207050954
13.166768,4.652197937263554,0.08958305122014107
13.169152,4.67245315801107,0.089183370249313
13.171535999999998,4.693499774691503,0.0887847421489639
13.173932,4.713615225812157,0.08839672502193728
13.17632,4.732799511373035,0.08801474823797747
13.178716,4.74597749469466,0.08771401528626373
13.181112,4.75743291652359,0.08742074078554768
13.1835,4.767957172792742,0.08713762351036088
13.18588,4.77941259462167,0.08685223801692654
13.188276,4.782068217532014,0.08666669984569596
13.190664,4.788216185255994,0.08641101370651484
13.193044,4.796366253726391,0.08613316172644805
13.195444,4.805447487756567,0.08584779381563289
13.197828,4.813085699547766,0.08554933545279915
13.200212,4.820212054659768,0.08523112498047021
13.202608,4.82789748827921,0.08487771425697514
13.204992,4.833208734099897,0.08451989237499719
13.207375999999998,4.8450853606672775,0.08406153553268747
13.209772,4.861665036861791,0.08350947611482032
13.21216,4.874380281190333,0.08299673484561683
