Time,Force,Position
13.838375999999998,0.04597055467133928,0.0
13.840763999999998,0.05471280365465655,0.0
13.843144,0.06238411745133529,0.0
13.845539999999998,0.06912426568823571,0.0
13.847927999999998,0.0747934787384976,0.0
13.850312,0.08367549734867508,0.0
13.852707999999998,0.09148658077221403,0.0
13.855095999999998,0.09325636409315363,0.0
13.85748,0.09395521222745469,0.0
13.85988,0.09572499554839427,0.0
13.862263999999998,0.10446724453171154,0.0
13.86466,0.11041599683569384,0.0
13.867064,0.1159104423957467,0.0
13.869452,0.12185919469972903,0.0
13.871832,0.1284245754464204,0.0
13.874228,0.13256854656611433,0.0
13.876616,0.13363948175275284,0.0
13.878996,0.12949551063305895,0.0
13.881392,0.13028690656597705,0.0
13.88378,0.13079876324517475,0.0
13.88616,0.12330221693870505,0.0
13.88856,0.11580567063223532,0.0
13.890948,0.10951982913926436,0.0
13.893328,0.10277968090236393,0.0
13.895724,0.09711046785210205,0.0
13.898112,0.08822844924192455,0.0
13.900496,0.08041736581838559,0.0
13.902896,0.07675025351454055,0.0
13.905284,0.0729433715838353,0.0
13.907664,0.06806555446649151,0.0
13.910064,0.05932330548317424,0.0
13.912452,0.05337455317919193,0.0
13.914832,0.04742580087520962,0.0
13.917228,0.04147704857122731,0.0
13.91962,0.03459713070746667,0.0
13.922,0.028927917657204785,0.0
13.9244,0.022327539047164575,0.0
13.926788,0.018800196370179743,0.0
13.929168,0.011268652200361209,0.0
13.931564,0.004947812844041419,0.0
13.933952,0.0026311749805553284,0.0
13.936331999999998,0.0013854723037077692,0.0
13.938732,0.0,0.0
13.941116,0.0,0.0
13.943499999999998,0.0,0.0
13.945896,0.0,0.0
13.948284,0.0,0.0
13.950663999999998,0.0,0.0
13.95306,0.0,0.0
13.955452,0.0016650115574281896,0.0
13.957831999999998,0.0041214190477744895,0.0
13.960228,0.006577826538120789,0.0
13.96262,0.009965399588245409,0.0
13.964999999999998,0.013352972638370028,0.0
13.967396,0.01674054568849465,0.0
13.969784,0.01705508280556389,0.0
13.972167999999998,0.017055082805563893,0.0
13.974564,0.01802124622869103,0.0
13.976952,0.018021246228691033,0.0
13.979348,0.018021246228691033,0.0
13.981747999999998,0.018021246228691033,0.0
13.984135999999998,0.018021246228691033,0.0
13.986516,0.01968625778611922,0.0
13.988912,0.020140564530048668,0.0
13.9913,0.021526036833756437,0.0
13.993684,0.02477384025702085,0.0
13.99608,0.030815140359620224,0.0
13.998468,0.03457480046208232,0.0
14.000848,0.03912585649746253,0.0
14.003248,0.039870030602137486,0.0
14.005632,0.03903141284097623,0.0
14.008016,0.03940349989331371,0.0
14.010412,0.03912396063959329,0.0
14.0128,0.04191745731892826,0.0
14.015184,0.04685282437154027,0.0
14.01758,0.05821380254398348,0.0
14.019968,0.06988931783349592,0.0
14.022352,0.0788761082071848,0.0
14.024748,0.0919020979370562,0.0
14.027136,0.10693018841334445,0.0
14.029516,0.11767453814307856,0.0
14.031912,0.13014144936550914,0.0
14.0343,0.13773054347059588,0.0
14.036684,0.14760127757581995,0.0
14.03908,0.15574945018834757,0.0
14.041468,0.15910202537512336,0.0
14.043852,0.15779877276300755,0.0
14.046248,0.15877716015102902,0.0
14.048636,0.1576136771657734,0.0
14.05102,0.15789321641949386,0.0
14.053416,0.16022018239000502,0.0
14.055804,0.16603759731628295,0.0
14.058188,0.1735756778773881,0.0
14.060584,0.1857676903795156,0.0
14.062976,0.20261363482266545,0.0
14.065352,0.21731581303466901,0.0
14.067756,0.23564820982929954,0.0
14.070144,0.26277850968464633,0.0
14.072524,0.29256064073459864,0.009543848517558181
14.074927999999998,0.32527414223287693,0.019119875378008716
14.077315999999998,0.374841171605782,0.027538793179647414
14.079696,0.42738679325525614,0.0359310301578325
14.082092,0.48984847498032824,0.04410498879236131
14.084476,0.5573833975270033,0.05224316366489799
14.086856,0.6332969142538141,0.06032612606447816
14.089259999999998,0.7212211396012567,0.06818749253625374
14.091648,0.8174314113302177,0.07598466306896874
14.094028,0.9189944631345024,0.08379837051668622
14.096431999999998,1.0272607694544693,0.09162702929241841
14.098819999999998,1.1440001136110582,0.0992904345801371
14.101196,1.268236004074117,0.10665808610171493
14.103595999999998,1.3882825974471076,0.1140536173800781
14.10598,1.5094020218646063,0.12130157441914198
14.108364,1.6181386506091355,0.12872717588710994
14.110767999999998,1.7190085418527268,0.13621171208787622
14.113155999999998,1.8211835815663033,0.14362857605850218
14.115536,1.9215907338168092,0.150973771211661
14.11794,2.0099871774466833,0.1585461245220213
14.120328,2.0918673580159783,0.1565910786751052
14.122708,2.1678829018307524,0.15464291041597414
14.125112,2.2318405151966516,0.1538796516096145
14.1275,2.288815334793148,0.15329167600255317
14.129879999999998,2.3386675909933814,0.15299106360389914
14.132276,2.381444505625595,0.15276849739451295
14.134659999999998,2.414771890891034,0.15268765647980997
14.13704,2.4370197330956196,0.15294199818174517
14.139435999999998,2.4547061911577996,0.15317077990974579
14.141823999999998,2.4689022002642127,0.1532960432369886
14.144208,2.4766744941086642,0.153473156730506
14.146603999999998,2.4766725982507953,0.15381552371203688
14.148988,2.465776254929306,0.15459090727670516
14.151372,2.4563701556750375,0.15522485314063464
14.153767999999998,2.4466845171670477,0.15587751195721833
14.156152,2.444587972764144,0.1562070666999329
14.158536,2.4435623635478794,0.15647768670984913
14.160932,2.442024897652417,0.15671544500295423
14.16332,2.4391369573165957,0.15705185482653936
14.165715999999998,2.4467713773920567,0.1569393479961442
14.168116,2.45785092045291,0.15672650783059244
14.170504,2.4697218594466817,0.15649481139274118
14.172883999999998,2.4820121073210344,0.15620123360164231
14.17528,2.4972356215015816,0.15576527062661283
14.177668,2.5155321716151846,0.155180532834375
14.180051999999998,2.536342679154401,0.15452770692354925
14.182443999999998,2.5610176185595916,0.15370622384052843
14.184831999999998,2.589417220203896,0.1527284845403017
14.187212,2.6153954122212033,0.1519153596255602
14.189616,2.638300568305455,0.1512583715460497
14.192004,2.6660013218154583,0.15041094043297432
14.194383999999998,2.693702075325461,0.14956350931989892
14.19678,2.7263381958880757,0.1484901159502475
14.199167999999998,2.7586947771969705,0.14749069264515643
14.201548,2.7893287970131686,0.14657426410914748
14.203943999999998,2.816750011269451,0.1458385219496451
14.206331999999998,2.844450764779455,0.1450675530586012
14.208712,2.8720117486625973,0.14434186443755342
14.211108,2.900271580680042,0.1435277417311327
14.213496,2.9221530234058974,0.14294501141498217
14.215891999999998,2.9405893431463603,0.14245589785200008
14.218288,2.959305202140544,0.14192927732550967
14.220676,2.975087794828532,0.14150891922238013
14.223059999999998,2.991289696397101,0.1410373029618126
14.225456,3.003906705353417,0.14067284863220805
14.227844,3.0150806920707565,0.14031668318601798
14.230223999999998,3.0261149091612363,0.13998831043368903
14.23262,3.034495399199241,0.13972961823974797
14.235008,3.0445059029313257,0.1393518117886032
14.237388,3.058800147409964,0.1387924649344546
14.239783999999998,3.0667160025970146,0.13841759696084835
14.242171999999998,3.075702792970703,0.13799955287226973
14.244552,3.0780316547990836,0.13779384885457419
14.246956,3.079429351067686,0.13761799409287617
14.249339999999998,3.0804077384557074,0.13749570965425725
14.251724,3.0810140387913907,0.13733049467858058
14.25412,3.0799903254329957,0.1372806009580296
14.256503999999998,3.076033345768405,0.13733178441775223
14.258884,3.071517287596374,0.13745170395669562
14.261292,3.0687237909170384,0.13753391214872207
14.263675999999998,3.0668614597974817,0.1375887863076645
14.266059999999998,3.0688635605438987,0.13751845349378028
14.268456,3.0728677620367324,0.13737593921582336
14.270844,3.075801028342928,0.13727846590339027
14.273224,3.076452654648986,0.13728590015597175
14.275619999999998,3.0769645113281836,0.13731087121645105
14.278004,3.0769645113281836,0.13731087121645108
14.280399999999998,3.0789666120746,0.1372400552820407
14.2828,3.0818998783807956,0.13714447893859502
14.285188,3.0825515046868532,0.1371524976355518
14.287567999999998,3.087858958791803,0.1370328366163882
14.289964,3.0899536073368368,0.13703994064980396
14.292352,3.0989857236808995,0.13681518654105804
14.294731999999998,3.1064350481591263,0.1366083493598037
14.297136,3.112301580771517,0.13641860682911755
14.299524,3.1196111356228835,0.1362282199170184
14.301908,3.127619538608551,0.135949547572418
14.304304,3.1369784160345766,0.1355920602320192
14.306692,3.1428921704752106,0.1353023677129783
14.309072,3.1497370904756226,0.13499040658528566
14.311476,3.1553713056625354,0.13473779113461185
14.313864,3.152205721930863,0.1347753724155542
14.316244,3.147969203012552,0.13485764178019993
14.318644,3.145595015213797,0.13488568286861258
14.321028,3.1497862081617343,0.13463499240626034
14.323412,3.153977401109671,0.1343843019439081
14.325808,3.152674148497556,0.1343688263984167
14.328196,3.150020421445081,0.13443200552799803
14.330576,3.1441538888326908,0.13462685457570198
14.332972,3.135773398794686,0.134868969127246
14.33536,3.1261822039431824,0.13516746874198896
14.337739999999998,3.121805915398011,0.13526462829464422
14.34014,3.1144963605466445,0.13545269461599727
14.342528,3.1087695975611145,0.135623140010011
14.344907999999998,3.103042834575584,0.13579554031334398
14.347304,3.0985267764035527,0.13590604591944708
14.349692,3.0953139708436375,0.1360326413516448
14.352071999999998,3.0904711515896426,0.13626991750730738
14.354472,3.091215325694318,0.1363531913695119
14.35686,3.0911681038660745,0.13644443565077052
14.359244,3.094193917970887,0.13642726477023104
14.36164,3.106810926927203,0.13612646411675916
14.364028,3.120638640697017,0.1357651727892517
14.366412,3.1347458937205523,0.13538125995449893
14.368808,3.150016629729343,0.1350496937553861
14.371196,3.165007826484413,0.13474826004215396
14.373575999999998,3.1880074262251505,0.1341920024758618
14.375972,3.2114263348464687,0.13358622558593433
14.37836,3.235264552348368,0.13292358942723898
14.380743999999998,3.261616727275881,0.13221668332222342
14.38314,3.2861065710838377,0.13155553322320448
14.385523999999998,3.3055212782123222,0.13106903748443974
14.387924,3.324516676460226,0.13062988556850466
14.39032,3.341929282842294,0.13020664540582372
14.392708,3.3613439899707775,0.129720149667059
14.395088,3.3786168267259855,0.1293189012281711
14.397488,3.3963089723617736,0.1288735789838369
14.399872,3.418704167624697,0.12823013305725933
14.402256,3.438305866208285,0.12766560989592124
14.404648,3.456557090351514,0.12717254630662245
14.407036,3.472806213748326,0.12674615345689338
14.409415999999998,3.4831888045327477,0.12649069654407308
14.41182,3.4954337264367257,0.12619594691085947
14.414204,3.50339490759415,0.12604783521899818
14.416584,3.5039067642733475,0.1260715728444689
14.418988,3.5069798002064028,0.12597850645703326
14.421376,3.504326073153928,0.12602610251607388
14.423756,3.504465842780788,0.12601145620195472
14.426152,3.5081905050199014,0.1259309673264389
14.42854,3.5121947065127355,0.12582241128406751
14.43092,3.5194117135654848,0.1256120257533349
14.433324,3.5306329221110677,0.12529357857479276
14.435712,3.548139972149622,0.12479807587426597
14.438092,3.56816097961379,0.12427541853706442
14.440492,3.5900443181975152,0.12372656865333576
14.44288,3.6120674264081005,0.12316271435388934
14.44526,3.636092635365103,0.1225615225304266
14.447656,3.6544836291351914,0.12215093081037288
14.450044,3.673014392532141,0.12172748500110653
14.452428,3.6910332992498924,0.12127824753197097
14.454824,3.7119854722738395,0.12076840623075069
14.457208,3.735870911603981,0.12019250741369204
14.459592,3.7596165813072626,0.11964120809092069
14.461988,3.7855041213838216,0.11902012061027553
14.464376,3.816606567766713,0.11825455910441535
14.46676,3.8455671437763272,0.11756347204258306
14.469156,3.874387950159081,0.1168723899805362
14.471544,3.897481993556305,0.11630356167035948
14.47394,3.9159202091546375,0.11582572124669246
14.476344,3.9322165543796923,0.11541019487850514
14.478727999999998,3.946371029231471,0.11506119930433702
14.481108,3.961596439269888,0.11469143606147174
14.483508,3.967882280762859,0.1145278584313432
14.485891999999998,3.9745874311364107,0.11432854525542482
14.488272,3.978499084830627,0.1141793588120216
14.490676,3.9856235440847594,0.11394803953293844
14.493064,3.9884642625923377,0.1138297146651657
14.495444,3.9946575562866915,0.11361405359250837
14.497844,4.00364434666038,0.11335561415921253
14.500232,4.0123515977803486,0.11312037020155544
14.502612,4.015192316287927,0.11300204533378269
14.505016,4.0152395381161705,0.11292976955763534
14.507404,4.013564198451717,0.11287552564341324
14.509783999999998,4.011888858787263,0.11282128172919116
14.51218,4.007792109495813,0.11284613184896966
14.514568,4.005278152070198,0.1128657023517548
14.516948,4.007559792070336,0.11279962237935355
14.519343999999998,4.011563993563169,0.11271493434854972
14.521731999999998,4.018501461362198,0.11257257276967673
14.524116,4.029582900280921,0.11233513321178695
14.526512,4.041595504759423,0.11208382973203353
14.528899999999998,4.047322267744953,0.1119826676645588
14.53128,4.053840426663401,0.11187585952477697
14.53368,4.057145780021933,0.11185265614470911
14.536063999999998,4.0561673926339115,0.11194100481638551
14.538448,4.051836430059113,0.11212417886544601
14.540843999999998,4.0507182730442315,0.11222396968932877
14.543231999999998,4.0494603464024905,0.11233554374729035
14.545616,4.045269153454553,0.11250275025510309
14.548011999999998,4.046153097186088,0.11255894068986068
14.550399999999998,4.053834739089792,0.11248942200333402
14.55278,4.063518481739913,0.11237910228108697
14.555175999999998,4.073853850696092,0.11227921205709462
14.557564,4.089124586704883,0.11208886407358166
14.559948,4.10653719308695,0.11184875422332667
14.562343999999998,4.122087468349462,0.11163744831064465
14.564732,4.138988218052331,0.11138615652541944
14.567108,4.161755500367591,0.11103719401155031
14.569508,4.187316279362187,0.11065822868118615
14.571892,4.210735187983506,0.11033463230664649
14.574288,4.23028966473885,0.1100696273984581
14.576688,4.2541278822407484,0.10970428423507145
14.579071999999998,4.281318674929422,0.10925295042486259
14.581456,4.311582503551153,0.10874176065981507
14.583851999999998,4.347201008106076,0.10809989730681833
14.586235999999998,4.380026015981664,0.10748862888834682
14.588616,4.407124260871721,0.1069664082269714
14.591015999999998,4.434222505761778,0.10644814993845807
14.5934,4.460249815465198,0.10595204806681333
14.595784,4.481481527742866,0.10554126210567343
14.598188,4.49884880815456,0.10519987000801817
14.600575999999998,4.516076318939393,0.10487277969934987
14.602956,4.53172103785839,0.1045484734022781
14.605351999999998,4.53963689304544,0.10434960182209864
14.607739999999998,4.543688316366517,0.10421183608897923
14.610124,4.550300918941452,0.10399536706198399
14.612519999999998,4.547973952970941,0.10393314024765944
14.614907999999998,4.536335331402646,0.1039924792323288
14.617288,4.518318320542764,0.1041237684750865
14.619687999999998,4.497787352257268,0.10426888939646187
14.622072,4.4806089591585465,0.10433440607823811
14.624456,4.463849874940405,0.10436328452890657
14.626851999999998,4.447090790722265,0.10438945281070333
14.62924,4.425815648332093,0.10446225568541707
14.631636,4.4054716715017,0.10451934563577106
14.634032,4.391413536164277,0.10445263121093283
14.63642,4.381219832692828,0.10432961329579057
14.638804,4.370654042169041,0.10417353595546822
14.6412,4.359436625339196,0.10400682653164302
14.643588,4.34915037406913,0.10382814821426334
14.645972,4.336489935000309,0.10364999396926108
14.648364,4.321455308132734,0.10347233882803723
14.650752,4.305489515705382,0.10330567125406774
14.653135999999998,4.292876298464805,0.10305827121747746
14.655532,4.283475886784143,0.1027417098417202
14.65792,4.265787532864093,0.1025845608474405
14.660303999999998,4.254245250810154,0.10231042688262752
14.6627,4.250431832488162,0.10191719829891506
14.665088,4.2482012060320065,0.10151991891836296
14.667467999999998,4.248624306628326,0.10109754846342807
14.669864,4.249838803157563,0.10067649992606863
14.672252,4.25049422117936,0.1003034141000912
14.674635999999998,4.249147538454739,0.09996505907964919
14.677032,4.250594352409454,0.09959028337794798
14.67942,4.249107900057972,0.09926237056853231
14.681803999999998,4.243617246213657,0.09900314070689044
14.6842,4.241339397929259,0.09867905738068865
14.686588,4.240784111137557,0.09834645462226548
14.688971999999998,4.244372795465548,0.0979396746077561
14.691368,4.245028213487344,0.09757290804827905
14.693756,4.249128754494533,0.09718508086213579
14.696136,4.257885123300614,0.09674785954569717
14.698536,4.268643592853112,0.09627764688193341
14.700924,4.276701113524893,0.09589300929804782
14.703304,4.281545828636757,0.09557260909951096
14.705699999999998,4.29360755080137,0.09511836777445673
14.708087999999998,4.303247863338987,0.09473090785299923
14.710472,4.306742104010492,0.09445152154352958
14.712868,4.311167510241775,0.09416097235665656
14.715255999999998,4.313590815726642,0.09390270039293348
14.71764,4.317876452331065,0.09362720751670568
14.720036,4.318577196323236,0.09338021082942663
14.722428,4.322071436994741,0.09310366244551838
14.724807999999998,4.3280796350918616,0.09282166834868481
14.727204,4.335670625054817,0.09254175175389938
14.729591999999998,4.340700435763916,0.09233408630376416
14.731988,4.341166966472739,0.09223393210369431
14.734384,4.338001382741066,0.09222969736997372
14.736772,4.333066015688453,0.09230021833639536
14.739152,4.337861613114206,0.09224193249651172
14.741548,4.340375570539821,0.09223489023348289
14.743936,4.337395082405382,0.09233984054465036
14.746315999999998,4.33599738613678,0.09244665271064723
14.748716,4.335670625054815,0.09253410823959979
14.751104,4.340139461398604,0.0925631505898837
14.753483999999998,4.348053420727785,0.09257731339880462
14.755884,4.3599715815498,0.09253437300135221
14.758268,4.380689541290401,0.09238066192602515
14.760652,4.403549371404278,0.09219090617047346
14.763056,4.430273633384129,0.09195786907979071
14.76544,4.454856024990703,0.09176782850192505
14.767824,4.484745870702227,0.09154663168872518
14.77022,4.513564781227111,0.09134785510729188
14.772608,4.540661130259299,0.09116001384052302
14.774992,4.571110054478264,0.0909134561999079
14.777388,4.604771784257143,0.0906064813658316
14.779776,4.64071515403616,0.09025170598503751
14.782156,4.677077832695757,0.0898610718017556
14.784552,4.71171794986266,0.0894747258821556
14.78694,4.73448523217792,0.08924390367451789
14.789319999999998,4.760744859306817,0.0889391953679707
14.791716,4.78942589606271,0.08857352018777293
14.794104,4.817315536885687,0.08821066695702319
14.796487999999998,4.849349148828355,0.08778768024093296
14.798884,4.882453695957663,0.08735883359840317
14.801272,4.909971249728302,0.0869842922760071
14.803655999999998,4.937628573125801,0.08660906231101133
14.806052,4.95983867279149,0.08627826383202167
14.80844,4.9791155061509835,0.08598095007294898
14.810823999999998,4.995738612458003,0.08569933186836516
14.81322,5.010639157272324,0.08542286474365542
14.815608,5.02423644947453,0.08512695129101405
14.817991999999998,5.037321884997539,0.08481207368226291
14.820388,5.049476154960769,0.08450533448096464
14.82278,5.05590366193847,0.08425008636395566
14.82516,5.067685844849364,0.08392189886825512
14.82756,5.082820602947033,0.08354529138644888
14.829948,5.101307936231477,0.08311748912251916
14.832332,5.123567153583278,0.08261340038109284
14.834728,5.153183147614689,0.08201137147546228
14.837116,5.180657271272822,0.0814443559083195
14.8395,5.209202330117594,0.08086585984057185
14.841896,5.238026928216087,0.08027518335823423
14.844284,5.265128964821883,0.07969570623102434
14.846668,5.281568871389536,0.07920073935824498
14.849064,5.301221583517106,0.07866652444455965
14.851452,5.316218467845784,0.07816239753883945
14.853836,5.328933712174325,0.07769379948523544
14.856232,5.343511287622423,0.0772151478946951
14.858624,5.359020028630298,0.07673365407669926
14.861004,5.373178295197816,0.07627983844347942
