Time,Force,Position
13.882103999999998,0.1296669821355698,0.0
13.884508,0.12327826775285561,0.0
13.886896,0.11768094930305953,0.0
13.889276,0.1100815301068466,0.0
13.891672,0.10127140609713492,0.0
13.89406,0.09031941171414619,0.0
13.896444,0.07950718695801766,0.0
13.89884,0.06962612776166745,0.0
13.901228,0.06081600375195579,0.0
13.903612,0.05228541899596453,0.0
13.906008,0.04240435979961433,0.0
13.908396,0.03466517097654118,0.0
13.910775999999998,0.026925982153468038,0.0
13.913172,0.018255627770616574,0.0
13.91556,0.012658309320820493,0.0
13.917939999999998,0.006921221244164201,0.0
13.920336,0.0031862339139247593,0.0
13.922724,0.0025242825167407002,0.0
13.92512,0.0,0.0
13.927516,0.0,0.0
13.929904,0.0,0.0
13.932284,0.0,0.0
13.93468,0.0,0.0
13.937068,0.0,0.0
13.939452,0.0,0.0
13.941848,0.0,0.0
13.944236,0.0,0.0
13.946616,0.0,0.0
13.949012,0.0014533473301021694,0.0
13.951404,0.0014533473301021691,0.0
13.953784,0.0014533473301021691,0.0
13.956188,0.0014533473301021694,0.0
13.958576,0.0014533473301021694,0.0
13.960956,0.0014533473301021694,0.0
13.963356,0.0014533473301021694,0.0
13.965744,0.0014533473301021694,0.0
13.968124,0.0014533473301021694,0.0
13.97052,0.0014533473301021694,0.0
13.972908,0.001695989846705598,0.0
13.975292,0.0028697979230873473,0.0
13.977688,0.002869797923087347,0.0
13.980076,0.002972670812830565,0.0
13.98246,0.005357183702711055,0.0
13.984856,0.006670761405953013,0.0
13.987244,0.007984339109194973,0.0
13.989628,0.011300017558853785,0.0
13.992024,0.014755465635372805,0.0
13.994416,0.017000208898393085,0.0
13.996796,0.017651835204450985,0.0
13.999192,0.022690075146806227,0.0
14.00158,0.028007854342881888,0.0
14.003964,0.03239446797917923,0.0
14.006363999999998,0.036781081615476566,0.0
14.008752,0.041447234505494326,0.0
14.011132,0.04182964664895796,0.0
14.013531999999998,0.04182964664895796,0.0
14.01592,0.04182964664895796,0.0
14.018304,0.04182964664895796,0.0
14.020699999999998,0.041587004132354534,0.0
14.023088,0.04041319605597279,0.0
14.025468,0.04223863043841243,0.0
14.027867999999998,0.04213575754866922,0.0
14.030255999999998,0.03975124465878873,0.0
14.032636,0.03843766695554677,0.0
14.035035999999998,0.037124089252304815,0.0
14.037423999999998,0.035120092648018714,0.0
14.039808,0.03581514906658129,0.0
14.042203999999998,0.04307369037396601,0.0
14.044591999999998,0.05726780362251035,0.0
14.046976,0.07718678399871559,0.0
14.049371999999998,0.1068348329954154,0.0
14.051764,0.1430463668809374,0.0
14.054144,0.18619347270761905,0.007962388129320336
14.056544,0.23678800715465798,0.015812478967415895
14.058932,0.29953301984918895,0.02353356379147402
14.061312,0.37280882218825884,0.0309079332090388
14.063712,0.4495750734830954,0.03845540744697388
14.0661,0.5267587378006435,0.04642520576364673
14.06848,0.6099468084995726,0.05441052211678763
14.070871999999998,0.7008618470725798,0.062325632360485855
14.07326,0.7956763183908082,0.07031575591661708
14.07564,0.904326932712108,0.07795106832826608
14.078036,1.0183303271087314,0.08560940008230457
14.080424,1.1367553360208995,0.09333021237963325
14.082804,1.2614642905681697,0.10102865457643777
14.085207999999998,1.3859778244270793,0.10887499984349737
14.087592,1.5129599897412298,0.11653200390741626
14.089972,1.635660310166695,0.12413094693165391
14.092372,1.751844367531582,0.13168806113764106
14.094756,1.8584391259028343,0.13928169279442706
14.09714,1.9535350323326521,0.14699771405335674
14.099536,2.0452330376053203,0.15468571444905302
14.10192,2.132137341310106,0.1542966408008882
14.104316,2.2097318852749783,0.1540507522522543
14.106711999999998,2.2806703965524107,0.15385636402497307
14.109099999999998,2.339970286261549,0.154128007604757
14.11148,2.4002957851869517,0.15406857751234546
14.113876,2.4639285333287564,0.15345219053341452
14.116264,2.5224880406489576,0.15278773285024902
14.118648,2.5733205800950816,0.15219348127652618
14.121052,2.6181487131598242,0.15156283909212612
14.123435999999998,2.6517575335368524,0.1512737746465693
14.12582,2.6808049697714758,0.1509486038745511
14.128215999999998,2.704359856303917,0.15061257299311726
14.130603999999998,2.71897707014878,0.15037922407599613
14.132984,2.733409188396409,0.14996433209234297
14.135388,2.7411833780987305,0.14983185894628878
14.137776,2.7506801292937477,0.1496563828214074
14.140156,2.7597575716081844,0.14954213555058593
14.14256,2.7696264098555394,0.14941080921182773
14.144948,2.7819166577298913,0.14912396650967283
14.147327999999998,2.7927638833652675,0.1488516076500706
14.149724,2.7961145626941737,0.14896309302486707
14.152112,2.8038415305682514,0.14893863804378277
14.154492,2.8123598943752466,0.14890459529657146
14.156888,2.822508271876323,0.14873192650682354
14.159275999999998,2.8262782600858096,0.14878432696428914
14.161656,2.826183816429323,0.14899099206386918
14.164051999999998,2.8270205383326155,0.14916278724345935
14.166439999999998,2.8290679650494064,0.1492632599106314
14.16882,2.832885175087137,0.1492173120469186
14.171224,2.8339088884455323,0.14926754644337029
14.173612,2.8350723714307886,0.14929859385640637
14.175992,2.843173322215073,0.14905666087775143
14.178387999999998,2.85471939598475,0.1487230744236402
14.180775999999998,2.8662654697544276,0.14839409283384908
14.18316,2.8791620179644637,0.14797203360959982
14.185564,2.8891252998683044,0.14766885028746102
14.187952,2.899088581772145,0.1473641116734207
14.190331999999998,2.909331402929707,0.14702208993261034
14.192728,2.9155700225944345,0.14683836675264123
14.195116,2.921157015953104,0.14664988305390794
14.197499999999998,2.937034052297579,0.1460105402897115
14.199896,2.9481154912163015,0.14555107655855157
14.202284,2.9541217934555517,0.14530387808579168
14.204664,2.96091949162772,0.1450458014301069
14.207068,2.970510686479224,0.1446908102239989
14.209456,2.984245852450422,0.14416561150785362
14.211835999999998,2.997329392115562,0.14364551300591274
14.214232,3.0070603565939256,0.14328718267294524
14.21662,3.0160924729379883,0.14302597124488664
14.219003999999998,3.0260557548418294,0.14272767371776207
14.2214,3.0332255400663364,0.1425194713390622
14.223788,3.032526691932035,0.14261007993130653
14.226171999999998,3.034109483797871,0.14258774995463427
14.228572,3.034900879730789,0.14257674577656831
14.23096,3.03504064935765,0.14255896666258933
14.233339999999998,3.0335976271186733,0.14256351097000397
14.235736,3.033505079320056,0.14248542543950704
14.238124,3.034483466708078,0.1423614272657323
14.240507999999998,3.0389541989097353,0.14205960049054359
14.242904,3.0415625999918356,0.14181430441043935
14.245288,3.039515173275045,0.14171529702808155
14.247668,3.04040101286445,0.14151369962264904
14.250072,3.046501758760187,0.14109791201766586
14.25246,3.050088547230309,0.1407314265772744
14.254844,3.0528839397675136,0.14037735897156028
14.25724,3.04781069894591,0.14030223565881111
14.259628,3.0413869836839487,0.14030740170852432
14.262012,3.034311642115929,0.14030947779995762
14.264408,3.0268642134955717,0.1402671598339685
14.266796,3.023560755994908,0.14005719641059222
14.269175999999998,3.0250528959199965,0.13968988850273267
14.271572,3.0266848054719446,0.13929927585697868
14.27396,3.023521117598142,0.1390705380146004
14.27634,3.0192864945377,0.13888764270311713
14.278736,3.0184969944626507,0.138628162603679
14.281123999999998,3.0212923869998547,0.13827466497773902
14.283504,3.020874973977144,0.13805746657084086
14.28592,3.0215284961410713,0.1377978707389422
14.288304,3.0229734142379163,0.1375304773824458
14.290688,3.0300053256934314,0.13710755242411998
14.293084,3.037828633081865,0.13667927274331934
14.295472,3.0459314797240182,0.1362222618759109
14.297856,3.0529633911795337,0.13581472185577068
14.300256,3.06451136080708,0.13530396775304046
14.302644,3.075919560807766,0.13481060997066766
14.305024,3.0953361637941197,0.13405583423232367
14.307424,3.1141011404744154,0.13328885850255273
14.309808,3.1378014842073236,0.13236250832903138
14.312192,3.1600115838730125,0.13152701243030623
14.314588,3.178357251672728,0.13081891336092236
14.316976,3.1928384876064695,0.13023138078730753
14.31936,3.210113220219546,0.12956865874623638
14.32176,3.230181449511958,0.12883235808715066
14.324148,3.2523915491776467,0.12801736931093943
14.326528,3.270876986604222,0.12730602540013972
14.328924,3.284566826605046,0.12672620564925413
14.331312,3.3003985369791464,0.1260594437962945
14.333692,3.3096648666065556,0.12564868511798544
14.336088,3.3165097866069675,0.12535318832514536
14.338476,3.3133442028752955,0.1253853787385151
14.34086,3.308967914330124,0.12547529615842754
14.343256,3.3012390505981775,0.12570740551368717
14.345644,3.290576920560035,0.12603202164659721
14.348024,3.2739084882826424,0.12655866222673437
14.350428,3.2581712215650285,0.12705737383768526
14.352816,3.23815021410086,0.12770704232154415
14.3552,3.2198517681293874,0.1283232248070067
14.357596,3.2031361140237515,0.12890391444601518
14.359984,3.187491395104754,0.12944882279187006
14.362364,3.1743606336113714,0.12995331413808076
14.36476,3.1641631384241835,0.13036914958177342
14.367148,3.1521033121174393,0.13083117429510113
14.369528,3.1397639465569744,0.13132080904117757
14.371928,3.1250031713695128,0.13192014766530893
14.374312,3.111033792114968,0.13251618693167952
14.376696,3.103582571778873,0.13295035645627815
14.3791,3.098785078495251,0.1333270751728226
14.381488,3.1032066930107964,0.13340666760282988
14.383872,3.1077680771532017,0.13346963899881906
14.386268,3.126623705774245,0.1330741235486295
14.388656,3.1485523703283445,0.13258716431985224
14.391036,3.1767668763754147,0.1318954827609754
14.393432,3.207635109474959,0.13114639875175624
14.39582,3.2425075440673377,0.1302610600422236
14.3982,3.277379978659716,0.12938550604074867
14.400596,3.310250312505678,0.12855656168439397
14.402984,3.3409787759783627,0.12780233155028378
14.405364,3.365980476465517,0.12720829767781516
14.407764,3.391633803258729,0.12662352699221524
14.410152,3.414633402999467,0.12609308903198063
14.412532,3.4354911323669275,0.12564469421208854
14.414928,3.459002588786863,0.12514638905337516
14.417316,3.4835849803934362,0.12461804483463355
14.4197,3.512590882373425,0.12393292599319203
14.422096,3.5398742228607163,0.12326756606714057
14.424484,3.5647833755492537,0.12264026529964861
14.42688,3.585828096371818,0.12211806521580847
14.429284,3.5988644142087143,0.1218278599541039
14.431672,3.617907034284861,0.12137817476901008
14.434052,3.6274510073081214,0.1212364331486925
14.436448,3.6309886780921317,0.12125404786111463
14.438835999999998,3.6290319033160885,0.12145310132805259
14.441216,3.630148164473101,0.12156514144429278
14.443616,3.6323353608167523,0.12164430867331019
14.446004,3.6335913916006253,0.12174162016345609
14.448384,3.637129062384635,0.12176061495103635
14.450784,3.644159077982281,0.12165552461938339
14.453172,3.6553330646996214,0.12143586877151459
14.455552,3.6670661299244025,0.12116327273129557
14.457947999999998,3.678799195149183,0.12088813324117355
14.460335999999998,3.6928139003741007,0.12053845065223776
14.462716,3.7061769792929606,0.12018397606015391
14.465112,3.7187486622789026,0.11983868425109934
14.4675,3.7259656693316514,0.11964980461030159
14.469884,3.738769669743071,0.11935909144264722
14.472279999999998,3.7503629653409916,0.11911454691979727
14.474668,3.766100232058606,0.11876535582116535
14.477052,3.7869126354556926,0.11828853888416398
14.479447999999998,3.804000376613666,0.11789336540645444
14.481836,3.82178696590594,0.11742840543758777
14.48422,3.844788461504547,0.11682490983356912
14.486615999999998,3.8704909059838712,0.116108394579774
14.489004,3.8918170619180246,0.1154610640060183
14.491384,3.914214153038817,0.11479983696241083
14.493783999999998,3.9376821793462478,0.11411340390878356
14.496171999999998,3.9610104360268172,0.11344077037840458
14.498552,3.9777733119606964,0.11294763686468452
14.500951999999998,3.9911836127077995,0.11255486489363917
14.503339999999998,4.0013811078949875,0.11224696118236291
14.505724,4.01451186938837,0.11188087981356744
14.508119999999998,4.025500760508476,0.11157491111353812
14.510507999999998,4.034627320509025,0.1113005816698605
14.512892,4.041751779763158,0.11106990099452077
14.515287999999998,4.054230914950483,0.11070125863248459
14.517675999999998,4.065127258271971,0.11034628933535016
14.52006,4.078025702339876,0.10995273100577631
14.522455999999998,4.085057613795391,0.10967179403223071
14.524843999999998,4.088364863011794,0.10944908875219106
14.527228,4.086317436295003,0.10935922096726526
14.529623999999998,4.081848599951216,0.10934859949436677
14.532008,4.075237893234149,0.10939164086625912
14.534388,4.0662057768900866,0.10951311397122283
14.536791999999998,4.059408078717918,0.10963923414814467
14.539179999999998,4.045672912746721,0.10990465295661238
14.54156,4.030866811588884,0.1101952777750999
14.543955999999998,4.0169918759908265,0.11047028449580566
14.546344,4.0147574578189325,0.11046384134405843
14.548724,4.0150842189008955,0.11036837573048618
14.551128,4.0194151814756935,0.1101923271177436
14.553515999999998,4.0197419425576575,0.11009686150417136
14.555896,4.019928934012761,0.11001353075783703
14.558291999999998,4.023980357333837,0.10986313830519034
14.560679999999998,4.027100615095136,0.10972535408199763
14.56306,4.022724326549964,0.1097716711818905
14.565456,4.01448360613882,0.10988600358787382
14.567844,4.002518223488562,0.11005581531864239
14.570239999999998,3.9964193734506943,0.11011678595976546
14.572636,3.993114020092161,0.11013592153873962
14.575024,3.9951633426668214,0.11002343983698262
14.577403999999998,4.002707110801534,0.10976615870876905
14.5798,4.009739022257049,0.10948614943733766
14.582188,4.018912804085842,0.10915319638845751
14.584568,4.023710297369463,0.10886547026649783
14.586972,4.035585028078972,0.1084283567930462
14.58936,4.046668362855565,0.10799218970112472
14.591739999999998,4.059241941699376,0.1074991341222657
14.594144,4.06259641274402,0.10721011205502871
14.596532,4.061667143042111,0.10702202812559619
14.598912,4.058084146287729,0.10686222028733826
14.601316,4.058784890279898,0.10660143538527038
14.603704,4.058973777592871,0.10631725612939748
14.606084,4.053435901920314,0.10612419320846624
14.60848,4.052973162927228,0.10583035016746876
14.610868,4.061217675054111,0.10532522757332105
14.613248,4.070393352740773,0.10480354660752568
14.615652,4.080360426360353,0.10427666111165575
14.61804,4.08553190255418,0.10383034410012984
14.62042,4.08977221318823,0.10339878918684398
14.622816,4.095083459008919,0.10294742573591376
14.6252,4.099835626322165,0.10254888382712933
14.627584,4.10509965031461,0.10217307006156269
14.62998,4.111574379120554,0.10176615002627434
14.632364,4.12191353979247,0.10129836200374771
14.634744,4.128108729344694,0.10091646808559172
14.637148,4.133512522963999,0.1005325962097158
14.639536,4.1357035110233875,0.10022070928258306
14.641915999999998,4.139896599829194,0.09987244447485676
14.644312,4.147302494194916,0.09945106054918804
14.646696,4.155639554120416,0.09901812999570536
14.649079999999998,4.1630454484861374,0.09860254058425598
14.651476,4.170311573225,0.0981973107032367
14.653864,4.179160489829698,0.09778766244006397
14.656244,4.184005204941562,0.09745093846473184
14.658639999999998,4.185497344866651,0.09719877099442703
14.661027999999998,4.188851815911296,0.09692498676608455
14.663408,4.194068618075498,0.09662932199715202
14.665807999999998,4.201939147292174,0.09631162759439639
14.668195999999998,4.2098096765088515,0.09599457600756872
14.670592,4.216329731285168,0.09572580008015669
14.672988,4.221127224568789,0.09546865868458151
14.675376,4.225645178598691,0.09523360783131209
14.67776,4.22373752150876,0.09512930072137607
14.680156,4.221550325165109,0.09504780381194886
14.682544,4.222296395127653,0.09492381326732226
14.684924,4.2274187536353685,0.09477073390943598
14.687324,4.236265774382197,0.09457801388139787
14.689712,4.244973025502166,0.09439667797602688
14.692092,4.259407039607664,0.09415042506372766
14.694488,4.27435291039236,0.09392830753511865
14.696876,4.287808537109838,0.0937608672649344
14.699255999999998,4.30377812125293,0.09358680920949494
14.701656,4.32682494282191,0.09330869864895727
14.704044,4.351454556256727,0.09303310163310281
14.706423999999998,4.375153004131765,0.09276930178422399
14.708828,4.398571912753084,0.09252878337887831
14.711216,4.424132691747679,0.09225433350585907
14.713596,4.450764405928912,0.09196443661088986
14.716,4.479258451229703,0.09166051831121547
14.718388,4.507752496530492,0.09135893888491313
14.720768,4.539040038510618,0.09103642827280763
14.723164,4.574751090864158,0.09063493863608266
14.725552,4.618610315830225,0.09011297527883307
14.727932,4.664471641542709,0.08957242250475354
14.730328,4.707120161695278,0.08908827823272837
14.732716,4.7517707825942646,0.0885924965157507
14.7351,4.794279533119973,0.08813926526505647
14.737492,4.837579679578599,0.08768840772250622
14.73988,4.872731653424697,0.08735581395611407
14.742259999999998,4.908023396897657,0.08701519769753739
14.744664,4.943315140370616,0.08667298341386957
14.747052,4.979165962351016,0.08629898987407753
14.749432,5.006868611718888,0.08603779154219025
14.751836,5.033779865153842,0.08577490873952698
14.754224,5.059200874521577,0.08555521474393141
14.756604,5.0869035238894496,0.08529643195730409
14.759,5.112464302884045,0.08507533015024961
14.761388,5.133881110758947,0.0849103458581203
14.763768,5.153295817887431,0.08477049036547774
14.766172,5.169917028336581,0.0846515218700157
14.76856,5.181742641359979,0.08457797800705108
14.77094,5.189564052890543,0.08455236149539927
14.773336,5.195662902928411,0.08453270458565403
14.775724,5.194964054794109,0.08457762813687059
14.778108,5.196826385913665,0.08456431474620617
14.780504,5.18816635662194,0.08464246098680858
14.782892,5.1771321395314605,0.08471372700253907
14.785272,5.1666570009484225,0.08474814306289655
14.787676,5.160605372738798,0.08471120926485172
14.79006,5.154973053409753,0.08464723895778653
14.792444,5.151622374080848,0.08454383711909425
14.79484,5.145198658818887,0.08447709712180534
14.797228,5.142407057997421,0.08433815681420252
14.799608,5.138963830869896,0.08418758018284812
14.802004,5.133565724824199,0.08400145447695274
14.804392,5.122301086166111,0.08387133100903865
14.806772,5.107870863776351,0.08372995614931512
14.809172,5.096001820640448,0.08353057306268397
14.811556,5.0874853526913215,0.08327693361057112
14.81394,5.08218169030211,0.08297739211016017
14.816336,5.0802306030996744,0.08262325666322509
14.818724,5.073483918471488,0.08230627659759607
14.82112,5.060730931604049,0.08205261254851574
14.823515999999998,5.053053081416085,0.08173927332496649
14.825904,5.044304296041481,0.08144134748450516
14.828288,5.041841352159849,0.08105743721258565
14.830683999999998,5.038167703464716,0.08069493501449228
14.833071999999998,5.033562889209807,0.08033946791111714
14.835456,5.024814103835203,0.08003599037740738
14.837851999999998,5.016065318460599,0.07973298447518776
14.840239999999998,5.0006586045406864,0.07947937323661548
14.842624,4.984180955434136,0.07923987354485232
14.845019999999998,4.967563536700724,0.0790083228255562
14.847407999999998,4.953879384273509,0.07874955656185173
14.849792,4.947504786697659,0.07845369278646588
14.852187999999998,4.944622533935446,0.07809411060708688
14.854575999999998,4.943974699345127,0.07775222508593675
14.856956,4.943326864754807,0.07741084523655183
14.85936,4.939466224604573,0.07711476274859388
14.861748,4.9343948796408394,0.07684237011056744
14.864128,4.924760254676831,0.07664385632543833
14.866523999999998,4.922063097511852,0.0763802668455549
14.868911999999998,4.925232472959262,0.07606602054043428
14.871292,4.928541618033532,0.07574477567772825
14.873696,4.930779827921166,0.07543743918035596
14.876084,4.934600829674634,0.07513987410158673
14.878464,4.941355097734298,0.07481664904061003
14.880859999999998,4.945687956166965,0.07453846322578234
14.883247999999998,4.951091749786269,0.07424464110420645
14.885628,4.95221180265902,0.07400641448222968
14.888032,4.964645611875971,0.07370063924087221
14.89042,4.978429895533281,0.07336155186590665
14.8928,4.987790668817177,0.07308669022857192
