Time,Force,Position
13.774152,0.04879980411502974,0.0
13.776531999999998,0.044376293741615405,0.0
13.778928,0.04111626635345667,0.0
13.781316,0.041765996801645326,0.0
13.783696,0.04907175993727319,0.0
13.786091999999998,0.06917962762645104,0.0
13.788475999999998,0.09557144095073061,0.0
13.79086,0.11758506987196977,0.0
13.793255999999998,0.14658149256261166,0.0
13.795643999999998,0.1814425520077747,0.0
13.79804,0.2241703489538757,0.00843636878464983
13.800436,0.275044422654635,0.01652591034390958
13.80282,0.3357873346027492,0.024397543725576135
13.805203999999998,0.40016046513349035,0.032324988985481876
13.807608,0.47407416173709904,0.039943479991781855
13.809992,0.5570653006551444,0.04736038254836029
13.812376,0.64741132039493,0.054685429977423115
13.814772,0.7432498898368993,0.06202667692823565
13.81716,0.8427186778614956,0.0694751879971224
13.819539999999998,0.9433962748417215,0.07722848180632916
13.821944,1.0484516714596421,0.0851065704725908
13.824332,1.1627242800188595,0.09281803541453512
13.826712,1.2804420115634698,0.10036361315914764
13.829112,1.3981144171377065,0.10779305139191828
13.8315,1.5095500989050843,0.11519364735602904
13.83388,1.6055299490664376,0.12279055076119558
13.836276,1.6969484150853855,0.13033003473667407
13.838668,1.7912548214401545,0.1377752257930597
13.841048,1.882722405145215,0.14512324529522835
13.843444,1.966742560229918,0.15250161945426402
13.845832,2.0447583089332397,0.15146584663372492
13.848211999999998,2.1154191768148207,0.15076146810406615
13.850608,2.180168186113638,0.1502665151029019
13.852996,2.2402160416431895,0.14973759894152955
13.855375999999998,2.2914187722837815,0.14956148091520743
13.857772,2.3352666221026332,0.14953455990294098
13.86016,2.369058642219027,0.1498068940284469
13.862539999999996,2.399732300431992,0.15001392231068306
13.864935999999998,2.427287596741527,0.15014120458091534
13.867323999999998,2.459500616707823,0.14970436932439352
13.869707999999996,2.486128539173318,0.14915673269773624
13.872103999999998,2.5033994800706565,0.14881718977559663
13.874491999999998,2.5128490094374305,0.14874201496216585
13.876888,2.5220189995504843,0.14871782916031706
13.879291999999998,2.5295589759694583,0.14883569559052934
13.881676,2.5424064064933827,0.14876296716245851
13.884056,2.5551140673904458,0.14871740599234082
13.886456,2.5686131242204273,0.1486674850420941
13.88884,2.5824842681027476,0.14867346203196904
13.891224,2.599381226089879,0.14864181690170308
13.89362,2.6193512200100657,0.14847236734872232
13.896004,2.6402523794900308,0.14827502872071532
13.898383999999998,2.663435178970133,0.14796621263209433
13.900784,2.68941147512957,0.14756718303699923
13.903168,2.715387771289008,0.1471598774239978
13.905551999999998,2.7377791748361924,0.14686283122926463
13.907948,2.7619403617043163,0.1463878640420768
13.910336,2.782656425587047,0.14601025047837138
13.912715999999998,2.807516460589473,0.14545882005017044
13.91512,2.825299258166009,0.14523102811419053
13.917508,2.844804617235241,0.14496043260755093
13.919887999999998,2.8636583499984147,0.1446771772044512
13.922288,2.880649751642032,0.14443921948078434
13.924672,2.8899122895537035,0.144501121894619
13.927056,2.905181129704625,0.14430175418366542
13.929452,2.922871379482544,0.14396790395772188
13.93184,2.940049772581265,0.14361654617390002
13.934224,2.953643273067733,0.143381874136441
13.93662,2.967004456128724,0.1430946304731629
13.939008,2.981204256950876,0.14270604697128322
13.941392,2.992470791466833,0.14243304608704324
13.943788,3.0010835989303155,0.14223101056665824
13.946176,3.0050405785949055,0.1421769157030692
13.948555999999998,3.007135227139939,0.1421807014019311
13.950952,3.0105803501253323,0.1421037795618447
13.95334,3.0136061642301444,0.14207759704103137
13.955723999999998,3.0195652446411523,0.14194809122502497
13.958124,3.0284575913583547,0.14171552698044382
13.960508,3.02976084397047,0.14172953769687482
13.962891999999998,3.0342769021425022,0.1416062096297859
13.965288,3.039072499568254,0.14145019940267983
13.967676,3.0478722984868396,0.14115291986952722
13.970059999999998,3.0629579388983963,0.14060365474356476
13.97246,3.086471291176201,0.13969963266728969
13.974848,3.1061202115880318,0.13894367075240177
13.977227999999998,3.119762829760612,0.13840406426138535
13.979632,3.1284700808805805,0.1380284597548289
13.98202,3.1365257056944915,0.13764375979080873
13.9844,3.1421599208814044,0.13738654573943312
13.986796,3.1444415608815413,0.13728109879434708
13.989184,3.1457920353219007,0.13720226074028138
13.991564,3.148073675322038,0.13709577933189662
13.993964,3.1515660201356743,0.13692712053865277
13.996348,3.1533358034566135,0.13679562104148224
13.998732,3.1531034860311355,0.1367362582342822
14.001128,3.1615784197256267,0.13631206374322408
14.003516,3.1683307919274215,0.13592895628437146
14.005912,3.1733606026365195,0.13558432394624811
14.008307999999998,3.1822548452115913,0.1351153125728438
14.010695999999998,3.1880760518536078,0.1347597751157496
14.013076,3.1906844529357086,0.13453161458550728
14.015475999999998,3.185284451032142,0.1345794683954655
14.01786,3.1777425787552986,0.13470884941887928
14.020244,3.1685706927843764,0.13493976095938134
14.02264,3.159259037186593,0.13518766419357228
14.025028,3.1566053101341183,0.13524536177773583
14.027412,3.159818115694034,0.1351210010342265
14.029808,3.163682547560007,0.13500397788125076
14.032196,3.1678265186797008,0.13485331405554474
14.034576,3.17504352573245,0.13459502622969638
14.036975999999996,3.1842626335316164,0.13427053159620225
14.03936,3.1916194102112256,0.1339934581037434
14.04174,3.1982773387565344,0.13379906572883077
14.044136,3.208659929540956,0.13350626862601989
14.046524,3.220765081818074,0.1331788734460695
14.04892,3.2232318174154453,0.1332274331371211
14.051315999999998,3.2260706400651546,0.1333166248824392
14.053703999999998,3.227419218647644,0.13349562970586246
14.056088,3.227557092416635,0.13373147437613514
14.058483999999998,3.229697066932043,0.13390172681342213
14.060867999999996,3.2346305381267855,0.1339974084497474
14.063252,3.245570311560779,0.13388876593837376
14.065647999999998,3.256510084994772,0.13378249190462108
14.068035999999998,3.2640047354433728,0.13374363322244281
14.07042,3.2714993858919734,0.13370396463171202
14.072815999999998,3.273407042981904,0.13381716656490916
14.075203999999998,3.274103995258336,0.13398723937676454
14.077584,3.2768030482811845,0.13409112917711138
14.079983999999998,3.280433266863811,0.13417048584377328
14.082371999999998,3.2837839461927176,0.1342818529055917
14.084752,3.2848529855214865,0.13448880142085026
14.087148,3.2876445863429518,0.1346643119731187
14.089536,3.2908554960449985,0.13479133824561698
14.091916,3.29127290906771,0.13499009417593216
14.094312,3.293971962090559,0.13509269180595834
14.0967,3.300814986233102,0.13505214338300334
14.099084,3.309288024069724,0.13491183223972086
14.10148,3.3173889748540084,0.1347280737123134
14.103868,3.328051104892151,0.1344208038004021
14.106252,3.3389927741840135,0.1340866946827404
14.108648,3.3511451482893744,0.1337036425314745
14.111036,3.3671619542607094,0.13322999327860366
14.113431999999998,3.384249695418682,0.13272727783757382
14.115832,3.4070641995621855,0.13208604164539814
14.11822,3.4312291781460478,0.13138297616084613
14.120599999999998,3.458327423036105,0.13059807903338416
14.122996,3.4859847464336036,0.12976415375376418
14.125384,3.5109883427786275,0.12898429927473307
14.127767999999998,3.5341296080040947,0.12824665798513857
14.130164,3.55261504543067,0.12760931852360807
14.132552,3.57566376285752,0.12680776060874172
14.134932,3.6009941202845073,0.1259289893815281
14.137327999999998,3.6275351825249937,0.1250069818830012
14.13972,3.6551471799521185,0.12405529776573726
14.142099999999996,3.6798259110730474,0.12319435360105144
14.144495999999998,3.7018509151415024,0.12237681112030899
14.146883999999998,3.720523344023181,0.12168111816556668
14.149264,3.7431999743976934,0.12088276706379522
14.151663999999998,3.762663799212291,0.12019161288156271
14.154051999999998,3.77998575365361,0.11956903362894702
14.156435999999998,3.7943744417887344,0.11902082798075722
14.158832,3.799823561378414,0.11869981946060314
14.161219999999998,3.80126847947526,0.11848166399824002
14.163603999999998,3.798197339400073,0.11834361006940922
14.166,3.7951261993248866,0.1182057018024151
14.168387999999998,3.7949883255558956,0.11800292979211369
14.170768,3.791637646226989,0.11789231671197002
14.173168,3.78893859320414,0.11779106140339546
14.175555999999998,3.7883814105545692,0.11762800686492711
14.177939999999998,3.7919681990246907,0.11735354899546775
14.180336,3.7900605419347606,0.11724797921583494
14.182719999999998,3.7857314752178324,0.1172306608748396
14.1851,3.780331473314266,0.11724305806429758
14.187504,3.7749314714106994,0.11725453343921052
14.189887999999998,3.770322865440051,0.1172620986700668
14.192272,3.768228216895017,0.1172461787395713
14.194676,3.7664131076037037,0.11720379623569234
14.197064,3.7649700853647277,0.11719735075209871
14.199443999999998,3.765249624618448,0.11717118262906467
14.201848,3.7684624301783636,0.11708313470313814
14.204232,3.7726064012980576,0.1169783423242571
14.206611999999998,3.78368784021678,0.11671782346178791
14.209008,3.794909048762363,0.11643901766196758
14.211396,3.8047797828675867,0.11621448282708735
14.213775999999998,3.813300042532452,0.11604843093281933
14.216171999999998,3.8187472662642623,0.11596270694134088
14.218559999999998,3.8277793826083246,0.11582380238915183
14.22094,3.838022203765886,0.11564293359305164
14.223335999999998,3.8478457160428667,0.11550330677707144
14.225723999999998,3.859252020185684,0.11536134318367215
14.228108,3.874942065075055,0.11510425881894372
14.230503999999998,3.8910514188450067,0.11480789075652584
14.232888,3.908883334107655,0.11449609021361885
14.235283999999998,3.9227110478774705,0.11427084697144681
14.237688,3.9316033945946725,0.11414814970981337
14.240076,3.939704345378957,0.1140289514895501
14.242456,3.950459023215717,0.11387551701691499
14.244859999999996,3.9585599740000013,0.11375877398292665
14.247244,3.9678716295977843,0.11360279794063144
14.249628,3.9730393140758737,0.11354716933331892
14.252024,3.979138164113741,0.11347631723784031
14.254412,3.9792307119123578,0.11353682717950155
14.256792,3.9810458212036712,0.11357885861336599
14.259188,3.986725362360959,0.11354484245516272
14.261576,3.9925446731451064,0.11349784520175057
14.263956,3.99449955206328,0.11352693311285175
14.26636,3.993660934302119,0.11360400107807933
14.268748,3.990680446167681,0.11373881714072018
14.271128,3.9841150654209896,0.11392665373155914
14.273531999999998,3.9721024609424886,0.11419856823310645
14.275916,3.960741482770045,0.11447355605683411
14.278296,3.95031167015738,0.11473089290636097
14.280692,3.9349464904921034,0.11509455436930825
14.28308,3.926518778625855,0.11530832223656737
14.28546,3.928101570491691,0.11530263627655173
14.287864,3.9327573982905824,0.11522685210971916
14.290252,3.931546693477084,0.11526733895502336
14.292632,3.9304757582904455,0.11529522187211767
14.295028,3.924748995304915,0.11539981287874918
14.297416,3.9234457426927993,0.11538017115702201
14.2998,3.9213510941477656,0.11536316775643438
14.302196,3.9255422870957024,0.11519259796568038
14.304584,3.9321548896706373,0.11494387650768981
14.306964,3.9359739955662367,0.11474066706373666
14.30936,3.939001705528918,0.11453954344308877
14.311748,3.9451024514246553,0.11426620891309607
14.314127999999998,3.9545557725071676,0.11389935481908627
14.316524,3.965219798403179,0.11349115025898653
14.318912,3.979748256165164,0.11300713630045106
14.321291999999998,3.998001376166262,0.11245953588355863
14.323688,4.010947042062411,0.11197994577655633
14.32608,4.02403247758542,0.11149278806199822
14.328459999999998,4.04382306348198,0.11081841607566148
14.330856,4.05788688639301,0.11025175381813766
14.333244,4.064361615198955,0.10982106916238009
14.335623999999996,4.068182616952423,0.10942498351352789
14.338024,4.0802915609452794,0.10884712716931588
14.340412,4.091469339378358,0.10828243663225305
14.342808,4.107442715237188,0.10763672470007218
14.345204,4.120343055162963,0.10706058054690179
14.347588,4.13245199915582,0.10648592929178027
14.349972,4.140556741655843,0.1059937251744278
14.352368,4.144657282663031,0.10557927689670793
14.354756,4.152901794789915,0.10508077910200303
14.35714,4.165010738782771,0.104523640638647
14.359543999999998,4.175257351656072,0.10398987178752865
14.361928,4.181359993409677,0.10354334768352497
14.364308,4.1886733399767815,0.103063476343483
14.366708,4.195055520984109,0.10259797152993097
14.369092,4.19850443568524,0.10218031716870662
14.371476,4.204467307811987,0.10174604677343567
14.373872,4.2076366832593965,0.10134909072535382
14.37626,4.206103009079673,0.10108499792318214
14.37864,4.206291896392645,0.10080713012043278
14.381036,4.205270078892119,0.10056230819937809
14.383424,4.202106391018316,0.10036511483853687
14.385803999999998,4.1927966312784015,0.10028847029898394
14.388208,4.18255570597871,0.10022392504545037
14.390596,4.169381514372823,0.10020656478187502
14.392976,4.156067553140075,0.10020136229795125
14.395379999999998,4.144476153400024,0.10018257364263686
14.397764,4.132884753659972,0.10016373032036173
14.400144,4.125949181718814,0.10008371098690183
14.40254,4.113147077165263,0.10009807099689022
14.404928,4.095409605559102,0.10019389534922521
14.407308,4.081257026565193,0.10025368345502629
14.409704,4.074181684997173,0.1001833260496347
14.412092,4.065895638615654,0.10014661259497076
14.414488,4.059611692980552,0.10007525868716685
14.416883999999998,4.061196380704257,0.09988270818021655
14.419271999999998,4.061710133241324,0.09971185644626161
14.421656,4.063806677644227,0.09954117134022818
14.424051999999998,4.066834387606908,0.09935873931280158
14.426436,4.068791162382952,0.09919829950376724
14.42882,4.075263995331027,0.09899260673900179
14.431216,4.083040080891217,0.098808613806068
14.433604,4.09454082869052,0.09857891810674559
14.435984,4.108695303542298,0.09832600546725558
14.43838,4.1255035054465505,0.09805191595533216
14.440768,4.146176139216777,0.09772383839362965
14.443148,4.164846672240587,0.09743049638871162
14.445544,4.1853795363839525,0.09711596496917918
14.447932,4.201116803101567,0.09687038983868554
14.450328,4.220299192804574,0.09660107237682457
14.452723999999998,4.243206244746696,0.09628681644339948
14.455111999999998,4.267463771129175,0.09593619455816353
14.457492,4.282502189712488,0.0957534155633552
14.459891999999998,4.296190133855443,0.095614188923102
14.462279999999998,4.306805042065342,0.0955310991422254
14.46466,4.310482482476213,0.0955570409960565
14.467055999999998,4.318723202887357,0.09547656304903508
14.469447999999998,4.32789508885828,0.09538632152482085
14.471828,4.337346514082923,0.09527407382635245
14.474227999999998,4.3501505144943415,0.09508884249990705
14.476615999999998,4.3625824278534235,0.09487281542885377
14.478999999999996,4.380508786772558,0.09454752326609607
14.481395999999998,4.396712584198996,0.09423341198997126
14.483783999999998,4.413847547185213,0.09391284172031453
14.486167999999996,4.432193214984928,0.09356816848321976
14.488572,4.447885155732169,0.09324506086390807
14.49096,4.465579197225825,0.09289398926889404
14.493339999999998,4.483273238719483,0.09254606971466219
14.49574,4.501898445772919,0.09218593399870186
14.498124,4.520011796147158,0.0918052984505934
14.500507999999998,4.535750958722641,0.09142295572971128
14.502904,4.547485919805291,0.09109978923491133
14.505292,4.56629811831383,0.09067370291631471
14.507671999999998,4.590744532009282,0.09013860863205037
14.510068,4.6182639816377895,0.08956046230377858
14.51246,4.646854366452934,0.08896263596823616
14.514839999999998,4.6718126368275845,0.08845892580849897
14.517236,4.696119280896176,0.08794619966954076
14.519619999999998,4.72056569459163,0.08742546958796948
14.522,4.743010007540665,0.08693703698155542
14.524408,4.763032910862702,0.08650551936182521
14.526792,4.773464619333236,0.08617419095051321
14.529172,4.783244701497712,0.085831251756123
14.531567999999998,4.791441991796352,0.08548617843159423
14.533955999999998,4.793912519109462,0.08519702559111696
14.536336,4.796243276795711,0.08491808110655015
14.53874,4.7987138041088215,0.08463096137014789
14.541128,4.798390834742597,0.08436550818395006
14.543507999999996,4.806216037988899,0.08399897329842013
14.545903999999998,4.8169745075413966,0.08360598487838843
14.548291999999998,4.829315768959731,0.08321961487046665
14.550672,4.841796800004924,0.08282295216821142
14.553067999999998,4.849482233624366,0.0824714337821867
14.555455999999998,4.852744156870394,0.08219712016431302
14.557836,4.854003979370007,0.08194644688614744
14.56024,4.8532617011232,0.0817170529388252
14.562627999999998,4.852798962130114,0.08146898237165733
14.565008,4.852196453510169,0.08123042052475037
14.567412,4.852385340823142,0.08099548632585551
14.5698,4.851223753695756,0.08079435508543362
14.572179999999998,4.852343806568507,0.0805528512998555
14.574576,4.856908982426652,0.08030165416318408
14.576963999999998,4.8637085764566885,0.08006980787260343
14.579344,4.871439336046505,0.07983303115304587
14.581744,4.882894757875435,0.07957050791245213
14.584127999999998,4.894210410077504,0.07931765595609268
14.586512,4.904315357466074,0.07909088611085481
14.588907999999998,4.9192159022803965,0.07882559466966313
14.591295999999998,4.924105943362634,0.07866996223307918
14.593676,4.925643409258097,0.07856954787568653
14.59608,4.9270411055266985,0.07847868805648736
14.598468,4.930952759220916,0.07838921758021566
14.600847999999996,4.938589075154246,0.07827738949619827
14.603252,4.945154455900937,0.07817984659558672
14.60564,4.951580067020768,0.07809151853080756
14.608019999999998,4.962009879633433,0.07796285633187236
14.610416,4.970297821872822,0.0778630047879967
14.612799999999998,4.980587864858626,0.07774406492521552
14.61518,4.990738138217571,0.07763501818991556
14.617584,5.004101217136431,0.07748312145341367
14.619972,5.016253591241792,0.07735554489334515
14.622351999999998,5.034691806840124,0.07715402838074002
14.624756,5.049545129826203,0.07696453751669888
14.627144,5.064118913558561,0.0767943310936655
14.629523999999998,5.077621762104281,0.07663889196166755
14.631928,5.088331113970666,0.07649794100329158
14.634316,5.096107199530856,0.07638053173657995
14.636696,5.100950018784852,0.07628898492743622
14.639096,5.107515399531543,0.07619476124704753
14.64148,5.113429153972177,0.07608774217988741
14.643864,5.118551512479892,0.07597748906829194
14.64626,5.120880374308274,0.07588328402481012
14.648648,5.122417840203736,0.07578619346141827
14.651027999999998,5.126516485353057,0.07563500113753281
14.653424,5.132757000875653,0.07545706471500746
14.655812,5.138997516398251,0.07528127421070635
14.658195999999998,5.146588506361207,0.07507338085086454
14.660592,5.152317165204606,0.07487677841193285
14.66298,5.155531866622391,0.07467712249709911
14.665364,5.156884236920618,0.07448808071031875
14.66776,5.159587081659205,0.07426918602689686
14.670148,5.157354559345181,0.07409220219641664
14.672527999999998,5.161547648150987,0.07383936600907276
14.674924,5.163226779531179,0.0735823761776929
14.677312,5.1631833494186745,0.07332471921248276
14.679691999999998,5.170217156732058,0.07300434231436635
14.682096,5.186470071844608,0.07259892951837639
14.684484,5.200581116583882,0.0722170463063835
14.686863999999998,5.218044736509931,0.07179058499804768
14.68926,5.236439521995759,0.07135986095394045
14.691648,5.254974077108447,0.07092197633557512
14.694031999999998,5.2728570059150766,0.0704694308245617
14.696424,5.289668999535068,0.07003148814505439
14.698811999999998,5.305130518714701,0.06962536212338025
14.701195999999998,5.317658771588138,0.06924108850648568
14.7036,5.327393527782242,0.06887016509971397
14.705984,5.341923881402096,0.06847598331629189
14.708367999999998,5.3591079620744235,0.06808243971224028
14.710764,5.381087640172504,0.06766567853521081
14.713152,5.402927548643724,0.06725835520245188
14.715531999999998,5.422625586741669,0.06687584103601418
14.717936,5.443115020772529,0.06649998469717149
