Time,Force,Position
15.735796,0.0,0.0
15.738184,0.0,0.0
15.740563999999996,0.0,0.0
15.742968,0.0,0.0
15.745352,0.0,0.0
15.747731999999996,0.0,0.0
15.750132,0.0,0.0
15.752515999999998,0.0,0.0
15.754896,0.0,0.0
15.7573,0.0,0.0
15.759688,0.003116850810905639,0.0
15.762067999999998,0.009306737554866659,0.0
15.764463999999998,0.017638494672104738,0.0
15.766856,0.025970251789342817,0.0
15.769235999999998,0.03323107371994237,0.0
15.771632,0.039700499717623815,0.0
15.774015999999998,0.04402805534202819,0.0
15.776396,0.04621374059315551,0.0
15.778791999999996,0.049330591404061146,0.0
15.781176,0.053238838147884895,0.0
15.783571999999998,0.057147084891708645,0.0
15.785968,0.05998439644889386,0.0
15.788356,0.06067983763280202,0.0
15.790736,0.06067983763280202,0.0
15.793131999999998,0.06067983763280202,0.0
15.795519999999998,0.06067983763280202,0.0
15.7979,0.06067983763280202,0.0
15.800304,0.060679837632802026,0.0
15.802692,0.060679837632802026,0.0
15.805071999999996,0.060679837632802026,0.0
15.807467999999998,0.05756298682189639,0.0
15.809855999999998,0.05137310007793537,0.0
15.812239999999996,0.04304134296069729,0.0
15.814635999999998,0.034709585843459206,0.0
15.817023999999998,0.027448763912859657,0.0
15.819404,0.02097933791517821,0.0
15.821796,0.016651782290773836,0.0
15.824184,0.014466097039646514,0.0
15.826579999999998,0.011349246228740876,0.0
15.82898,0.007440999484917126,0.0
15.831368,0.003532752741093376,0.0
15.833747999999998,0.0006954411839081572,0.0
15.836144,0.0,0.0
15.838527999999998,0.0,0.0
15.840908,0.0,0.0
15.843312,0.00046312375843088777,0.0
15.845695999999998,0.0004631237584308877,0.0
15.848076,0.0004631237584308877,0.0
15.85048,0.00046312375843088777,0.0
15.852868,0.00046312375843088777,0.0
15.855247999999998,0.00046312375843088777,0.0
15.857644,0.00046312375843088777,0.0
15.860027999999998,0.00046312375843088777,0.0
15.862408,0.00046312375843088777,0.0
15.864803999999998,0.00046312375843088777,0.0
15.867191999999998,0.00046312375843088777,0.0
15.869583999999998,0.00046312375843088777,0.0
15.871988,0.00046312375843088777,0.0
15.874376,0.00046312375843088777,0.0
15.876756,0.00046312375843088777,0.0
15.879152,0.0004631237584308878,0.0
15.881536,0.0004631237584308878,0.0
15.883915999999996,0.0004631237584308878,0.0
15.88632,0.0004631237584308878,0.0
15.888704,0.0004631237584308878,0.0
15.891087999999998,0.0,0.0
15.893484,0.0,0.0
15.895872,0.0,0.0
15.898251999999998,0.0,0.0
15.900648,0.0,0.0
15.903031999999998,0.0,0.0
15.905428,0.0,0.0
15.907824,0.0,0.0
15.910212,0.0,0.0
15.912591999999998,0.0,0.0
15.914996,0.0,0.0
15.917384,0.0,0.0
15.919764,0.0,0.0
15.922167999999996,0.0,0.0
15.924556,0.0,0.0
15.926936,0.0,0.0
15.929332,0.0,0.0
15.93172,0.0,0.0
15.9341,0.0,0.0
15.936496,0.0,0.0
15.938884,0.0,0.0
15.941264,0.0,0.0
15.94366,0.0,0.0
15.946048,0.0,0.0
15.948427999999998,0.0,0.0
15.950828,0.0,0.0
15.953212,0.0,0.0
15.955595999999998,0.0,0.0
15.957992,0.0,0.0
15.96038,0.0,0.0
15.962772,0.002138463422884167,0.0
15.965168,0.0033457612859900134,0.0
15.967556,0.0066949295223729215,0.0
15.969936,0.014048299251589532,0.0
15.972339999999996,0.01739746748797244,0.0
15.974728,0.022888506097632412,0.0
15.977108,0.02959024952079112,0.0
15.979507999999996,0.03629199294394983,0.0
15.981896,0.044064671553747076,0.0
15.984276,0.04797291829757082,0.0
15.986672,0.05001883392183793,0.0
15.989056,0.050854044732606296,0.0
15.991435999999998,0.05085404473260629,0.0
15.99384,0.05462252184956983,0.0
15.996228,0.060532869339810426,0.0
15.998612,0.0613680801505788,0.0
16.001008,0.06136808015057879,0.0
16.003391999999998,0.06206352133448696,0.0
16.005775999999997,0.06583199845145049,0.0
16.008179999999996,0.06759837482199718,0.0
16.010564000000002,0.06545991139911303,0.0
16.012948,0.06425261353600718,0.0
16.015344,0.06090344529962427,0.0
16.017732000000002,0.053550075570407654,0.0
16.020111999999997,0.05410725821997926,0.0
16.022512,0.05731627206415636,0.0
16.024896,0.06732108822263289,0.0
16.027276,0.08188728852351472,0.0
16.029671999999998,0.10101487296680187,0.0
16.032055999999997,0.1310822308440823,0.0
16.034452,0.16873678696858027,0.0
16.036848,0.21467738947459686,0.008069211342762273
16.039236000000002,0.27094995398639915,0.015617190876221338
16.041615999999998,0.3252219288443082,0.023501312199243715
16.044012000000002,0.37884038153829,0.031797618756191075
16.046396,0.44353837729312556,0.04008370800985427
16.048792,0.5173576302402481,0.048096504751133036
16.051187999999996,0.5962535309593663,0.05601026735348824
16.053576,0.6750549880219983,0.06402209832379965
16.055956000000002,0.7572071244135368,0.07235775929282172
16.058352,0.8482009787436418,0.08059112160757542
16.060739999999996,0.9453390090819883,0.08879204442304409
16.063119999999998,1.0473179628164608,0.09695801193644103
16.065523999999996,1.1553485447605574,0.10499006834765257
16.067907999999996,1.2598448628710373,0.11307820435941895
16.070287999999998,1.3595474794136344,0.12116634037118534
16.072688,1.4503124232686555,0.12930377700643705
16.075075999999996,1.5371676092873285,0.13744443056942718
16.077455999999998,1.6213237422831532,0.1454150041909024
16.079852000000002,1.6958905762853438,0.15347698286699088
16.082236,1.766083017600232,0.16141356100599297
16.084632,1.8285484910410428,0.1612765456772195
16.087027999999997,1.8756506806744457,0.16201436887713117
16.089416,1.9229870835911953,0.16228479040161434
16.0918,1.969766303858373,0.1620926048344242
16.094195999999997,2.013474384050365,0.16173871159474984
16.096584,2.0446126771142836,0.1619618752674864
16.098964000000002,2.065834910102605,0.16258486363834276
16.10136,2.085661342680193,0.16305481561319607
16.103747999999996,2.1072122326083473,0.16298491958815678
16.106132000000002,2.1226189465282594,0.16296597085563752
16.108528,2.13160194518621,0.16303330261505655
16.110915999999996,2.135464481194314,0.1631897150694096
16.113296,2.1312732882463763,0.16361394720715772
16.115691999999996,2.123916511566767,0.16414958472450314
16.11808,2.1137662382078224,0.16486223103529513
16.12046,2.100542928915823,0.1658409736402974
16.122859999999996,2.0857368277579864,0.1668835362846564
16.125248,2.0657158202938177,0.16833359144572085
16.127628,2.052724828427295,0.16938172302521082
16.130024,2.0368931180531944,0.17074851364443983
16.132407999999998,2.025158156970545,0.1719176285977473
16.134804000000003,2.02166391629904,0.1726351881863459
16.1372,2.0166794315603154,0.1735114068165096
16.139587999999996,2.0102047027543715,0.17455708300335682
16.141968,2.003729973948428,0.17556208044799002
16.144363999999996,2.004472252195234,0.1760625096678857
16.146752,2.0110810630544296,0.17617953705612732
16.149132,2.017969413167346,0.1762449280181363
16.151524000000002,2.0233675192130436,0.17647542013689502
16.153912,2.026903294139184,0.17680891569376886
16.156304,2.0317895435056834,0.17701082778491992
16.158699999999996,2.0406799943650165,0.1769614890485753
16.161088,2.0531553378366034,0.17673343976470976
16.163468,2.074802567279113,0.17605147267977447
16.165872,2.1061807611999863,0.17484850954205702
16.168259999999997,2.1472899195992237,0.1730950553088495
16.17064,2.190121639491157,0.17126071790117267
16.173035999999996,2.2358866256892855,0.16919526665342297
16.175424,2.2768560144616625,0.16748042650398337
16.177804000000002,2.320386582487897,0.16551857769944914
16.180208,2.3568871349164855,0.1638757801516634
16.182595999999997,2.39129303880004,0.16228995645902516
16.184976,2.4259784819373156,0.16066245648377833
16.187371999999996,2.4642960395150872,0.15877499547677099
16.189755999999996,2.496747064480468,0.15722077432231354
16.192152,2.5304087942593476,0.15567513027940622
16.194547999999998,2.5652812288517257,0.15409893715457532
16.196936,2.597872023443967,0.15268639716007365
16.199315999999996,2.6288800261703718,0.15132477401000416
16.201712,2.6629610648298327,0.14981267107139118
16.204099999999997,2.6959711683026546,0.14837831060584775
16.20648,2.7252566095363635,0.1471410755749377
16.208883999999998,2.7540301940908742,0.14590032286441748
16.211267999999997,2.7737716623013218,0.14501716007323412
16.213651999999996,2.782571461219907,0.14464232501547222
16.216048,2.783502626779685,0.14460840481114118
16.218435999999997,2.783502626779685,0.14460840481114118
16.220816,2.783130539727348,0.1445619992133899
16.223211999999997,2.7851798623020083,0.14437009675208412
16.2256,2.7853668537571115,0.1442447114982373
16.227992,2.793142939317302,0.1438374304451019
16.230387999999998,2.800499715996912,0.14349014559284684
16.232776,2.8072048663704634,0.1431381164567995
16.235155999999996,2.8109767504378196,0.1429080287085513
16.237560000000002,2.817821670438231,0.14253835823580108
16.239944,2.816238878572395,0.14256374734464738
16.242323999999996,2.8107916548405854,0.14273508097542864
16.24472,2.804692804802718,0.14290268029128544
16.247107999999997,2.7995251203246285,0.14303687547350935
16.249488,2.7890027599133465,0.1434330543068799
16.251883999999997,2.776618068382508,0.14390045294017767
16.254272,2.7622312761052523,0.14446246592452328
16.256652000000003,2.7474251749474163,0.14507816730920167
16.259051999999997,2.7369953623347514,0.14557027189961624
16.261435999999996,2.732571851961337,0.14580580119204767
16.263820000000003,2.733503017521115,0.14577234134916348
16.266216,2.7365760534541708,0.14563370044257684
16.268603999999996,2.7417437379322602,0.1454977825783964
16.271,2.7457007175968506,0.14543607401312447
16.273395999999998,2.754313525060333,0.14522241528317043
16.275784,2.7567802606577043,0.14527036510687563
16.278168,2.7623200321881307,0.1451917161762872
16.28056,2.7683716603977553,0.14513949205513899
16.282947999999998,2.773864210099939,0.14516093319766227
16.285328,2.780148155735041,0.1451720976405643
16.287723999999997,2.7909953813704167,0.14494422407594595
16.290107999999996,2.8035651684984897,0.14467293307888757
16.292488,2.818276825999839,0.1443021559584395
16.294896,2.832848713874329,0.14395457777422604
16.29728,2.8506334073087345,0.1434438436510426
16.299659999999996,2.8740050941018094,0.1427531999222156
16.302064,2.9009616735071377,0.14194942504635824
16.304451999999998,2.9283375617930463,0.14109745643842142
16.306832,2.951849018212982,0.1403841672950161
16.309227999999997,2.9710767338863633,0.13986922982803998
16.311616,2.9830874425069944,0.13966682021778767
16.313995999999996,2.992816511127489,0.13958577234650632
16.3164,3.0012423271358672,0.1394947110192936
16.318784,3.0067348768380517,0.139512004722978
16.321163999999996,3.005429728368066,0.1397788218107405
16.32356,3.008128781390915,0.13988719777144668
16.325947999999997,3.0096171296002643,0.14006117395469164
16.328344,3.0131075785560317,0.14015764699757285
16.330748,3.020230141952295,0.14006210296059077
16.333135999999996,3.0282838709083366,0.13994148299213305
16.335512,3.035778521356937,0.13989131928166348
16.337919999999997,3.040339905499342,0.1399414892075654
16.340303999999996,3.0466238511344437,0.1399553342555818
16.342684,3.054258271209904,0.139892372844392
16.345092,3.06496572721842,0.13971956177187345
16.347476,3.072088290614683,0.13963908337059378
16.349856000000003,3.07790760139883,0.13954449195961885
16.35226,3.0827957466231983,0.13947645270985587
16.354647999999997,3.091036467034344,0.13926553006811926
16.357028,3.1057027985653196,0.13880760769824527
16.359431999999998,3.1303796338283805,0.13802389265482903
16.36182,3.155615547598881,0.13717417851410202
16.364199999999997,3.179920295809603,0.1363570252092317
16.366608,3.207158310326521,0.13544216820516913
16.368995999999996,3.2363984255898557,0.13443751458828587
16.371375999999998,3.2649869145471326,0.1334446403361163
16.373772000000002,3.292132381265433,0.1324644248510607
16.376156,3.3162520338789214,0.13151574249153675
16.37854,3.3351567801860775,0.1307594530316379
16.380936,3.351407799440759,0.1300630604188828
16.383319999999998,3.370219997949298,0.12924767943875665
16.3857,3.392384771644613,0.12829378998936558
16.388112,3.410033487167896,0.12744698144880087
16.390499999999996,3.4226070660117074,0.12676239848636134
16.392879999999998,3.4334580833628223,0.12612268783750274
16.395288,3.443377935154159,0.1255045232406435
16.397675999999997,3.452087082131997,0.12493920921171485
16.400056,3.459585524296336,0.1244257174114546
16.402451999999997,3.4681549016473134,0.12388335032365572
16.404835999999996,3.4728598471323173,0.12345221373265353
16.407216,3.4666231233254585,0.1233295179318934
16.409616,3.459315464331961,0.12324228508818087
16.412,3.451076639778686,0.12317566171351506
16.41438,3.439252922613157,0.12317877735569864
16.416792,3.4295710758209057,0.12310821699483677
16.419176,3.41574525790896,0.12316910700024532
16.421563999999996,3.3987066344370995,0.12334382125306442
16.423963999999998,3.381900328390716,0.12357347679189531
16.426347999999997,3.3673756623444695,0.12371535465579549
16.428731999999997,3.353782161858002,0.12383531775436167
16.431131999999998,3.334973755065201,0.12412693440924638
16.433515999999997,3.3169567442053185,0.12440358186186318
16.435899999999997,3.303875100398048,0.12453893282636735
16.438299999999998,3.294006262150693,0.12456714281587249
16.440683999999997,3.2812967053957607,0.1247467869510882
16.443067999999997,3.2681678397602467,0.1249766027751524
16.445467999999998,3.257180844498011,0.12513083723059343
16.447856,3.2463336188626344,0.12527227725346748
16.450235999999997,3.2310628828538435,0.12557862887644533
16.452636,3.2127191109119977,0.12598693161230587
16.455024,3.201312806769181,0.1261980682226902
16.457403999999997,3.1897667329995034,0.12642746252836226
16.459804,3.1799432207225227,0.12662710757803966
16.462192,3.17663786736399,0.1266682694811941
16.464571999999997,3.1718422699382383,0.12679493962243485
16.466968,3.171982039565098,0.12677896297236713
16.469355999999998,3.1758464714310715,0.12667225737867469
16.471739999999997,3.1789195073641268,0.12657137681528505
16.474156,3.1806420688568235,0.1265417902306515
16.476543999999997,3.1819453214689397,0.1265608382700948
16.478924,3.188975337066585,0.12642536605941665
16.481319999999997,3.1921409207982574,0.12639848025127795
16.483708,3.1911625334102354,0.1265111015023543
16.486092,3.191906707514911,0.12659437352448777
16.488504,3.193489499380747,0.1265815741039922
16.490892000000002,3.1974937008735815,0.1264595092051327
16.493271999999997,3.2024290679261935,0.12631842493856574
16.495672,3.212439571658278,0.12602652802559755
16.498056,3.2264542768831954,0.1256158169763514
16.500439999999998,3.2440538747203664,0.12512820633976343
16.502836000000002,3.2616534725575375,0.12465280647397942
16.505224,3.2806960926336846,0.12417824891634166
16.507607999999998,3.30080964789647,0.12367579372582149
16.510004000000002,3.31798993685306,0.12326426046461793
16.512388,3.3354497650633705,0.12282035130678137
16.514772,3.3509074925272646,0.12243759411614112
16.517167999999998,3.3657135936851006,0.12204680171884791
16.519556,3.3805196948429366,0.12165208572569329
16.521935999999997,3.4002611630533854,0.12113285114373526
16.524332,3.4202821705175537,0.12058129907692211
16.526719999999997,3.4384408468621657,0.12007990576372427
16.5291,3.4592532502592523,0.11953024062493084
16.5315,3.4805775103355368,0.11899932066661777
16.533887999999997,3.502553396717879,0.11849156665471279
16.536268,3.5281141757124743,0.11792958164218997
16.53868,3.5543265810131266,0.11738885473354638
16.541067999999996,3.579840138179479,0.11692982425901129
16.543447999999998,3.6010699545992773,0.1166119987949478
16.545864,3.622719079899656,0.11626266934649934
16.548251999999998,3.6425058740804777,0.11594666836266072
16.550648000000002,3.657357301208688,0.11574513503101756
16.553044,3.676772008337173,0.11540012564230763
16.555431999999996,3.693113679532602,0.11513540021279117
16.557812,3.7095951203548916,0.11486063054616283
16.560207999999996,3.7292893667370963,0.11450248387487875
16.562596,3.7519168794254965,0.11408833161349231
16.564976,3.776266953606593,0.11366015512477319
16.56738,3.805412625213441,0.1131467111189768
16.569764,3.8336271312605112,0.11266765906094088
16.572148,3.8639835076808584,0.1121395540765677
16.574543999999996,3.8936882577951475,0.11160572235721423
16.576932,3.922741381603379,0.11106379040611318
16.579312,3.954495454292328,0.11042129528153251
16.581708,3.9769378713834937,0.10991614395638948
16.584096000000002,3.997378187728243,0.10946195322273303
16.586472,4.015025007393657,0.10905329431098841
16.588876,4.028575077767621,0.10866467217274176
16.591264000000002,4.0431960833282234,0.10824972667747546
16.593648,4.057258010381384,0.107891529393369
16.596047999999996,4.078536944487294,0.10738324501077809
16.598436,4.103820080086038,0.10679011339919618
16.600816000000002,4.120443186393057,0.10635242997043601
16.603212,4.136135127140298,0.1059227181679897
16.605600000000003,4.151966837514399,0.10548572831133612
16.607979999999998,4.165656677515223,0.10510835012299653
16.61038,4.175901394530653,0.10476448511385096
16.612764,4.183492384493609,0.10444942471906749
16.615159999999996,4.185496381097895,0.10421408628922041
16.617556,4.179911283597094,0.10409300272918022
16.619943999999997,4.171253150163238,0.10403385913739027
16.622327999999996,4.160173607102385,0.10404843099958097
16.624724,4.1518875607208665,0.10402313681269744
16.627111999999997,4.14253057915271,0.10402017322422304
16.629492,4.1449066628093325,0.10382139771872179
16.631887999999996,4.1455601849732595,0.10363585985107315
16.634276,4.148215807883604,0.10341399551403005
16.63666,4.155527258592839,0.10312999634291503
16.639063999999998,4.164049414115574,0.10281378387314058
16.641447999999997,4.168846907399195,0.10254574861643574
16.643831999999996,4.164425292883649,0.10245708897383372
16.646228,4.158792973554606,0.10240335295725361
16.648612,4.1595390435171495,0.1022774271341733
16.650996,4.166570954972665,0.10202467185311224
16.653391999999997,4.171321226428043,0.10182987777266364
16.655775999999996,4.175000562696782,0.10165884902855676
16.658155999999998,4.177049885271442,0.10155553314156104
16.660559999999997,4.18096153896566,0.1014289713807368
16.662948,4.18738715008549,0.10128963431388674
16.665332,4.200330920123769,0.10106521977576181
16.667727999999997,4.215276790908465,0.1008058072120804
16.670111999999996,4.2365085031861325,0.10042034540670905
16.672496000000002,4.254155322851547,0.10007508822451693
16.6749,4.267378632143547,0.09983116203186028
16.677287999999997,4.276597739942714,0.0996620568200306
16.679668,4.287679178861437,0.099471053910548
16.682063999999997,4.296758517033742,0.09931408094898396
16.684452,4.3010422577802965,0.09922420364855772
16.686836,4.300530401101098,0.09920160514450631
16.689231999999997,4.30150878848912,0.09912229930515241
16.691615999999996,4.3066311469968355,0.0989627423615593
16.693996,4.314035145504688,0.09874778141060521
16.696399999999997,4.319856352146704,0.09853564933349843
16.698788,4.3192519476688895,0.09845720119870749
16.701172,4.3197184783777125,0.09835648001657242
16.703575999999998,4.317391512407202,0.09828831870353175
16.705964,4.319208517556385,0.09814196626603203
16.708343999999997,4.31995458751893,0.09801833757213847
16.710744,4.320188800802276,0.09787245812133605
16.713127999999998,4.317909056660008,0.09773729168052603
16.715511999999997,4.317631413264157,0.09757082316044452
16.717908,4.311347467629054,0.09750051920508021
16.720295999999998,4.303573277926733,0.09748486104647149
16.722676,4.303435404157742,0.09730764707814057
16.725071999999997,4.301155660015474,0.09717329934976708
16.72746,4.2987361462463465,0.09705031957125264
16.729839999999996,4.298458502850496,0.09688491805858898
16.732239999999997,4.302045291320618,0.09666650502079711
16.734623999999997,4.308006267589494,0.09644781276799749
16.737007999999996,4.31340816535093,0.09627265804868435
16.739407999999997,4.314945631246392,0.09615027092683986
16.741796,4.3106165645294645,0.09611365674952435
16.744175999999996,4.30442516669298,0.09609771440459275
16.746572,4.301726113670131,0.09599427523700607
16.748959999999997,4.301308700647421,0.09583704137673348
16.75134,4.307037359490819,0.0955740785866007
16.75374,4.313836953520855,0.09529439245652709
16.756124,4.321987021991252,0.09497379186085456
