Time,Force,Position
16.032504,0.17727744098674128,0.0
16.034907999999998,0.18659942167565063,0.0
16.037295999999998,0.19885466867075516,0.0
16.039676,0.20896804529258262,0.0
16.04208,0.21558907710077407,0.0
16.044468,0.21833535195186587,0.0
16.046844,0.2161462597503457,0.0
16.049248,0.20812753167355214,0.0
16.051636,0.1973153069174236,0.0
16.054016,0.1834300462282397,0.0
16.05642,0.16875338960613767,0.0
16.058808,0.15486812891695378,0.0
16.061187999999998,0.13912053710821323,0.0
16.063588,0.12151061417991606,0.0
16.065972,0.10683395755781404,0.0
16.068352,0.09429917130898909,0.0
16.070756,0.08176438506016413,0.0
16.07314,0.07137146918461625,0.0
16.07552,0.06327051840033178,0.0
16.077916,0.052877602524783886,0.0
16.0803,0.0438454861807211,0.0
16.082684,0.03452350549181173,0.0
16.085079999999998,0.022268258496707195,0.0
16.087464,0.012154881874879724,0.0
16.089848,0.005533850066688259,0.0
16.092244,0.001985854191552178,0.0
16.094628,0.0016609889674578486,0.0
16.097012,0.004744349991639389,0.0
16.099408,0.004744349991639389,0.0
16.101796,0.004754675082765549,0.0
16.104192,0.005975704987390449,0.0
16.106588,0.0071967348920153485,0.0
16.108971999999998,0.007196734892015348,0.0
16.111356,0.0071967348920153485,0.0
16.113751999999998,0.0071967348920153485,0.0
16.116139999999998,0.0071967348920153485,0.0
16.11852,0.0071967348920153485,0.0
16.120916,0.0071967348920153485,0.0
16.123304,0.006115474614250658,0.0
16.125684,0.006115474614250658,0.0
16.12808,0.005825610269404079,0.0
16.130464,0.005825610269404079,0.0
16.13286,0.005825610269404079,0.0
16.135256,0.007278957599506249,0.0
16.137643999999998,0.009523700862526527,0.0
16.140024,0.014050084125684077,0.0
16.142419999999998,0.01842637267085526,0.0
16.144808,0.018146833417134838,0.0
16.147192,0.02295275593401281,0.0
16.149592,0.026817187799986302,0.0
16.15198,0.02732904447918399,0.0
16.15436,0.02863229709129979,0.0
16.156755999999998,0.033810306660515245,0.0
16.159143999999998,0.04005925141636922,0.0
16.161524,0.044585634679526774,0.0
16.16392,0.04617875163648916,0.0
16.166308,0.04617875163648916,0.0
16.168703999999998,0.046840703033673214,0.0
16.171096,0.046840703033673214,0.0
16.173484,0.046840703033673214,0.0
16.175864,0.046840703033673214,0.0
16.178268,0.04871335924435602,0.0
16.180652,0.04871335924435601,0.0
16.183032,0.04726001191425385,0.0
16.185436,0.04501526865123357,0.0
16.18782,0.04048888538807601,0.0
16.1902,0.03582273249805825,0.0
16.192595999999998,0.033018910727597134,0.0
16.194983999999998,0.028212988210719162,0.0
16.197364,0.024338231253619516,0.0
16.199768,0.022605344669796926,0.0
16.202156,0.020081062153056224,0.0
16.204536,0.01490305258384077,0.0
16.20694,0.00865410782798679,0.0
16.209324,0.004127724564829239,0.0
16.211704,0.002534607607866859,0.0
16.2141,0.0025346076078668596,0.0
16.216488,0.0018726562106828005,0.0
16.218864,0.0026743772347270697,0.0
16.22126,0.0026743772347270697,0.0
16.223648,0.00533842937832798,0.0
16.226028,0.003465773167645179,0.0
16.228424,0.003465773167645179,0.0
16.230808,0.00346577316764518,0.0
16.233188,0.00346577316764518,0.0
16.235584,0.00346577316764518,0.0
16.237972,0.00346577316764518,0.0
16.240351999999998,0.00346577316764518,0.0
16.242748,0.00346577316764518,0.0
16.245136,0.00346577316764518,0.0
16.247516,0.00346577316764518,0.0
16.249928,0.00346577316764518,0.0
16.252316,0.00346577316764518,0.0
16.254696,0.00346577316764518,0.0
16.257092,0.00346577316764518,0.0
16.25948,0.00346577316764518,0.0
16.26186,0.00346577316764518,0.0
16.264256,0.00346577316764518,0.0
16.266644,0.0026640521436009103,0.0
16.269023999999998,0.004672686265405434,0.0
16.27144,0.007135630147038339,0.0
16.273827999999998,0.01761540624759556,0.0
16.276224,0.03316842316975578,0.0
16.27862,0.05300328498060087,0.0
16.281008,0.0794016316802681,0.0
16.283388,0.11129252808211898,0.0
16.285784,0.14881574381301366,0.0
16.288172,0.18968963887281493,0.009919113580170011
16.290548,0.23964097624705288,0.019085217817368785
16.292944,0.297598820749089,0.027880597473333227
16.295332,0.3607696756995883,0.03666573079845223
16.297712,0.4320868074047459,0.0451511780473792
16.300112,0.5083374103046463,0.053725251972437875
16.3025,0.592594520332345,0.06210057349888313
16.304896,0.682204410435367,0.07046097677384383
16.307292,0.7735821880014594,0.07901916935959753
16.30968,0.8719427593369544,0.08734783697489909
16.31206,0.9747721670162379,0.0955777787359933
16.314464,1.0803478495466132,0.10379153477125626
16.316848,1.1881514168734948,0.11183676026996242
16.319228,1.2941398749090631,0.11988932788864574
16.321632,1.3974292799217825,0.12782796600161533
16.32402,1.5016517463521495,0.1354375711180342
16.3264,1.6051772605060848,0.14291229511479556
16.328803999999998,1.7055844127565907,0.15028132963610716
16.331191999999998,1.800219476051193,0.15769365444285807
16.333572,1.8909447815094473,0.16505456721903686
16.335968,1.9820440698779085,0.1623563001750706
16.338356,2.0622035848123765,0.1604800731806868
16.340736,2.134356592619046,0.15897457076753735
16.343132,2.2014363596041133,0.15745837345185137
16.34552,2.2594386842747434,0.1562769350577336
16.3479,2.315720343310546,0.1548416760114908
16.350296,2.362133164098994,0.15367273558899958
16.352684,2.4019824999986197,0.15259525666273357
16.355064,2.4415069706741517,0.15131298057881937
16.357468,2.470416533139784,0.15049579335836932
16.359852,2.4965798207543255,0.14972489244526196
16.362236,2.518506589450555,0.14909345042370975
16.364632,2.534986134414975,0.1487126058456787
16.367016,2.5480205563940017,0.148448201452353
16.3694,2.5614742872536103,0.14813539911198978
16.3718,2.5687819462471073,0.14817346244731333
16.374184,2.572364943001491,0.14836828765870066
16.376564,2.5674276800910096,0.14893864475457594
16.378968,2.562769956434249,0.14946571156501187
16.381352,2.5591831679641266,0.14992001661933305
16.383732,2.5508007820682526,0.1505778660657405
16.38614,2.542138856918658,0.15129699960727425
16.388524,2.5344080973288414,0.15197344047450473
16.390904,2.527328964045083,0.1526516393618763
16.393308,2.5229035578137995,0.15323459632335482
16.395692,2.51512557639574,0.15400528006296815
16.398072,2.5101410916570157,0.15466756491703476
16.400476,2.5093005780379856,0.15511265317248843
16.402864,2.5071568118068392,0.1555430897565697
16.40524,2.509855864829688,0.1556570621360961
16.40764,2.5108323563598396,0.15582347406248717
16.410028,2.516372127890267,0.15571514394544012
16.412408,2.5252644746074693,0.15541408484802222
16.414811999999998,2.536158922071089,0.15500951733765347
16.4172,2.5438405639747925,0.15478759318182894
16.41958,2.5495201051320797,0.1546553862636546
16.421976,2.5554791855430876,0.15448053796021238
16.424364,2.5697262081934826,0.1538705007025226
16.426744,2.5826227564035187,0.15335537874468236
16.42914,2.589652772001165,0.15311275811475838
16.431528,2.5948204564792543,0.15294041521806803
16.433908,2.6050632776368152,0.1525040016342953
16.436312,2.611301897301544,0.15226569612839824
16.438696,2.6156781858467144,0.15210735046760732
16.44108,2.619402848085828,0.151948397255468
16.443483999999998,2.625129611071358,0.15169083769856917
16.445871999999998,2.628994042937331,0.15151187417651546
16.448252,2.6269919421909145,0.15161229545416166
16.450648,2.6269919421909145,0.15161229545416163
16.453036,2.625921007004276,0.15167158322007346
16.455416,2.6239189062578596,0.15176934012916274
16.457812,2.6151191073392743,0.15217820881874838
16.4602,2.6031065028607734,0.15276202189229587
16.462584,2.591233668009132,0.15332556107411163
16.46498,2.578289897970852,0.15395738712514317
16.467368,2.56776753755957,0.15443133063797929
16.469748,2.556453781215369,0.1549223807757737
16.472144,2.5429981544978926,0.15551332849783228
16.474532,2.532103707034273,0.1559223862894443
16.476928,2.526284396250127,0.15608042644262518
16.479324,2.5274025532650084,0.15590882857152624
16.481708,2.524656278413916,0.15590808073772822
16.484092,2.530058176175352,0.15551024289288795
16.486496,2.536531009123426,0.15505162841618234
16.488884,2.5397910365115846,0.15476489059801832
16.491264,2.536393135354435,0.15476061998823037
16.49366,2.5357887308766203,0.15464276691904127
16.496048,2.539979923824557,0.1543125222153405
16.498428,2.541609937518637,0.15416778547580764
16.500828,2.543891577518774,0.1540290907125397
16.503216,2.545102282332272,0.1539475367860005
16.505596,2.5549730164374966,0.15348289522421218
16.508,2.5667060816622778,0.15293967194418936
16.510388,2.579370312446837,0.15236213305149926
16.512764,2.592593621738837,0.15168971720694302
16.515168,2.6066083269637548,0.1510096076171997
16.517556,2.6229972199874267,0.15028665141839795
16.519935999999998,2.635102372264545,0.14979061899618898
16.52234,2.6466484460342223,0.14938756153093333
16.524728,2.6552612534977045,0.14912203686952774
16.527108,2.658938693908575,0.1490877229142434
16.529512,2.664478465439001,0.14898098623981681
16.5319,2.6618700643569,0.14926552233787238
16.53428,2.663405634394493,0.14934535119714423
16.536684,2.6652207436858064,0.14938389563650917
16.539072,2.6749044863359273,0.149071974846002
16.541452,2.6819345019335734,0.14884957997877427
16.543855999999998,2.6872419560385232,0.14868074516017754
16.54624,2.6923170927179956,0.14844202836362164
16.548624,2.6986029342109665,0.14813228655735683
16.55102,2.710895077943188,0.14756109668380496
16.553408,2.7173206890630195,0.14724430949674627
16.555788,2.72495700499635,0.14686142015892578
16.558184,2.7310105290638433,0.14650526792231044
16.560572,2.735713578690978,0.14623605748823795
16.562956,2.742139189810809,0.14592893080017633
16.565352,2.745911073878165,0.14569854961215206
16.567736,2.753315072386018,0.14524989584253514
16.57012,2.761557688655032,0.14469084726501938
16.572516,2.770871240110684,0.14407839467597544
16.574904,2.779113856379698,0.14350792461618514
16.57728,2.787496242275572,0.14292450575216725
16.579684,2.798020498544723,0.1422209033961422
16.582072,2.804400783694181,0.1417220082789008
16.584452,2.81571643589625,0.14102946738932634
16.586848,2.8238192825384036,0.14049934116825583
16.589236,2.8315028202999772,0.14002110807689294
16.591616,2.8373240269419937,0.13960286221873447
16.594012,2.847661291756042,0.13905743490829955
16.5964,2.8552050598907543,0.13860840927331733
16.598779999999998,2.856882295413077,0.13838232517045915
16.601176,2.8576283653756214,0.13818389196431782
16.603564,2.8566518738454687,0.1380280890395879
16.605944,2.858049570114071,0.13784042562290347
16.608348,2.8634514678755068,0.13749701223830124
16.610732,2.864197537838051,0.13730205864507763
16.613115999999998,2.8688080396665683,0.13697452935077759
16.615512,2.8736508589205636,0.1367125135497813
16.6179,2.879657161159814,0.13649202922610387
16.62028,2.890598830451677,0.13611100239314344
16.622676,2.9055447012363733,0.13558759213439278
16.625064,2.9182089320209323,0.1351699451088096
16.627448,2.9339461987385467,0.13464172469386
16.629848,2.9455394943364666,0.13426099811476716
16.632236,2.9509867180682763,0.13411567241429276
16.634616,2.9567134810538067,0.1339344929197005
16.637012,2.9636509488528353,0.13368771345708574
16.6394,2.97817751075695,0.13321645360602793
16.64178,2.9860461441157575,0.1329523042513106
16.644184,2.9945664037806226,0.13269540783778164
16.646572,3.007742491244379,0.13230756320631804
16.648948,3.0252948672533075,0.13182261053299693
16.651352,3.041356999195016,0.13143223924032119
16.65374,3.0566277352038074,0.13105736503888168
16.656119999999998,3.0716189319588776,0.13072676829956256
16.658516,3.0921971220726174,0.13024831088376254
16.660904,3.106769009947107,0.12997264273335551
16.663284,3.1234827681948736,0.12961947873865284
16.665688,3.1387535042036645,0.12927530815015437
16.668072,3.147738398719484,0.12916411097383823
16.670452,3.1567232932353035,0.12905778502381082
16.672856,3.167198431818342,0.1288627783016973
16.675244,3.176462865587882,0.12872733827336805
16.677623999999998,3.1918733712235325,0.12838668718920107
16.680028,3.2140815750313525,0.1278526726936121
16.682412,3.2360102395854513,0.12735102126926393
16.684791999999998,3.261943105632384,0.12674172559191044
16.687196,3.281729899813206,0.12634595305475774
16.689584,3.3051015866062814,0.12587195275492535
16.691964,3.3306151437726337,0.1253287603669167
16.694368,3.3530556650059307,0.12488789203927533
16.696752,3.3720510632538345,0.12450446544648504
16.699132,3.3951904326214324,0.12399391192504866
16.701539999999998,3.4183298019890302,0.1234890239366101
16.703924,3.438675674677293,0.12304729232205168
16.706308,3.453434554006886,0.12273420338388914
16.708712,3.4703353037097555,0.12233959853807097
16.711095999999998,3.4845823263601505,0.12199943360321493
16.71348,3.4984100401299654,0.12170853592861657
16.715875999999998,3.5114463579668618,0.12141630672446654
16.71826,3.5223408054304812,0.12119875506225754
16.72064,3.5358889799465754,0.12094082203521266
16.723036,3.551159715955366,0.12066307697547708
16.725424,3.5675013871507955,0.12036174829337543
16.727804,3.58118933129375,0.12011118611374821
16.7302,3.5979503113697593,0.11978136639260746
16.732588,3.6077738236467405,0.11962359608447264
16.734968,3.616945709617663,0.11945426825120431
16.737372,3.627328300402085,0.11924164999644059
16.73976,3.636779725626728,0.11905084168476739
16.74214,3.6458590637990347,0.1188215813085505
16.744536,3.656009337157979,0.11855998637486519
16.746924,3.661084473837451,0.11842960171398056
16.749304,3.6664391497706434,0.11827340096601321
16.751708,3.6779398975699475,0.11796333879005813
16.754096,3.692234142048586,0.1176002042003062
16.756476,3.708530487273641,0.11718964485826802
16.758879999999998,3.7228247317522793,0.11682467339134524
16.761268,3.732602918058886,0.11652865150139158
16.763648,3.745454140298548,0.1161505519134222
16.766044,3.7575139666052926,0.11577422255922563
16.768432,3.765709361046063,0.1154858773064706
16.770816,3.7716703373149394,0.11519894181940471
16.773212,3.772556176904344,0.11503961065054744
16.775596,3.774512951680387,0.11485171035196848
16.77798,3.7727450642173164,0.11473112220060051
16.780376,3.776052313433719,0.1144875981049359
16.78276,3.779499332276981,0.11422935481647377
16.78514,3.7810840200006863,0.11400596177426889
16.78754,3.778664506231558,0.1138744033302294
16.789924,3.77624499246243,0.11374225242539655
16.79232,3.77475664425308,0.11359383546988162
16.794724,3.776760640857366,0.11332868641616574
16.797107999999998,3.7746206663419586,0.11316898027964939
16.799492,3.762749727348186,0.11321426495033864
16.801887999999998,3.7514378668618558,0.11320315360330781
16.804275999999998,3.7382636752559684,0.1132234142052578
16.806656,3.730024850702693,0.11313600585233935
16.809052,3.7284439546947263,0.11292358592697854
16.81144,3.7270028283136196,0.11269897750685841
16.81382,3.729705673052207,0.11237459031200232
16.816219999999998,3.733339683350572,0.11203379529087307
16.818608,3.733760888089022,0.11177719368841264
16.820988,3.7372551287605273,0.11144641378446772
16.823392,3.7386074990587557,0.11117522920613743
16.825779999999998,3.737817998983707,0.1109592132491134
16.82816,3.735026398162241,0.11078850305823482
16.830555999999998,3.7328864236468333,0.1106283647585287
16.832943999999998,3.7298152835716474,0.11048344482051793
16.835324,3.731679510549073,0.11023353666986033
16.83772,3.735917925325253,0.10997757021267203
16.840108,3.7401563401014335,0.1097237000196967
16.842488,3.7441152156238933,0.10949841445904951
16.844884,3.7540803933856033,0.10914435559927946
16.847272,3.770563730065762,0.1086795727387418
16.849652,3.784485887492063,0.10831300759807752
16.852052,3.7999908367841995,0.10794236766923195
16.85444,3.8114915845835027,0.10766184360324357
16.85682,3.817125799770416,0.10749660107903813
16.859216,3.820478374957192,0.10740021974525299
16.861604,3.8175451086509966,0.10745751041715272
16.864,3.814611842344801,0.1075148010890525
16.866395999999998,3.8143323030910805,0.10754100360842477
16.868783999999998,3.8160548645837773,0.10752467930495738
16.871164,3.8159150949569174,0.10753767631402222
16.87356,3.8237837283157248,0.107382502532311
16.875948,3.833654462420949,0.1071881701436715
16.878332,3.840871469473698,0.10702167363270365
16.880727999999998,3.8516733691387004,0.10681209156773722
16.883116,3.8614043336170645,0.10663255716011068
16.885496,3.867550405483175,0.10649663215035826
16.8879,3.874767412535925,0.1063366258218525
16.890287999999998,3.8830553547753124,0.10615333601351024
16.892668,3.8882702610816446,0.10603746905335668
16.895063999999998,3.89162283626842,0.10594884522498456
16.897451999999998,3.897908677761391,0.10580870175749185
16.899832,3.9038224322020243,0.10563377445792248
16.902228,3.909875956269518,0.10544561611226645
16.904616,3.9220755522031223,0.10513052460068471
16.906996,3.9325525866440305,0.10482465454679477
16.909392,3.9502466281376876,0.10436532405617878
16.91178,3.9703620792583423,0.10383682002782171
16.91416,3.9918280048193564,0.10326121709385505
16.916564,4.008358563327758,0.10277821808301592
16.918952,4.027030992209437,0.10224290550856134
16.921336,4.035832686985892,0.10188615948333697
16.92374,4.043423676948848,0.10157019274592925
16.926128,4.0591628395243315,0.10109969776599796
16.928508,4.072527814301061,0.10063624760061853
16.930903999999998,4.084449766838814,0.1001628016051395
16.933291999999998,4.100515690496262,0.09960797341017255
16.935676,4.110575311914459,0.09915752022404065
16.938072,4.1164909622129615,0.09879048335041499
16.940456,4.1217549862054055,0.09841114076303324
16.94284,4.125575987958875,0.09801859049137532
16.945235999999998,4.125951866726951,0.09764984481852583
16.947624,4.123906335868029,0.09735093594934369
16.950004,4.124654301688443,0.09701769562527837
16.952408,4.121398066016022,0.09675592815154473
16.954795999999998,4.126010463702409,0.09636998591774017
16.957176,4.1248960984032665,0.09606502226415561
16.95958,4.11828728754407,0.09588411880084088
16.961968,4.111678476684874,0.09570318777864574
16.964348,4.106140601012317,0.09549894060903531
16.966752,4.102604826086176,0.09526212096897925
16.96914,4.104935583772425,0.09493522901675976
16.971519999999998,4.103541679219562,0.09465049373970601
16.973916,4.097584494666424,0.09448051769839727
16.976304,4.089997296419207,0.09437820171785594
16.978684,4.084784285970744,0.09427848947985037
16.98108,4.076078930708644,0.09426678607340316
16.983472,4.071238007312519,0.0942023507770751
16.985851999999998,4.070541055036087,0.0940611552532239
16.988252,4.069424793879074,0.09395409110298819
16.990636,4.072545051640373,0.09382952823828461
16.993016,4.078970662760204,0.0936978977759889
16.995411999999998,4.0903316409326465,0.09349175716567298
16.997799999999998,4.100621683918452,0.09330986869020075
17.00018,4.114496619516509,0.09310047474737829
17.002575999999998,4.123016879181374,0.09300070566215632
17.004964,4.13591342739141,0.09287534086092658
17.007344,4.156818378587114,0.09262910067190087
17.009743999999998,4.179306121648654,0.0923910579383429
17.012132,4.204307822135808,0.09214751390091087
17.014528,4.225677408182467,0.0919989293286473
17.016924,4.247838390162043,0.0918548455500487
17.019312,4.2745154303136506,0.09167354100355143
17.021691999999998,4.299330139345702,0.09150958171820332
17.024088,4.325495322818113,0.09130176500714449
17.026476,4.350729340730744,0.09110634574433157
17.028856,4.378244998643513,0.0908588498893061
17.031252,4.408554153235618,0.09058682290486546
17.03364,4.431506531148111,0.09044077413567532
17.03602,4.459394276113217,0.09022900337300571
17.038415999999998,4.488352956264963,0.09000548030517269
17.040803999999998,4.51666001011065,0.08977293757137235
17.043184,4.541102632090364,0.08958893866911262
17.04558,4.5636829229505205,0.08942251972862683
17.047968,4.582398781944704,0.0893024169983144
17.050364,4.603396280939025,0.08913457783811343
17.05276,4.619598182507593,0.08902060815537918
17.055148,4.627931450717354,0.08900731913647211
17.057532,4.633331452620922,0.08902994750360498
17.059928,4.638359367472151,0.08902070756054384
17.062312,4.643015195271042,0.08897847487206115
17.064695999999998,4.647950562323654,0.08891692369948048
17.067092,4.654376173443485,0.08880865226899018
17.06948,4.664014590123233,0.08864695140348566
