Time,Force,Position
21.707332000000008,0.029665877774003323,0.0
21.709776000000005,0.02738423777386605,0.0
21.712212000000008,0.028315403333644372,0.0
21.71466000000001,0.02578990629474624,0.0
21.7171,0.020191373322792718,0.0
21.719548000000003,0.01566377553747773,0.0
21.721992,0.017293789231557104,0.0
21.724428000000003,0.023998939605108707,0.0
21.726888,0.03430052220419697,0.0
21.729340000000008,0.04539350073620335,0.0
21.73178800000001,0.05448437852179288,0.0
21.734244000000004,0.06436665224030053,0.0
21.73668400000001,0.06944178891977276,0.0
21.739128000000008,0.07811335782478165,0.0
21.74156400000001,0.08276918562367325,0.0
21.744,0.09250015010203709,0.0
21.746440000000007,0.09701620827406848,0.0
21.74887600000001,0.10260320163273838,0.0
21.751316000000003,0.11313710165730392,0.0
21.75375600000001,0.1239505409355899,0.0
21.75618800000001,0.13330941836161625,0.0
21.75864,0.14294783504136305,0.0
21.761080000000007,0.1452294750415003,0.0
21.76352,0.15390104394650922,0.0
21.765972000000005,0.1624328432246579,0.0
21.76841200000001,0.16789160656975116,0.0
21.770852000000005,0.16626159287567183,0.0
21.77329200000001,0.1595564425021202,0.0
21.77572400000001,0.14935894731493263,0.0
21.778164000000004,0.1383700561948269,0.0
21.780612000000005,0.1323165321273332,0.0
21.783056,0.12454044656714305,0.0
21.78549600000001,0.12398136805970222,0.0
21.78793200000001,0.11848692249964937,0.0
21.790388000000007,0.11341178582017714,0.0
21.79283600000001,0.10301765542247181,0.0
21.795276,0.09701135318322125,0.0
21.797724,0.0895504890917111,0.0
21.80018000000001,0.07926044610590642,0.0
21.802632000000003,0.06844700682762044,0.0
21.80506800000001,0.058564733109112796,0.0
21.807508,0.047611524203966624,0.0
21.80995200000001,0.044258949017190824,0.0
21.812404,0.03825264677794027,0.0
21.81484800000001,0.035738689352325735,0.0
21.817284,0.0412331349123786,0.0
21.819720000000004,0.05301342196540243,0.0
21.82216000000001,0.06772697532462144,0.0
21.82460800000001,0.08029865831056339,0.0
21.827048000000005,0.09100801017694869,0.0
21.82949600000001,0.09585082943094365,0.0
21.831928000000005,0.09962271349830008,0.0
21.83438000000001,0.09925062644596261,0.0
21.836820000000003,0.09887853939362512,0.0
21.83926000000001,0.10022901383398407,0.0
21.841700000000003,0.10489638124615926,0.0
21.84415200000001,0.1094596612464338,0.0
21.846596000000005,0.11561727272582817,0.0
21.84904800000001,0.11845799123340627,0.0
21.851484,0.12061140121996693,0.0
21.85392800000001,0.12234550232594696,0.0
21.85637600000001,0.12314843787214866,0.0
21.85882000000001,0.12076271046011075,0.0
21.86125600000001,0.11809744379435239,0.0
21.86368800000001,0.11207960194181824,0.0
21.86614400000001,0.10112639303667206,0.0
21.868592000000007,0.08710014819847053,0.0
21.871032,0.07214273780049066,0.0
21.87347600000001,0.05946696740264807,0.0
21.87592400000001,0.0486535281243621,0.0
21.878364000000005,0.04077335515227131,0.0
21.88081200000001,0.03489528292659738,0.0
21.88324800000001,0.03008814588756197,0.0
21.885688,0.02728310959494341,0.0
21.888132,0.023546907742546534,0.0
21.89057600000001,0.018879540330371338,0.0
21.893016000000003,0.013932633664475723,0.0
21.89545200000001,0.007775022185081363,0.0
21.89790400000001,0.004690446638742386,0.0
21.90035200000001,0.00253703665218173,0.0
21.90279600000001,0.0008029355462017047,0.0
21.90524400000001,0.0,0.0
21.90770000000001,0.0,0.0
21.91015200000001,0.0,0.0
21.912592000000004,0.0,0.0
21.91503200000001,0.0,0.0
21.917472000000004,0.0,0.0
21.91992400000001,0.0,0.0
21.92236800000001,0.0,0.0
21.924816000000007,0.0,0.0
21.92724800000001,0.0,0.0
21.929692000000003,0.0,0.0
21.932140000000004,0.0,0.0
21.934584,0.0,0.0
21.937032,0.0007557137179585542,0.0
21.939464,0.0007557137179585541,0.0
21.94191600000001,0.0007557137179585541,0.0
21.944364000000007,0.0007557137179585542,0.0
21.946804,0.0007557137179585542,0.0
21.94924800000001,0.0007557137179585542,0.0
21.95170800000001,0.0007557137179585542,0.0
21.954152000000008,0.0007557137179585542,0.0
21.956604,0.0007557137179585542,0.0
21.95903600000001,0.0015586492641602588,0.0
21.96148000000001,0.0015586492641602588,0.0
21.96392800000001,0.002221815183501753,0.0
21.966372000000007,0.003955916289481779,0.0
21.968812,0.003955916289481778,0.0
21.971252000000007,0.003955916289481778,0.0
21.973696000000004,0.003955916289481779,0.0
21.97614800000001,0.003955916289481779,0.0
21.978588,0.003955916289481779,0.0
21.981036000000003,0.003955916289481779,0.0
21.98348,0.003955916289481779,0.0
21.98593600000001,0.0032002025715232242,0.0
21.98838400000001,0.0032002025715232242,0.0
21.99082,0.005213842931223671,0.0
21.99326400000001,0.005213842931223671,0.0
21.995728,0.005213842931223671,0.0
21.99817200000001,0.005213842931223671,0.0
22.00062000000001,0.005213842931223671,0.0
22.003068,0.005213842931223671,0.0
22.00551200000001,0.005213842931223671,0.0
22.007952000000003,0.004410907385021966,0.0
22.01039200000001,0.004410907385021966,0.0
22.01284000000001,0.0037477414656804714,0.0
22.015276,0.002013640359700446,0.0
22.01772000000001,0.002013640359700446,0.0
22.020160000000004,0.006588459973258584,0.0
22.022604,0.00916117884039987,0.0
22.025052,0.009592027334264095,0.0
22.02750800000001,0.009592027334264095,0.0
22.029964000000007,0.01202497657454517,0.0
22.032404,0.01739119212102142,0.0
22.034844000000007,0.021686472480859136,0.0
22.037288000000004,0.021686472480859136,0.0
22.03974000000001,0.01967283212115869,0.0
22.04218400000001,0.020103680615022917,0.0
22.044632000000007,0.0233280257882221,0.0
22.04706800000001,0.02855447170783814,0.0
22.049512000000007,0.03336160874687355,0.0
22.051952,0.039239680972547486,0.0
22.05439600000001,0.04805101950441659,0.0
22.05684400000001,0.059795624342480876,0.0
22.05928,0.07032952436704641,0.0
22.061732000000006,0.07564851808527952,0.0
22.064172,0.07896541105709576,0.0
22.06661600000001,0.07896541105709574,0.0
22.069056000000003,0.07439059144353762,0.0
22.071516000000003,0.07181787257639632,0.0
22.07396,0.0713870240825321,0.0
22.076408,0.0713870240825321,0.0
22.078844000000004,0.06895407484225102,0.0
22.08128400000001,0.06358785929577479,0.0
22.083736,0.059292578935937076,0.0
22.08618,0.059292578935937076,0.0
22.08862000000001,0.059292578935937076,0.0
22.091064000000003,0.05886173044207285,0.0
22.093508,0.055637385268873664,0.0
22.095956,0.050410939349257625,0.0
22.098396000000008,0.04560380231022222,0.0
22.100848,0.03972573008454828,0.0
22.103288000000006,0.03091439155267917,0.0
22.105744,0.019169786714614886,0.0
22.10818400000001,0.008635886690049345,0.0
22.110624,0.0033168929718162465,0.0
22.11306400000001,0.0,0.0
22.11552800000001,0.0,0.0
22.11797200000001,0.0,0.0
22.12042000000001,0.0,0.0
22.122864000000007,0.0,0.0
22.125308000000004,0.0,0.0
22.12774800000001,0.0,0.0
22.130192000000008,0.0,0.0
22.132636000000005,0.0,0.0
22.135068000000004,0.0,0.0
22.137524,0.0,0.0
22.13996400000001,0.0,0.0
22.142408000000003,0.0,0.0
22.144856000000004,0.0,0.0
22.147312,0.0,0.0
22.14976800000001,0.005638171368719702,0.0
22.15220400000001,0.019422619492097767,0.0
22.154644000000005,0.03832753026532197,0.0
22.157088,0.05820893256869841,0.0
22.159532,0.08153356199959846,0.0
22.16197600000001,0.11132723266283438,0.0
22.164416000000003,0.15615742605151436,0.010456434532749284
22.166848,0.21234670175476833,0.019720305275577485
22.169292,0.2756585408542853,0.028502317874513797
22.17174,0.3481875918950992,0.03686755928157413
22.17418400000001,0.4246717267426343,0.0455923033886602
22.176636,0.5104656213300834,0.054106981195602505
22.17907600000001,0.6046853319259113,0.06235667046790545
22.181532000000004,0.6992299077458335,0.07082405264917423
22.183980000000005,0.7980563284544407,0.07935937352368876
22.186424,0.9020485377832679,0.08804187264877704
22.188868,1.0149311979714284,0.0966458623675073
22.191332000000003,1.1358675871156303,0.10498867314413088
22.193780000000004,1.2636016744320009,0.11298311607308335
22.19622000000001,1.3952474154425878,0.1206870658253417
22.198656,1.521022667658978,0.1283226302802457
22.20110000000001,1.6406065220388835,0.13597337504555843
22.203552,1.7620999293665887,0.14340478038333904
22.205996,1.885410341843477,0.1507379911319696
22.20843600000001,2.0089096416333376,0.15786559270228917
22.210880000000003,2.1247764172056067,0.16496081316737093
22.213324,2.220159446320622,0.16176750522300376
22.215764000000007,2.2993877956953113,0.15995414309177972
22.218208000000004,2.372284977606656,0.1586082889874123
22.220668000000003,2.4319607460838704,0.15786271951452818
22.223112,2.4902426100082207,0.1565825816054326
22.22556400000001,2.538143779006019,0.15556822195926936
22.228004,2.5754772616221615,0.15493299597984647
22.230452,2.6149998364398237,0.15401275201382028
22.232892000000007,2.6488900919284424,0.15312316549040617
22.23535600000001,2.6786854939834797,0.1520291173136847
22.237800000000007,2.697867883686487,0.15106580208775858
22.24024800000001,2.7109986451798695,0.15027012952637758
22.2427,2.717983334807141,0.1498282619038494
22.24514400000001,2.7207768314864764,0.14971801125386427
22.247596,2.7238026455912885,0.14967614590123346
22.25004,2.7232907889120908,0.1496502306173319
22.252488,2.7088114488362183,0.1501803177042367
22.25492,2.6912590728272905,0.15085351330386607
22.25736400000001,2.6677929423777287,0.15188575701942408
22.25981200000001,2.648423561219618,0.15280037313004444
22.262252000000004,2.636363734912874,0.15346553237359656
22.26470400000001,2.6305425282708574,0.15392904520372597
22.267136000000008,2.623370847188482,0.15449416491162185
22.269588,2.620715224278138,0.15490096307392492
22.27202800000001,2.615358652487076,0.1555046998919253
22.274476000000007,2.610421389576595,0.1560495724717867
22.276920000000004,2.6102797240918654,0.156381814721386
22.279384000000007,2.607996188233859,0.1568277530359399
22.281828000000004,2.6119984938688234,0.15694322346737602
22.28427600000001,2.617071734690426,0.15700381507802455
22.286724000000007,2.6242868458853064,0.156952351024873
22.289168000000004,2.6260075115201333,0.15720319545016884
22.291624,2.6275884075281004,0.15747331045781507
22.29406800000001,2.6290295339092076,0.1577641666736269
22.296508000000003,2.629539494730536,0.15809288043029185
22.298952,2.632842952231199,0.15831132059422157
22.301392000000007,2.6418731727173927,0.1582722410284743
22.30384400000001,2.651834558763364,0.1581918458907479
22.30628800000001,2.6667313118619482,0.1578666888156546
22.308732000000006,2.675901301975003,0.15780365555841283
22.311172,2.6802756946623045,0.1579604070795392
22.31362800000001,2.681204964364213,0.1582343130933412
22.316068,2.68469541331998,0.15831807224393696
22.318516,2.6883256319026074,0.15837950757923283
22.32095600000001,2.6942374904853716,0.15829880294081963
22.323408,2.700940745001054,0.15820041551863942
22.32585200000001,2.700986070971428,0.1584006252339267
22.3283,2.7022421017553007,0.15851679475780986
22.330748,2.6993541614194796,0.15884633555628547
22.33319200000001,2.695395285897019,0.15922769559437364
22.33564000000001,2.693019202240396,0.1595715903053747
22.33808400000001,2.692412901904712,0.1597621241859489
22.340524,2.696230111942442,0.15970186226421895
22.342960000000005,2.7036794364206687,0.15941671018735604
22.345404,2.712199696085534,0.15907438725347767
22.34784400000001,2.719788790190621,0.15877269357289234
22.35028800000001,2.7315218554154015,0.1582750653859192
22.35274000000001,2.7452570213865988,0.15769819933191134
22.355196000000007,2.7552675251186836,0.15726220390564494
22.357652,2.769282230343601,0.15664624249160664
22.36009200000001,2.7865097411284343,0.15585554303551583
22.36254000000001,2.8076016837792412,0.15490181199291939
22.364984000000007,2.828925943855525,0.15403387375555697
22.36743600000001,2.8548134839320847,0.1529536813430221
22.36988000000001,2.8800493977025856,0.15190005079897204
22.37232800000001,2.907566951473224,0.15074999757629184
22.374764,2.9412305771099727,0.14931801818339982
22.37720400000001,2.9742425764406644,0.14789950025220577
22.379644,3.005532014278659,0.14652369053606829
22.38208800000001,3.0301635235713444,0.14535940468294886
22.38453600000001,3.0479973346918627,0.14444409812614273
22.38698000000001,3.0692762687977733,0.14343558201263704
22.389424000000005,3.0830586565972142,0.14279580964434752
22.39186400000001,3.0934884692098787,0.1423366498686308
22.39430800000001,3.105268756262903,0.141798622604529
22.39676,3.1159781081292883,0.14130967119612953
22.39920400000001,3.1244058199955353,0.14094431087775378
22.401652,3.1311109703690874,0.14062677362059925
22.40409200000001,3.1400977607427762,0.1401980193133885
22.406524000000005,3.1482931551835462,0.1397860686743852
22.408968,3.1514134129448452,0.13956580718123773
22.41142400000001,3.151879943653669,0.13941658053838724
22.413864000000004,3.1483894946979025,0.13932455204107558
22.41631600000001,3.1368906427564682,0.1395313931810619
22.41876000000001,3.121899446001398,0.1399122261545285
22.4212,3.1012740340594145,0.14056390720722697
22.42364400000001,3.079158378050212,0.14130297431964692
22.426084000000003,3.056111556481232,0.14206624917445587
22.428532000000004,3.0339959004720294,0.14280531628687582
22.430976,3.0183984033812754,0.14336049402719037
22.433428000000006,3.0116007052091067,0.14360039784297599
22.435868,3.0050825462906587,0.14379958034638654
22.438308000000006,3.0006137099468706,0.1438314510472813
22.440752000000003,2.9974953480434405,0.14378037069541294
22.443216000000007,2.9916760372592934,0.14389283475940065
22.445660000000004,2.9872997487141215,0.14400132208709823
22.44811200000001,2.983482538676392,0.14403787483388225
22.45054800000001,2.9768718319593264,0.1441607936594569
22.45299200000001,2.9710525211751793,0.1442689992104021
22.455448000000004,2.965325758189649,0.1444528405873826
22.45788800000001,2.972123456361818,0.14422816942620226
22.460332000000008,2.9823662775193798,0.1439324251192506
22.462772,2.994331660169638,0.14359657996400113
22.46521600000001,3.008950769872371,0.14318763747191648
22.46766000000001,3.0242215058811617,0.14277354003948992
22.470104000000006,3.0456383137560628,0.1421130830600693
22.472552000000007,3.0645411642053495,0.14149754903198697
22.474996000000004,3.084514949841275,0.14084029615047247
22.47744800000001,3.10434896585034,0.1401993703595073
22.479892000000007,3.126324852232682,0.13948473935987896
22.482340000000008,3.1421546667489135,0.13901501111930376
22.484784000000005,3.15505121495895,0.13864890539461563
22.48723200000001,3.1701821813408806,0.13827366132101881
22.489680000000007,3.183822903655592,0.13799611848908297
22.492128000000008,3.2008162011570778,0.1375718471174368
22.49456400000001,3.218368577166006,0.1370853171721859
22.49701200000001,3.23764351466763,0.1365783953453384
22.499452000000005,3.2634366110877027,0.13590156556914645
22.501896,3.288158772321137,0.13527955320179674
22.504344000000003,3.3118572201961753,0.13460986853972381
22.506788,3.3241021421001538,0.13428093079772985
22.50923200000001,3.3338331065785174,0.13399694500878362
22.511672000000004,3.345705941430158,0.13363899342772348
22.514116,3.3578583155355193,0.13324969861514901
22.516568000000007,3.3707095377751815,0.13277681237685174
22.519024,3.3804877240817888,0.1324117017179877
22.52148000000001,3.3958529037470657,0.13191153132381683
22.523920000000004,3.4082848171061473,0.13149491334816746
22.526364,3.422998370465367,0.13099090833660249
22.52880800000001,3.435570053451309,0.1305729128550838
22.531264000000007,3.4522857075569444,0.1300191243050016
22.533708000000004,3.473005563155414,0.12935374082717538
22.536156000000005,3.4929340228209655,0.128703226513182
22.5386,3.51235062580732,0.12802532069354963
22.541044,3.5277630273008396,0.12746703976775212
22.543484000000007,3.5381002921148874,0.12705786257977855
22.545928000000004,3.544573125062961,0.12675455286508241
22.54836800000001,3.543876172786529,0.12659517955900804
22.550804,3.542108285323459,0.12647223398940324
22.55326000000001,3.5425748160322823,0.12634548747701008
22.55570800000001,3.5484885704729163,0.12610495765446614
22.558152000000007,3.5522604545402725,0.1259354812822482
22.560600000000008,3.5520281371147955,0.12588212412746064
22.563056000000003,3.55659141711507,0.1257110829581063
22.565512,3.5628772586080415,0.12551425202694996
22.567948,3.5677200778620364,0.1253133311246065
22.570396,3.5692575437574985,0.12515371687124666
22.57284,3.5734487367054357,0.12494699015662945
22.57529600000001,3.574986202600898,0.12478787594840282
22.577736,3.5741494806976055,0.1246451267023579
22.580188000000007,3.572661132488256,0.1244943279492331
22.58262000000001,3.566097647599434,0.12448325585508783
22.58506,3.556089039725219,0.12452154707418435
22.587508,3.546080431851004,0.12456029777513741
22.58995200000001,3.539936255842763,0.12450614378269576
22.59240000000001,3.5384479076334125,0.12435346022457457
22.59484400000001,3.5372390986777833,0.1241709541672484
22.597300000000004,3.53747331196113,0.12399027074919605
22.59974000000001,3.5361247333786405,0.12382014004255128
22.60218400000001,3.532401966997396,0.12366741304243856
22.60463200000001,3.5283071135638147,0.12347656515616691
22.60709200000001,3.529566936063426,0.12311384868583704
22.609544,3.531757924122815,0.12272787605685717
22.61198800000001,3.52542865251734,0.1225373573502517
22.614428000000004,3.5181682153520857,0.12236629496415781
22.61686800000001,3.5126303396795278,0.1221695469393373
22.61932400000001,3.5036001191933344,0.12210578567148006
22.621768000000003,3.492055941281526,0.12207323883726316
22.624216000000004,3.4827461815416125,0.12203820390454972
22.62666,3.4766020055333713,0.121981793633476
22.62910400000001,3.4680364198981324,0.12202310349446782
22.63154800000001,3.46161270463617,0.12199614237930267
22.633988,3.4607759827328772,0.12184951694688989
22.63642800000001,3.463663923068699,0.12162573681308018
22.63887600000001,3.4666916330313806,0.12139117626542599
22.64133200000001,3.4722805222479196,0.12105263766683419
22.643772,3.479312433703435,0.12072014662784246
22.64621600000001,3.4884862155322267,0.12032250577300738
22.64866400000001,3.500593263667214,0.11985551737239411
22.65112400000001,3.512281002921621,0.11942830114016584
22.653580000000005,3.5236892029223075,0.11903527833237329
22.65602000000001,3.532675993295997,0.1187417945159503
22.658460000000005,3.5424541796026032,0.11844287250789712
22.660904,3.5587505248276585,0.11801914305138315
22.663356000000007,3.578911301918687,0.11752189396753102
22.66580400000001,3.597861374196217,0.11706762851713268
22.66825200000001,3.6210951872203014,0.11648255374477902
22.670696000000007,3.649124597670138,0.11580161584235503
22.673140000000004,3.675431446627277,0.11514661347740333
22.675588000000005,3.6990845685319416,0.11453163505834817
22.678032,3.726090265623382,0.11381485965105359
22.68047200000001,3.752816423461102,0.1131256120969414
22.68291600000001,3.7763297757389065,0.11253810025469971
22.685360000000003,3.797980796897155,0.1119956308388711
22.687804,3.816419012495487,0.11154529323326245
22.69024800000001,3.8295025521606263,0.11124564070612408
22.69269600000001,3.843005400706347,0.1109096371672587
22.69515600000001,3.8557168533191493,0.11057927855230452
22.697608,3.8672176011184534,0.11029285232310251
22.70004800000001,3.8827225504105902,0.10992163180573501
22.70249600000001,3.8962253989563105,0.10959456392528084
22.704940000000008,3.907865916382474,0.1092979919618543
22.70738800000001,3.9225794697416934,0.10893413837389845
22.70983200000001,3.9334285912349385,0.1086459453335579
22.712280000000007,3.9364090793693762,0.10851460468406927
22.71471600000001,3.9413916682502315,0.10834079096770634
22.717160000000007,3.9462344875042263,0.10818149504094994
22.71961200000001,3.9490752060118046,0.10806584963209818
22.72205600000001,3.952055694146243,0.10793786834019586
22.724496,3.9579694485868764,0.10775589912450176
22.72694,3.9605306278407335,0.10766625740268763
22.72939600000001,3.9635111159751713,0.1075396377165357
22.731836,3.963698107430275,0.10745390691830262
22.73428,3.9641646381390996,0.10734397883093126
22.736728,3.9618376721685884,0.10727532056192111
22.739188,3.963514907690911,0.1071244996293714
