Time,Force,Position
17.239804,0.0629323989948882,0.0
17.242207999999998,0.06630656415353171,0.0
17.244596,0.06753885893889817,0.0
17.246975999999997,0.06877115372426464,0.0
17.249380000000002,0.06986367888277088,0.0
17.251768,0.07002503848149881,0.0
17.254148,0.07002503848149882,0.0
17.256552,0.07002503848149882,0.0
17.258940000000003,0.07002503848149882,0.0
17.261319999999998,0.06744226925577343,0.0
17.26372,0.06565089596296612,0.0
17.266108000000003,0.0630681267372407,0.0
17.268487999999998,0.059693961578597195,0.0
17.270884000000002,0.05324676048689829,0.0
17.273272,0.04679955939519939,0.0
17.275652,0.040352358303500487,0.0
17.278052000000002,0.03511586202530032,0.0
17.280436,0.023873063507849613,0.0
17.28282,0.015563531296594072,0.0
17.285216,0.011397970205032444,0.0
17.287604,0.007092639486610604,0.0
17.289983999999997,0.003718474327967086,0.0
17.292384,0.002486179542600629,0.0
17.294772000000002,0.0012538847572341725,0.0
17.297151999999997,0.00016135959872792577,0.0
17.299548,0.0,0.0
17.301935999999998,0.0,0.0
17.304319999999997,0.0,0.0
17.306716,0.0,0.0
17.309103999999998,0.0,0.0
17.311487999999997,0.001372064412226667,0.0
17.313884,0.002744128824453334,0.0
17.316271999999998,0.005187128423318531,0.0
17.318652,0.005187128423318531,0.0
17.321047999999998,0.006698962462405408,0.0
17.323436,0.011144062807687457,0.0
17.325815999999996,0.017451494272526145,0.0
17.328215999999998,0.026692192043560006,0.0
17.330604,0.0370038250012324,0.0
17.332983999999996,0.049317558705321646,0.0
17.335383999999998,0.06056035722277235,0.0
17.337772,0.07073222055358454,0.0
17.340151999999996,0.08090408388439671,0.0
17.342548,0.09121571684206911,0.0
17.344935999999997,0.10045641461310297,0.0
17.347316,0.10769501163771997,0.0
17.349711999999997,0.11279173828905993,0.0
17.3521,0.11574659456712282,0.0
17.354480000000002,0.11870145084518571,0.0
17.356876,0.12044560230974985,0.0
17.359263999999996,0.12067791973522714,0.0
17.361648000000002,0.11930585532300045,0.0
17.364044,0.11795538088264151,0.0
17.366431999999996,0.11890813641428755,0.0
17.368812,0.1174178923470684,0.0
17.371208000000003,0.11297279200178634,0.0
17.373596,0.10666536053694764,0.0
17.375976,0.09742466276591377,0.0
17.378376000000003,0.0871130298082414,0.0
17.380760000000002,0.07479929610415213,0.0
17.383144,0.06355649758670143,0.0
17.38554,0.05338463425588926,0.0
17.387928000000002,0.043212770925077075,0.0
17.390312,0.03290113796740468,0.0
17.392708,0.023660440196370817,0.0
17.395096000000002,0.016421843171753808,0.0
17.39748,0.01132511652041386,0.0
17.399876,0.010301403162018477,0.0
17.402264000000002,0.01127979055003995,0.0
17.404643999999998,0.015750522751697433,0.0
17.407044,0.020500794207075335,0.0
17.409428,0.027786613059935496,0.0
17.411811999999998,0.03290897156765088,0.0
17.414208000000002,0.041244135635281856,0.0
17.416596,0.05144163082246947,0.0
17.418976,0.059658615235107945,0.0
17.421371999999998,0.06908630446124517,0.0
17.42376,0.0753011881274668,0.0
17.426144,0.08058490623391011,0.0
17.428539999999998,0.0897330562063269,0.0
17.430928,0.0987414365518835,0.0
17.433307999999997,0.10868098245721841,0.0
17.435707999999998,0.11782913242963522,0.0
17.438096,0.12576657758855328,0.0
17.440475999999997,0.12969982125463764,0.0
17.442872,0.13256212973408346,0.0
17.445259999999998,0.13449327265375097,0.0
17.447643999999997,0.13256212973408346,0.0
17.45004,0.1286288860679991,0.0
17.452427999999998,0.1224140024017775,0.0
17.454808,0.11605934910869564,0.0
17.457203999999997,0.1087735302558355,0.0
17.459592,0.10255864658961383,0.0
17.461976,0.09327072699033684,0.0
17.464371999999997,0.0830516418312815,0.0
17.46676,0.07483465741864302,0.0
17.469144,0.0654069681925058,0.0
17.471544,0.059192084526284175,0.0
17.473928,0.05390836641984086,0.0
17.476307999999996,0.04476021644742406,0.0
17.478712,0.03575183610186747,0.0
17.481099999999998,0.02581229019653256,0.0
17.48348,0.016664140224115758,0.0
17.485875999999998,0.008726695065197696,0.0
17.488259999999997,0.004793451399113337,0.0
17.490643999999996,0.0019311429196675078,0.0
17.493056000000003,0.0,0.0
17.495444,0.0,0.0
17.497824,0.0,0.0
17.50022,0.0,0.0
17.502608000000002,0.0,0.0
17.504987999999997,0.0,0.0
17.507384000000002,0.0,0.0
17.509771999999998,0.0009999773598891877,0.0
17.512147999999996,0.0009999773598891874,0.0
17.514564,0.0009999773598891874,0.0
17.516951999999996,0.0009999773598891877,0.0
17.519332,0.0009999773598891877,0.0
17.521743999999998,0.005252398676460146,0.0
17.524132,0.02812623533072827,0.0
17.526511999999997,0.05518936907506421,0.0
17.528923999999996,0.0835085336032728,0.0
17.531312,0.1169009389530844,0.0
17.533692000000002,0.15862471665478847,0.009791558268164973
17.536088,0.21082173708166208,0.019078547283618554
17.538476000000003,0.2719564301961122,0.027893316618970695
17.540855999999998,0.34007391707996515,0.036350353588191116
17.543252000000003,0.410378600307469,0.044938683143789016
17.54564,0.4829158058489978,0.05401273830444479
17.54802,0.5691390596756116,0.06254862340958248
17.550420000000003,0.6666741739885564,0.07077081002425693
17.552804000000002,0.7693297509513473,0.078901589272243
17.555203999999996,0.874172524257789,0.08712721600543719
17.5576,0.9808994688244244,0.09569011476732167
17.559987999999997,1.1024522086628943,0.10390491277380542
17.562368,1.2362951963757167,0.11176883160476822
17.564763999999997,1.3755854078203487,0.11943367018221081
17.567147999999996,1.5110584092272503,0.12715638862738193
17.569528,1.6344575777870167,0.13514131222010442
17.571936,1.73001622320992,0.14366467989181084
17.574323999999997,1.82757696937924,0.15203134115732436
17.576704,1.9344040451759696,0.15990304497276647
17.579104,2.0351341667927008,0.1677250939953656
17.581488,2.121061978967334,0.1659184593199231
17.583872,2.1969358572973787,0.1645502253514454
17.586267999999997,2.260659257379931,0.1638453768150802
17.588656,2.3161891588795824,0.16358724876842676
17.59104,2.3693920944087217,0.1632209413952863
17.593435999999997,2.4227839172508343,0.1621920012987634
17.595824,2.4569026984491913,0.16196340162078046
17.598208,2.4786386839745793,0.16211869587842825
17.6006,2.4986993298355147,0.16223084222759004
17.602987999999996,2.5173641752857154,0.16222723767685335
17.605368,2.5321211587574397,0.16183491596527114
17.607771999999997,2.527325561331688,0.16209133421045233
17.610155999999996,2.512753673457199,0.16260489625181176
17.612536,2.491663626664261,0.16338900598284797
17.614939999999997,2.4794659265885257,0.16381638623911843
17.617323999999996,2.4836571195364625,0.1634837592852541
17.619708000000003,2.4988372036045052,0.16245131004143498
17.622104,2.507034493903145,0.16159052412335584
17.624488,2.502148244536645,0.1614035798634555
17.626868,2.4969352340881823,0.16136924016999066
17.629267999999996,2.4961910599835075,0.16127315885195534
17.631652000000003,2.4900922099456397,0.16149893445434055
17.634048,2.4914426843859987,0.161389232116449
17.636443999999997,2.4990317784910854,0.16103820820005138
17.638832,2.514209966701259,0.16037134035289177
17.641212000000003,2.5278979108442137,0.15984698468010183
17.643608,2.5473126179726977,0.15904071091018204
17.645995999999997,2.5665875554743223,0.1582383393744367
17.648376,2.5782733988708597,0.15777576715930774
17.650771999999996,2.5887485374538985,0.1573967070645244
17.65316,2.60238925976861,0.1569533888984591
17.655552,2.6218965146957123,0.1561889658672528
17.657956,2.634885610704365,0.15570990833489365
17.660344000000002,2.6550444919375242,0.15496124444046744
17.662728,2.673852898730325,0.15437243439793022
17.665124,2.681020788096962,0.15442497350844545
17.667512000000002,2.683345858209604,0.15478892803423872
17.669891999999997,2.6844602235087467,0.15523475572417259
17.672296000000003,2.686925063248249,0.15558315792035865
17.674680000000002,2.6986090107869165,0.15546961593265027
17.677059999999997,2.7162992605648357,0.15508056476415405
17.679464000000003,2.7402753518357255,0.15434660578744236
17.681852,2.75736119713583,0.1538355244107898
17.684232,2.767417026838288,0.15356338239752199
17.686628,2.768952596875881,0.1536380915721077
17.689016000000002,2.7689053750476376,0.15374233380408214
17.691395999999997,2.7669958220998376,0.1539168134887212
17.693792000000002,2.7664367435923976,0.1539970377498781
17.69618,2.7785418958695156,0.15355232517728798
17.69856,2.7927889185199106,0.15300141330616893
17.700964,2.8055456971030863,0.15257224098880637
17.703348,2.8172315404996247,0.1521943740639716
17.705731999999998,2.8318506502023575,0.1516747446895689
17.708128000000002,2.837437643561027,0.15146894848556705
17.710512,2.838089269867085,0.1514740156084045
17.712891999999997,2.8427450976659765,0.1513020375855777
17.715296000000002,2.851684666211422,0.1509088966347502
17.717684,2.862626335503285,0.1504189256002352
17.720059999999997,2.877572206287981,0.1497517058353441
17.722459999999998,2.881576407780815,0.14957732960010914
17.724848,2.8794345374075374,0.14968273091225862
17.727227999999997,2.87701312778054,0.14982425777207853
17.729632000000002,2.8764540492730997,0.1499014764693775
17.73202,2.8771056755791573,0.14990650548756657
17.7344,2.8766863666985762,0.14996605671873975
17.736796,2.8777100800569717,0.15001522243684837
17.739184,2.8833896212142585,0.1498918296274437
17.741563999999997,2.889208931998406,0.14975015035176661
17.74396,2.8787791193857415,0.15024875763259202
17.746347999999998,2.8684890763999364,0.1507175611306354
17.748728,2.8604806734142696,0.15105415498163985
17.751128,2.8547539104287387,0.1512670722871269
17.753512,2.8500055348312303,0.15134718971325742
17.755896,2.8484699647936376,0.15127297480140137
17.758291999999997,2.8498676610622398,0.15108105127346996
17.76068,2.850985818077121,0.15092846217897501
17.763075999999998,2.851172809532225,0.1508092190842511
17.765472000000003,2.8528500450545473,0.15058391342377458
17.767856000000002,2.8498714527779785,0.1505166724871751
17.77024,2.8543421849796355,0.15019913317900224
17.772636,2.864679449793684,0.14965956726311674
17.775024000000002,2.877158584981008,0.1490376666383185
17.777403999999997,2.8919193601684703,0.14830671578312438
17.779808000000003,2.907471531288851,0.14756134869858145
17.782196,2.9255376598348457,0.14674866726456723
17.784576,2.9458854283809774,0.14584031749992618
17.786972,2.9609257428221607,0.1450807650557224
17.789360000000002,2.9713102294644513,0.14445787168028534
17.791744,2.992217076518024,0.143434437835783
17.79414,3.0119132187580986,0.1424920887883573
17.796528000000002,3.0308179650652547,0.141591071434062
17.798907999999997,3.0458582795064366,0.14082620529811077
17.801304000000002,3.061922307306015,0.1401184961730381
17.803691999999998,3.0774272565981518,0.1394830167729425
17.806072,3.092792436263429,0.13887547512574283
17.808480000000003,3.107505989622648,0.13826209710030185
17.810868,3.1215679166758092,0.1376453369200481
17.813248,3.131997729288474,0.13721972482342334
17.815644,3.1469436000731705,0.13667128606224196
17.818027999999998,3.1564422471260576,0.1362815803524894
17.820408,3.1644978719399677,0.1359080434285922
17.822803999999998,3.163893467462153,0.13580730005310693
17.825192,3.1615192796633984,0.13583568723695963
17.827576,3.1597967181707025,0.13587163516900336
17.829971999999998,3.157702069625668,0.13586625472055222
17.83236,3.1553278818269135,0.13589298323203286
17.834744,3.158261148133108,0.13580051215869907
17.837139999999998,3.167944890783229,0.1355849158479317
17.839528,3.1766974678735718,0.13540120568512487
17.841912,3.1858693538444944,0.1351704009243659
17.844307999999998,3.1939703046287784,0.13498553632649796
17.846696,3.208589414331511,0.13463687883511596
17.849088000000002,3.2229289847805234,0.13432246748248214
17.851487999999996,3.238059951162455,0.13399795174371812
17.853876,3.253749996051826,0.13361834053443708
17.856251999999998,3.270790515381556,0.13317348023353232
17.858655999999996,3.28978591362946,0.13275786250771213
17.861044,3.3127855133701973,0.13221668033861586
17.863424000000002,3.333922781991378,0.13173040734871402
17.865823999999996,3.3572019209858364,0.13116784352079974
17.868208000000003,3.3780596503532974,0.13071993200056575
17.870592000000002,3.4058076256915433,0.13013783102699675
17.872996,3.4375598025226233,0.12944467046978128
17.87538,3.470662453794062,0.1286931382724894
17.877764,3.504975809879,0.12789639662061938
17.880159999999997,3.532771007045489,0.12725194201357543
17.882544000000003,3.5574931682789233,0.12671374855401646
17.884923999999998,3.580912076900242,0.12616803133966636
17.887324,3.6026084240288636,0.1256566875825455
17.889708,3.626167102277042,0.12511672701042476
17.892088,3.647444140525083,0.12466063852653803
17.894492,3.661224632466654,0.12444956803139802
17.896880000000003,3.6744932677290274,0.12421615337752437
17.899259999999998,3.688600520752563,0.12389903017889675
17.901656000000003,3.696701471536848,0.12374501788314918
17.904044,3.703172408627053,0.12368444910954107
17.906428,3.7089917194112,0.12361624185180958
17.908824000000003,3.7080133320231785,0.12371732851791763
17.911212,3.7035898216497642,0.1238722485764562
17.913596,3.6980953760897113,0.12406117567379758
17.915992000000003,3.6947428009029353,0.12417931135749358
17.91838,3.692368613104181,0.12419594709803086
17.92076,3.6836160360138384,0.12433542654690118
17.923156,3.6748634589234968,0.12447088665534473
17.925544000000002,3.666902277766072,0.12459793147913013
17.927928,3.661455054034262,0.12469954512805238
17.930328000000003,3.6532143336231178,0.12486233037656337
17.932716,3.6460445483986113,0.12498816372480437
17.9351,3.636732892800828,0.12518251440103548
17.937496000000003,3.622765409404153,0.12547150122476997
17.939884,3.60921723488806,0.1257216285983657
17.942268,3.6015828148125992,0.12574764018192808
17.944663999999996,3.59301722917736,0.1257931626405708
17.947052,3.583240938728623,0.12588434923261302
17.949436,3.581193512011832,0.12579234929888683
17.951831999999996,3.5829179693623976,0.12554607100624188
17.95422,3.5830596348471273,0.12530994851880073
17.956604,3.5933515736908004,0.12480243380202079
17.959007999999997,3.606297239586949,0.12424672847031196
17.961396,3.619522444736819,0.12366435108615056
17.96378,3.6299541532073527,0.12314215709678336
17.966175999999997,3.635822581677612,0.12277968918473595
17.968564,3.6434135716405676,0.12238866603242672
17.970948,3.645138028991133,0.12213853775881538
17.973343999999997,3.6468624863416985,0.12189163632772196
17.975732,3.651008353319262,0.12155132840568598
17.978116,3.664233558469131,0.12098043418224624
17.980511999999997,3.6745254973128048,0.1204821390990335
17.9829,3.6869593065297557,0.11991582413942456
17.985279999999996,3.702186612426042,0.1192935297979225
17.987679999999997,3.7204869542553833,0.11859448026567317
17.990068,3.7392991527639228,0.11793625664904275
17.992447999999996,3.7616962438847144,0.11722779972073977
17.994844,3.784884730938425,0.11651931079863795
17.997231999999997,3.802346455006605,0.11593321131665295
17.999615999999996,3.818969561313624,0.11544173799622924
18.002012,3.839689416912093,0.11492704729091047
18.004399999999997,3.8571964669506476,0.1145151065379457
18.006783999999996,3.8759142218027,0.11406574399489791
18.009183999999998,3.8951438333339503,0.11364141176795703
18.011572,3.91423367523834,0.1132269934681078
18.013951999999996,3.9336030563964512,0.1127785431072087
18.016356,3.9539036031143397,0.11231252628367011
18.01874,3.979279286511702,0.11172286954653504
18.02112,4.00120984692367,0.11117497336683714
18.023524,4.022209241775861,0.11064851517162848
18.025912,4.033337902522826,0.11033262844692603
18.028292,4.0461891247624875,0.10999960312172516
18.030696,4.060762908494847,0.10965229573312112
18.03308,4.07212388666729,0.10938612935360928
18.035464,4.077990419279681,0.1092703538491792
18.037864,4.077199023346762,0.10927279348011334
18.040252,4.069889468495395,0.1093815967710995
18.042636,4.058575712151195,0.10957938100164888
18.045032,4.048984517299692,0.10976111581715356
18.04742,4.035017033903017,0.10999409336107577
18.0498,4.014950700468474,0.11029687320674682
18.052204,3.98994899998132,0.11070551192351788
18.054588000000003,3.962525889867168,0.1111974163117983
18.056972,3.93351998788718,0.11169503414823814
18.059368,3.906516186653609,0.11214705703852726
18.061756000000003,3.888312184338623,0.11241052660435046
18.064136,3.8727619090761114,0.11263849060657732
18.066532,3.8598653608660753,0.11282822602231934
18.068916,3.8509257923206297,0.11300640504817355
18.071296,3.844360411573938,0.11317635471404192
18.073704,3.843521793812777,0.11324986716909989
18.076092000000003,3.8408208449320593,0.11335175943841817
18.078472,3.8373285001184234,0.1134543745553511
18.080868,3.837188730491563,0.11346655221387587
18.083256,3.8436143416113944,0.11330954352474118
18.08564,3.8556269460898958,0.11306645967360408
18.088036,3.875228644673484,0.11269823772159396
18.090424,3.9012559543769028,0.11217275073581898
18.092808,3.9297046737073194,0.111576448927395
18.095204000000003,3.959736184903572,0.11097152576260269
18.097592,3.9927009624060195,0.11030710678776717
18.099972,4.028599006214662,0.10957665622037653
18.102368,4.070922661143138,0.10869978778177188
18.104756,4.112175380884973,0.10784101183422673
18.10714,4.153428100626809,0.10699233665788471
18.109536,4.184949855890281,0.10633835483116841
18.111924,4.211583465929383,0.10570964397879742
18.114304,4.227694715557203,0.10525042635224849
18.116708000000003,4.239429676639855,0.10483593842621367
18.119092,4.250001154737249,0.10439501197506708
18.121472,4.257918905782169,0.10398450072648005
18.123868,4.267047361640587,0.1035364381597707
18.126256,4.275244651939228,0.10310359903102383
18.128636,4.282510776678089,0.10268641573463594
18.131032,4.284422225483758,0.10239394076903857
18.13342,4.287684148729785,0.10205830904942287
18.1358,4.287640718617281,0.10174057377042817
18.138204,4.28452425257172,0.10148306478978471
18.140588,4.280336851339523,0.10124952030377828
18.142968,4.274846197495208,0.10099296358096213
18.145372,4.270286709210672,0.10072535651431067
18.147756,4.269219565739771,0.10037085704609083
18.15014,4.2612149544698426,0.10012647262926852
18.152544,4.258145710252526,0.09980752852175655
18.154928,4.252934595661932,0.09953152301981877
18.157308,4.254009322564309,0.09913832649692769
18.159704,4.258389402825219,0.09873515335106406
18.162092,4.271429512377854,0.0982089779072818
18.164472,4.288753362677043,0.09759826038635104
18.166876,4.3027246377894555,0.09706410014516523
18.169264,4.317207769581066,0.09655150441790257
18.171644,4.333273693238514,0.09604393804747846
18.174048,4.349479386522821,0.09552712656036416
18.176436,4.3643346053667695,0.09505264656405982
18.178816,4.381191924957135,0.09454289770289277
18.18122,4.39204294230825,0.09413020942959768
18.183608,4.402195111525065,0.0937735836415269
18.185988,4.411927971861297,0.093450206978581
18.188384,4.416445925891198,0.0932199581051699
18.190772000000003,4.422267132533214,0.09301240682417869
18.193152,4.425666929548233,0.0928698977224431
18.195556,4.426365777682534,0.09281523267052211
18.197944,4.426785086563115,0.09278211010114101
18.200328,4.4261334602570575,0.09277029947542652
18.20272,4.427623704324276,0.09271679741202411
18.205108000000003,4.423339963577722,0.09279964528871126
18.207492,4.418916453204308,0.09289260494015852
18.209888,4.416634813204171,0.09294324289348896
18.212276000000003,4.410721058763537,0.09308497524755087
18.214656,4.410534067308435,0.09315984048737061
18.21706,4.414351277346165,0.09317697886657485
18.219444000000003,4.416585695518059,0.09319154927470025
18.221824,4.4213340711155675,0.09320042151865392
18.224224,4.432740375258384,0.09313890656231166
18.226608,4.452806708692926,0.0929861654213936
18.228992,4.478320265859278,0.09279276201767855
18.231388000000003,4.507558485264743,0.09256830418995224
18.233772,4.54159230209596,0.09229714879589741
18.236152,4.584286148218903,0.09193164472178418
18.238548,4.629773491021181,0.09154376843096686
18.240936,4.679404804943153,0.09109557700420008
18.243332,4.727034018118707,0.09067042050140628
18.245728,4.779319059093153,0.09020300601046793
18.248116,4.831184791187018,0.08977077153557642
