Time,Force,Position
19.992824,0.03388305838226827,0.0
19.995212,0.02750567942003796,0.0
19.997592,0.021128300457807652,0.0
19.999992,0.01568208705535566,0.0
20.002376,0.00944447771998556,0.0
20.00476,0.0041380339443937795,0.0
20.007156,0.0019046261018573817,0.0
20.00954,0.000602383819099304,0.0
20.01192,0.0010216926996799345,0.0
20.014324,0.0022323975131786754,0.0
20.016712,0.0038141790496571733,0.0
20.019092,0.008468996519191052,0.0
20.021496,0.016336619548640526,0.0
20.023884,0.025275177764728526,0.0
20.026264,0.03528467116745506,0.0
20.02866,0.04394369012982264,0.0
20.031048,0.049389903532274626,0.0
20.033432,0.055627512867644724,0.0
20.035828,0.060794187016376296,0.0
20.038216,0.06703179635174639,0.0
20.040596,0.07527150643353334,0.0
20.042992,0.08551331726173714,0.0
20.04538,0.09575512808994094,0.0
20.047764,0.10399483817172789,0.0
20.05016,0.1110238434400161,0.0
20.052548,0.11777330945458389,0.0
20.054928,0.12638510658870833,0.0
20.057324,0.13499690372283277,0.0
20.059712,0.14109575376070038,0.0
20.062096,0.14626343823878968,0.0
20.064492,0.1515708923437392,0.0
20.06688,0.152874144955855,0.0
20.06926,0.15003342644827689,0.0
20.071664,0.14519060719428187,0.0
20.074052,0.13741452163409176,0.0
20.076436,0.13327055051439785,0.0
20.078832,0.13448125532789662,0.0
20.08122,0.1328984634620604,0.0
20.0836,0.13038450603644586,0.0
20.085996,0.1270791526779132,0.0
20.088384,0.11883944259612622,0.0
20.090764,0.10859763176792245,0.0
20.09318,0.09835582093971862,0.0
20.095568,0.09011611085793167,0.0
20.097948,0.08308710558964347,0.0
20.100344,0.07633763957507567,0.0
20.102732,0.06772584244095124,0.0
20.105112,0.05911404530682681,0.0
20.107508,0.052364579292259024,0.0
20.109896,0.04561511327769124,0.0
20.112276,0.038725877636263235,0.0
20.11468,0.03276780755461355,0.0
20.117068,0.027740903032742195,0.0
20.119448,0.023645164070649156,0.0
20.121844,0.02141175622811276,0.0
20.124232,0.01689670838543909,0.0
20.126612,0.01023979016948836,0.0
20.129016,0.005584972699954479,0.0
20.131404,0.0029322559768374494,0.0
20.133784,0.0,0.0
20.13618,0.0,0.0
20.138568,0.0,0.0
20.140952,0.0,0.0
20.143348,0.002373177469396608,0.0
20.145736,0.0048861245656534255,0.0
20.148116,0.006467906102131923,0.0
20.150512,0.010982953944805593,0.0
20.152904,0.016429167347257582,0.0
20.155284,0.022154920003429994,0.0
20.15768,0.029882773406019254,0.0
20.160068000000003,0.034677360502413344,0.0
20.162452,0.03961171722566764,0.0
20.164848,0.0426837428293653,0.0
20.167236000000003,0.04761809955261961,0.0
20.169616,0.052552456275873904,0.0
20.172016,0.05841797855890652,0.0
20.174404000000003,0.06428350084193914,0.0
20.176784,0.07000925349811156,0.0
20.17918,0.07466407096764544,0.0
20.181568,0.08104144992987573,0.0
20.183952,0.0894209296385229,0.0
20.186348,0.09593807822761342,0.0
20.188736,0.10166383088378583,0.0
20.19112,0.103154074951005,0.0
20.193516,0.1026422182718073,0.0
20.195904,0.10106043673532882,0.0
20.1983,0.09654538889265514,0.0
20.200696,0.09109917549020317,0.0
20.203084,0.08537342283403075,0.0
20.205464,0.0776455694314415,0.0
20.207864,0.07285098233504742,0.0
20.210248,0.07964109707573909,0.0
20.212632,0.10751936275149933,0.0
20.215028,0.13939993406222403,0.0
20.217416,0.1791944647021299,0.00833058058353221
20.219796,0.21679800728264625,0.01819665428212392
20.222192,0.26440826187950833,0.028002989356240106
20.22458,0.3299410836797666,0.03670631107981351
20.226964,0.4150737082057435,0.04442714321072634
20.22936,0.5031849250082894,0.05216435001794642
20.231748,0.5882212100199108,0.06042234139721014
20.234128,0.6822404936894825,0.0688548547836397
20.236528,0.7917609349354529,0.07701372023004377
20.238916,0.920322100399701,0.08468766367594201
20.241296,1.0603821178053834,0.09216198472244228
20.243692,1.2073766968228674,0.09971621483470869
20.24608,1.3664273104313576,0.10722657003865046
20.248464,1.540187685683328,0.11463349454690538
20.25086,1.7240492166081307,0.12199868142120684
20.253248,1.914149367197661,0.1292223622625536
20.255632,2.1041569699885745,0.13638385255395746
20.258028,2.274898229038698,0.14367502187817083
20.260416,2.4191041134219438,0.1511587202077894
20.262796,2.5656860814618128,0.15842504557721326
20.265196,2.7050057164785586,0.15736576439549435
20.267584,2.8480538054501565,0.15458595116855006
20.26998,2.973972619009145,0.15194947528569341
20.272376,3.0730765186475355,0.1506450055312023
20.274764,3.1403356936562283,0.1507730683267714
20.277148,3.2008916141492394,0.15096832612532496
20.279544,3.26731596311251,0.15046396624429106
20.281936,3.3276905797240253,0.14973673863633066
20.284316,3.3677684413333893,0.1494740597979521
20.286716,3.382007880552308,0.15004882146796036
20.2891,3.381256123016156,0.15111722543822095
20.291484,3.3772934557779575,0.15204600848779384
20.29388,3.358621026896279,0.15311913755222142
20.296268,3.3256581452517002,0.15423372712588923
20.298644,3.2896713453601785,0.15504170050705537
20.30104,3.2453040554306516,0.15610410776113945
20.303424,3.2021002484863805,0.15717182974031313
20.30582,3.169511349752009,0.1579630379121825
20.308212,3.1435803795629456,0.15855914578194463
20.310596,3.1038216956040676,0.159593625841035
20.31298,3.0594071838462975,0.1608216764886528
20.315376,3.0116854228721257,0.16235998591020495
20.31776,2.9742518090258887,0.16373344152965033
20.320144,2.9492954345091085,0.16476041663525046
20.322536,2.9448247023074514,0.16508088553272227
20.32492,2.9459409634644644,0.16519838434322343
20.3273,2.9393283608895295,0.1656162508790303
20.329696,2.93522971574021,0.16596351009926297
20.33208,2.939651330255755,0.16600324548877254
20.33446,2.950870642943469,0.16575578497776752
20.336876,2.967584401191235,0.1651964145481185
20.33926,2.984577698692722,0.16461410510640592
20.34164,3.0090203206724353,0.1637588196882571
20.344036000000003,3.0299705978385134,0.16309204405864516
20.34642,3.0395598968321487,0.16297398901781385
20.348804,3.055946893997951,0.16258054439247188
20.351216,3.0732650567235322,0.1621644943963838
20.3536,3.086159709075699,0.1619778772428807
20.355984,3.099705987733924,0.16179383138607972
20.358388,3.1207015908703752,0.1613265964210997
20.360772,3.1462132521788577,0.16068109851693113
20.363152,3.174006553487478,0.1598999286526327
20.365556,3.200636371810843,0.1591232242740569
20.367944,3.22689410308187,0.1583440898909854
20.37032,3.2430487828221954,0.15792477612375022
20.372724,3.2561304266294657,0.15764490609854542
20.375112,3.275310920474604,0.15719228495926707
20.377488,3.290115125774571,0.1568712438438938
20.379884,3.305198870328258,0.15653374177606988
20.382268,3.3255900689868954,0.15605335047493984
20.384664,3.3488673121234838,0.15556171934477034
20.387068,3.3722371030586897,0.15515028505243333
20.389456000000003,3.3885296565680063,0.15500934933563457
20.391836,3.410456425264236,0.15461387639602175
20.394232,3.4321508765349886,0.15413420682302226
20.39662,3.4486304214994083,0.15387898175643183
20.399,3.467344384635723,0.15361537197922162
20.401404,3.490761397399172,0.15313249447340993
20.403788,3.5155288846029795,0.15258080970643045
20.406168,3.5375028751274527,0.1521159952902197
20.408564,3.562549901584981,0.1515479540123829
20.410948,3.588807632856008,0.15093370368432774
20.413328,3.614134198567257,0.1503590225905141
20.415732,3.6293577127478045,0.1500517780919924
20.41812,3.644720996555212,0.14971615852444406
20.4205,3.6620863811090363,0.14931482118069755
20.4229,3.68080224010322,0.14885794172426114
20.425284,3.701659969470681,0.1483224510227964
20.427664,3.715999539919693,0.14797146562345737
20.430068,3.7222381595844207,0.14782041156183742
20.432452,3.725683282569814,0.14774755147189886
20.434832,3.730898188876146,0.14756343732775876
20.43724,3.7452396551830276,0.1470153669419966
20.439624,3.7537145888775187,0.14664322028992466
20.442004,3.765494875930542,0.14620604470947854
20.444408,3.7808600555958196,0.14568562683931155
20.446796,3.7935715082086214,0.14523578312228452
20.449172,3.8005561978358937,0.1449486529572086
20.451568,3.805818325970469,0.144697050148357
20.453956,3.8115923107842424,0.14446287091797094
20.456336,3.816807217090575,0.14429059136805875
20.458732,3.824583302650765,0.1440116497748262
20.461116,3.832406610039198,0.14366364820827823
20.463512,3.8494018033985546,0.14310137242086424
20.465916,3.872495846795779,0.14242384698646604
20.468304,3.8963812861259215,0.14175299327098986
20.470684,3.9161699761646127,0.1411512778070304
20.473088,3.935307039897246,0.14055317731437011
20.475472,3.956958061055494,0.13990972640769436
20.477852,3.990434695237139,0.13902432775292323
20.480256,4.031407875725255,0.1379318337000964
20.482644,4.0680047676681985,0.13693474942453263
20.48502,4.094311616625338,0.1362459377172069
20.487416,4.126577545993484,0.1354715708932765
20.4898,4.166292799839858,0.13455790235327603
20.49218,4.207126210701113,0.13357184383138992
20.494584,4.246935908203973,0.13255947310868665
20.496972,4.2896788720130274,0.1314776612075789
20.499352,4.33223484436698,0.1304725264983792
20.501748,4.377863852653986,0.12939274096482942
20.504132,4.422748686836318,0.12827376180432443
20.506512,4.460975592473342,0.1273141627550541
20.508916,4.494731765908708,0.12654670440156585
20.511304000000003,4.524855824903578,0.12590436413591488
20.51368,4.553536861659472,0.12527278701427352
20.516084,4.577609292444718,0.12466595648216516
20.518472,4.602473119162881,0.12406044530550275
20.520852,4.625427392933244,0.12355360441603812
20.523252,4.650755854502362,0.12303325013321449
20.52564,4.668123134914057,0.12263618760338311
20.52802,4.67431642860841,0.12243433550687413
20.530424,4.679019478235545,0.12229212245362152
20.532812,4.6858171764077134,0.12215668931604559
20.535192,4.689029981967629,0.12207449908120253
20.537596,4.686563246370258,0.12203525126778744
20.53998,4.675296711854301,0.12216853665870703
20.542364,4.664402264390682,0.12232938747035808
20.54476,4.654391760658597,0.12253618443576116
20.547144,4.645219874687673,0.12267675000575676
20.549524,4.6338135705448575,0.1228157168178158
20.551928,4.617192360095708,0.12307383825719186
20.554316,4.601874402258674,0.12334745660121366
20.556696,4.592050889981693,0.12348040699909212
20.5591,4.58520786583915,0.12349400166356604
20.561484,4.57664228020391,0.12352580255515987
20.563864,4.569100407927068,0.12359446945113658
20.566268,4.559276895650087,0.12372631200062881
20.568656,4.550803857813465,0.1238104714619106
20.571036,4.540096401804949,0.1238948588609634
20.573432,4.528178240982934,0.12401846530818036
20.57582,4.520636368706092,0.1240890685776539
20.5782,4.51802986348186,0.1240603394475451
20.580604,4.518915703071264,0.1239298002382239
20.582992,4.5207327082204465,0.1237836471298081
20.585372,4.523713196354884,0.12366408452027466
20.587772,4.533072073780911,0.12344728617707193
20.59016,4.542710490460658,0.12321019128555466
20.59254,4.55104565452829,0.1229596661031078
20.594944,4.55924104896906,0.12272110658293597
20.597332,4.564595724902252,0.12258942743561545
20.599712,4.575956703074695,0.122333533429253
20.602108,4.588528386060636,0.12204110549210466
20.604496,4.60110006904658,0.12175419862052655
20.606876,4.61297290389822,0.12152516655011306
20.60928,4.628849940242695,0.12122221180820732
20.611668,4.647288155841027,0.12083972744206825
20.614048,4.66614568031994,0.12042266539701858
20.616452,4.6857946007317715,0.1200042101228177
20.61884,4.707957478569216,0.11956770700433562
20.62122,4.735335262712994,0.11902112983372945
20.623624,4.762992586110491,0.11845846623875772
20.626012,4.787065016895738,0.11794591711516281
20.628388,4.809135346934567,0.11747616885256498
20.630796,4.830554050667337,0.11699848109967163
20.63318,4.847736235481797,0.1165554414903042
20.63556,4.863754937311001,0.1160906654804913
20.637956000000003,4.875629668020512,0.11570851028406531
20.640344,4.8884355642898,0.11531495751704444
20.642724,4.901381230185947,0.11491211887747513
20.645128,4.9153052834701185,0.11443032038009558
20.647516,4.924293969701677,0.11403810754978828
20.649896,4.931280555186818,0.11368315754338304
20.6523,4.934262939179126,0.1134023439316148
20.654688,4.936873236119096,0.11309364570586333
20.657068,4.932406295633178,0.11291820659800753
20.659468,4.921793283281148,0.11286204464878208
20.661856,4.913973767608453,0.11276630422079179
20.664236,4.905782164883419,0.11264121354054069
20.66664,4.894285208799855,0.1125351785813745
20.669024,4.877992655290537,0.11250064165008353
20.671404000000003,4.858766835475026,0.11251314848019103
20.673808,4.841403346779071,0.11249926586580113
20.676196,4.822177526963559,0.11251032730327838
20.678576,4.802811937521186,0.11253153337262231
20.680972,4.791175211810761,0.1124310254991568
20.68336,4.780050342779533,0.11234793980451004
20.685744,4.773209214494861,0.11217541210759935
20.68814,4.765716459904129,0.11199421406269451
20.690524,4.759946266806094,0.11179961678648076
20.692908,4.758552362253231,0.11156696585212743
20.695304,4.760091724006562,0.1112888415958571
20.697692,4.762841790573393,0.11097847708933156
20.700072,4.768385353819559,0.11063228802010257
20.702468,4.773369838558283,0.11032703100103411
20.704856,4.781706898483783,0.10994398154323985
20.707236,4.794839555835035,0.10948776922355032
20.709632,4.805830342813009,0.10907883841005965
20.712016,4.815051346470044,0.10874266336707325
20.714396,4.826646537925834,0.10840180279210514
20.716792,4.8396847516206,0.10806647620551638
20.71918,4.853234821994564,0.10774684422443405
20.72156,4.864363482741529,0.10749261131039735
20.723964,4.87814587054097,0.10721215863061853
20.726348,4.894442215766026,0.1069172612948058
20.728728,4.902450618751694,0.10678161640030835
20.73112,4.912321352856918,0.10662498807655804
20.733508,4.92270394364134,0.10648953614469003
20.735888,4.930525355171904,0.10642686574111428
20.73828,4.9354135003962725,0.10640895087586966
20.740668,4.936576983381528,0.10643658179793387
20.743048,4.938811401553422,0.10644316896856391
20.74546,4.945701647524207,0.10639622435918775
20.747848,4.951940267188935,0.10634093636170344
20.750228,4.960460526853799,0.10623583959169348
20.752632,4.970423808757641,0.10614019127971008
20.75502,4.980666629915201,0.10602647461353702
20.757396,4.994634113311878,0.10587361135118659
20.7598,5.011954171895329,0.10565262806607063
20.762188,5.026340964172584,0.10547078102202129
20.764568,5.04100729570356,0.10526981235004729
20.766972000000003,5.061028303167729,0.1049730629455626
20.769356,5.0834707202588945,0.10461800244758765
20.771736,5.102048705484087,0.10431071432237284
20.77414,5.1210459995898585,0.10397914980803499
20.776528,5.141905624815189,0.10362128617783958
20.778908,5.1567589478012685,0.10335343999860445
20.781304,5.16961017004093,0.10311678993182412
20.783692,5.187536528960066,0.10280090350070514
20.786072,5.208256384558536,0.10245535060279932
20.788476,5.230698801649702,0.10209939455156207
20.790864,5.253141218740867,0.1017497669141989
20.793244,5.268646168033003,0.10150054536136814
20.795648,5.2838715780714205,0.10127064188534889
20.798032,5.298026052923198,0.10106264044460951
20.800416,5.312460067028697,0.1008394150517729
20.80282,5.329687577813531,0.10059302697080078
20.805204,5.3426785696800545,0.1003681505370833
20.807584,5.355390022292855,0.10016401728639257
20.80998,5.3743873163986295,0.0998648761168886
20.812364,5.394455545691041,0.09955017352713591
20.814748,5.4095884079308405,0.09929985630256168
20.817148,5.427654536476836,0.09902072190388646
20.819536,5.453868837635358,0.0986352315354671
20.82192,5.478220807674323,0.09827005215039025
20.824316,5.505273726594007,0.09783827690727019
20.8267,5.536889925513966,0.09732119658379629
20.829084,5.569065202941365,0.09677100771402748
20.831476,5.600728623689567,0.09621327559237063
20.833864,5.6308092525719315,0.0956582892138205
20.836244,5.662100586267796,0.09508393724218388
20.838648,5.689387718470826,0.09455830005710235
20.841032,5.719096260300853,0.09398226752149118
20.843412,5.7530885428774345,0.0933503226675315
20.845816,5.784287328774681,0.09274090550323674
20.8482,5.811621682805956,0.09217162044927392
20.850584,5.83229810829192,0.09166529839850374
20.85298,5.8505531241508875,0.09120359535539388
20.855368,5.863500685904906,0.09076863666689573
20.857748,5.869231240606174,0.09042840418902158
20.860152,5.873890860120804,0.09010484043821636
20.86254,5.878690249262294,0.08977224868934618
20.86492,5.87361890429856,0.08954473048865674
20.86732,5.864543357841994,0.08936347593705408
20.869704,5.8554678113854255,0.08918187962172433
20.872084,5.84518156011536,0.08902310531365756
20.87448,5.831542733658518,0.08891681408023126
20.876868,5.815762036828399,0.08883977345662877
20.879248,5.797839469625003,0.0887909683365583
20.881652000000003,5.774841765742135,0.08880104747072491
20.88404,5.75026126999343,0.08880563529112197
20.886424,5.726751709431364,0.08879587667443709
20.888820000000003,5.701891674428938,0.08881658663663615
20.891204,5.671956502747041,0.08889168106920868
20.893588,5.644954597371339,0.08893818072741042
20.895984,5.616741987182139,0.08900965402002559
20.898372,5.592393808858911,0.08904597917364573
20.900752,5.572189601655378,0.08903131347801102
20.903148,5.557572387810514,0.08897612390462419
20.905536,5.546959375458484,0.08887788643499346
20.907916,5.536346363106454,0.08877938647238526
20.910312,5.526245207433622,0.08869887303537045
20.9127,5.525083620306236,0.08852471909745101
20.91508,5.520988766872654,0.08837864564170844
20.917476,5.514612273438936,0.08827052738290984
20.919864,5.5068853055648574,0.08819396421080579
20.922244,5.502231373623835,0.08808041687949171
20.924644,5.501441873548787,0.08793185643627831
20.927028,5.501583539033517,0.08777708121860398
20.929408,5.510804542690551,0.08752177505560622
20.931804,5.518535302280368,0.08730649361320898
20.934192,5.525334896310405,0.08709673137820605
20.936572,5.534276360713721,0.08685758507503799
20.938988,5.543217825117036,0.086617814386179
20.941376,5.550157188773934,0.08639992391289852
20.94376,5.560449127617607,0.08612791819924136
20.946156,5.566736864968448,0.08589810602066514
20.948544,5.5751664726925645,0.08564172386604779
20.95094,5.581733749297125,0.08539961397047806
20.953336,5.586578464408989,0.0851620794200339
20.95572,5.591562949147714,0.08491668715015144
20.958104,5.596315116460961,0.08463607391894704
20.9605,5.596131916721595,0.08440310768705488
20.962884000000003,5.59687988254201,0.08416303766570553
20.965264,5.600049257989422,0.08387703427957126
20.96766,5.604708877504052,0.0835515385174331
20.970044,5.609508266645543,0.0832197488600961
20.972424,5.608301353547783,0.08294745568675037
20.974836,5.604161174143827,0.08270091777651625
20.977224,5.598018893993454,0.08247613438139333
20.9796,5.595089419402997,0.08221028948369852
20.981996,5.598166247051791,0.08188796547650366
20.984384,5.599520513207888,0.08156913964872509
20.986776,5.600083383431066,0.08124637940692397
20.98918,5.6049299944008,0.08087168721314128
20.991568,5.6094970661168135,0.08051366868839967
20.993948,5.6160662385792435,0.0801344761129468
20.996352,5.616489339175562,0.07982001120373892
20.99874,5.617191979025603,0.07948999582819957
21.00112,5.620967654808697,0.07912979930488638
21.00352,5.621810064285596,0.07879148675481311
21.005908,5.6223729345087765,0.07846866642108749
21.008288,5.626008840665011,0.07811457482916484
21.010684,5.631926386821383,0.07772727192753459
21.013072,5.639566494470451,0.07734050923338502
21.015452,5.64734637174638,0.07694723295951299
21.017856,5.652053213089253,0.0765840406663603
21.020244,5.665327535925235,0.07612148850787581
21.022624,5.675528822828161,0.07568303793195463
21.025016,5.679723807491837,0.07529610866948053
21.027404,5.677912489916262,0.0749605461894163
21.029784,5.670234639728297,0.07466975413759883
21.03218,5.662277250286611,0.07439396296646136
21.034568,5.655902652710762,0.07412425844301239
21.036948,5.644173379201719,0.07391697740430815
21.039344,5.633515040879314,0.07369725831194686
21.041732,5.625929738489968,0.07344863482701872
21.044112,5.61862397535434,0.07318176792188781
21.046516,5.611830068897908,0.07293472377634902
21.048904,5.601683587254703,0.072732313666474
21.051284000000003,5.595401537477471,0.0725043305618739
