Time,Force,Position
19.283464,0.037043444394687305,0.0
19.285848,0.02884511847198854,0.0
19.288244,0.02050702292242956,0.0
19.290632,0.014450567373007851,0.0
19.293012,0.009465047010224673,0.0
19.295412,0.004759065901161916,0.0
19.2978,0.0011240199787376885,0.0
19.30018,0.0011240199787376885,0.0
19.302576,0.0007017796162290548,0.0
19.304964,0.0,0.0
19.307344,0.0,0.0
19.30974,0.0,0.0
19.312128,0.0,0.0
19.314524,0.0,0.0
19.316924,0.0,0.0
19.319312,0.0,0.0
19.321692,0.0,0.0
19.324088,0.0,0.0
19.32648,0.0,0.0
19.32886,0.0,0.0
19.33126,0.0,0.0
19.333648,0.0,0.0
19.336028,0.0,0.0
19.338424,0.0,0.0
19.340812,0.0,0.0
19.343196,0.0,0.0
19.345592,0.0,0.0
19.34798,0.0,0.0
19.350364,0.0,0.0
19.35276,0.0,0.0
19.355148,0.0,0.0
19.357528,0.0,0.0
19.359928,0.0,0.0
19.362316,0.0,0.0
19.3647,0.0018199366311107362,0.0
19.367096,0.006712909195276854,0.0
19.369488,0.00839307619952738,0.0
19.371868,0.010073243203777907,0.0
19.374264,0.010073243203777907,0.0
19.376652,0.010073243203777907,0.0
19.379036,0.010073243203777907,0.0
19.381432,0.010073243203777907,0.0
19.38382,0.010073243203777907,0.0
19.3862,0.010073243203777907,0.0
19.388596,0.010073243203777907,0.0
19.390984,0.010073243203777907,0.0
19.393368,0.010073243203777907,0.0
19.395764,0.010073243203777907,0.0
19.398152,0.010073243203777907,0.0
19.400532,0.010073243203777909,0.0
19.402932,0.010073243203777909,0.0
19.40532,0.010073243203777909,0.0
19.4077,0.010073243203777909,0.0
19.4101,0.010073243203777909,0.0
19.412488,0.008253306572667173,0.0
19.414868,0.0033603340085010527,0.0
19.417264,0.0016801670042505264,0.0
19.419652,0.0,0.0
19.422032,0.0,0.0
19.424428,0.0,0.0
19.426816,0.0,0.0
19.429196,0.0,0.0
19.431596,0.002751102190889057,0.0
19.43398,0.0053624347549179035,0.0
19.436376,0.01197796881178045,0.0
19.438776,0.022597704361476702,0.0
19.441164,0.02907346879147904,0.0
19.443548,0.03275573654214642,0.0
19.445944,0.03750893947945233,0.0
19.448332,0.045195408722953405,0.0
19.450716,0.05274210833959428,0.0
19.453112,0.058146937582958094,0.0
19.4555,0.0603389612664063,0.0
19.457884,0.06052888420343767,0.0
19.46028,0.06052888420343767,0.0
19.462668,0.06052888420343767,0.0
19.465048,0.06052888420343767,0.0
19.467444,0.06052888420343767,0.0
19.469832,0.06052888420343767,0.0
19.472216,0.06052888420343767,0.0
19.474612,0.06052888420343767,0.0
19.477,0.06052888420343767,0.0
19.47938,0.05777778201254861,0.0
19.481776,0.05516644944851976,0.0
19.484164,0.048550915391657214,0.0
19.486548,0.03793117984196096,0.0
19.488944,0.03145541541195863,0.0
19.491332,0.02777314766129125,0.0
19.493712,0.02301994472398534,0.0
19.496112,0.01533347548048426,0.0
19.498496,0.007786775863843389,0.0
19.50088,0.0023819466204795807,0.0
19.50328,0.00018992293703136494,0.0
19.505668,0.0,0.0
19.508048,0.0,0.0
19.510444,0.0,0.0
19.512836,0.0,0.0
19.515216,5.015331017115469e-05,0.0
19.517616,0.0003798458740627295,0.0
19.520004,0.0037825743710096864,0.0
19.522388,0.008256238054595173,0.0
19.524784,0.008256238054595173,0.0
19.527172,0.008256238054595173,0.0
19.529556,0.008306391364766328,0.0
19.531952,0.009427479861576013,0.0
19.534344,0.01161950354502423,0.0
19.536724,0.016605023907807406,0.0
19.539124,0.022521709830368906,0.0
19.541512,0.03230282761890389,0.0
19.543892,0.04101301022080035,0.0
19.546288,0.048512488009198065,0.0
19.54868,0.051076598744983756,0.0
19.55106,0.05163860873435261,0.0
19.55346,0.05648435947027558,0.0
19.555848,0.0633322109526154,0.0
19.558228,0.06752633538248046,0.0
19.560628,0.07064952462570699,0.0
19.563016,0.07358279093190216,0.0
19.5654,0.07903001466371187,0.0
19.567796,0.07926233208918915,0.0
19.570184,0.07749254876824956,0.0
19.572568,0.07940503319797736,0.0
19.574964,0.07959495613500872,0.0
19.577352,0.07954480282483757,0.0
19.579736,0.07842371432802789,0.0
19.582132,0.07623169064457969,0.0
19.58452,0.0712461702817965,0.0
19.586904,0.06532948435923501,0.0
19.5893,0.05554836657070001,0.0
19.591688,0.04683818396880355,0.0
19.594068,0.03933870618040584,0.0
19.596468,0.03677459544462014,0.0
19.598856,0.036212585455251294,0.0
19.601236,0.03136683471932833,0.0
19.603632,0.024518983236988513,0.0
19.60602,0.020324858807123446,0.0
19.608404,0.017201669563896908,0.0
19.6108,0.01421824994753058,0.0
19.613188,0.008441333651829292,0.0
19.615572,0.004806287729405067,0.0
19.617968,0.002102407366759161,0.0
19.620356,0.00018992293703136494,0.0
19.62274,0.0,0.0
19.625136,0.0,0.0
19.627524,0.0038220373775275872,0.0
19.629904,0.010577341061250346,0.0
19.6323,0.01719287511811289,0.0
19.634688,0.023808409174975443,0.0
19.637084,0.02749067692564282,0.0
19.639484,0.029962239862811456,0.0
19.641872,0.029962239862811452,0.0
19.644256,0.029962239862811456,0.0
19.646652,0.029962239862811456,0.0
19.64904,0.029962239862811456,0.0
19.651424,0.029962239862811456,0.0
19.65382,0.029962239862811456,0.0
19.656208,0.029962239862811456,0.0
19.658592,0.03247344119674627,0.0
19.660988,0.04769230342774477,0.0
19.663376,0.07380371726449345,0.0
19.66576,0.10591953748262342,0.0
19.668156,0.141478584828277,0.0
19.670544,0.1833669037794063,0.011667541832068242
19.672924,0.23596078288118236,0.022614111777089153
19.675324,0.29506609770374015,0.03300138556939515
19.677712,0.3586855748404601,0.043124053523726634
19.680096,0.42965993279892034,0.052923537880663465
19.682492,0.5065914753105187,0.06278240677947011
19.68488,0.5974413835326795,0.07237968006299239
19.687264,0.7010461744801472,0.0816559015958101
19.689664,0.8167118273584177,0.09067995659374646
19.692052,0.935728159565595,0.09979223863317072
19.694436,1.0620521507662692,0.10885588507921924
19.696836,1.1995010109981712,0.11778152286702637
19.699224,1.3545003513811316,0.12624495982320735
19.701608,1.5212780829592465,0.13439033523972924
19.704004,1.6918276986047178,0.1423247139696963
19.706392,1.8536747150797697,0.15035572732918914
19.708776,1.9955045158063918,0.15863590278985062
19.711176,2.124299894553986,0.16702379792881095
19.713564,2.2490929676666167,0.17532223890791215
19.715948,2.373143762532441,0.183443999471556
19.718344,2.486116910195281,0.17999453040442692
19.720732,2.5824254172964665,0.1774440455793604
19.723116,2.666026263500589,0.17550819657865901
19.725516,2.7403173499647977,0.1739148804934408
19.727904,2.806322390047488,0.17270470908216384
19.730288,2.861993957031868,0.17160041112115595
19.732688,2.9010934312532113,0.17102346797403636
19.735076,2.927438022749248,0.17085899252401923
19.73746,2.946707272677264,0.17085189577973567
19.739856,2.9671419014484055,0.17055687817536466
19.742244,2.9813398064126884,0.17024702959683666
19.744628,2.981759115293269,0.17018270209472805
19.747024,2.9629053825300944,0.1706473383822332
19.749412,2.9312023233851274,0.17149694076894323
19.751796,2.89758971129236,0.17246782220838605
19.754192,2.872729676289935,0.17314933868903304
19.75658,2.8577403753927335,0.17339591218507516
19.758964,2.843682240055311,0.17361646933716118
19.76136,2.828505947703006,0.1739886929586917
19.763748,2.8151447646420156,0.17435787833859132
19.766132,2.8083942882980915,0.1745541401212202
19.76854,2.8111877849774265,0.1744436856324644
19.770928,2.816448017254132,0.17435509364183518
19.773312,2.8290178043822047,0.17399493130151086
19.775712,2.8433101530029736,0.17357687982655326
19.778104,2.8649120564751094,0.17287556151767433
19.78048,2.894242823679191,0.17180907169886345
19.782876,2.923713360510133,0.1707005432760274
19.785264,2.9503904006617416,0.16972179158160333
19.78764,2.9701299730143207,0.16907988161368678
19.790056,2.987727674993623,0.1685534937367047
19.792448,3.0073274777193415,0.16791775690750727
19.794827999999995,3.028510072310896,0.16723342544960176
19.79724,3.054348494701343,0.16636465830447322
19.799628,3.07869667302457,0.16562308368534162
19.802008,3.103137399146414,0.16499337669291955
19.804404,3.128741608253514,0.16442316281243746
19.806792,3.156347918107031,0.16375726510941843
19.809172,3.186794946468126,0.1629092140390197
19.811584,3.214308708523026,0.16221499458182048
19.813972,3.246757837630538,0.16137149869425182
19.816352,3.275901613379517,0.16062610637171967
19.818764,3.309516121330154,0.15961080444902956
19.821152,3.3374038662952596,0.158818700861888
19.823548,3.366502316073865,0.1579749353798733
19.825944,3.398394262531805,0.1570920864407261
19.828328,3.431217374549523,0.1562128645215359
19.830708,3.470326328060213,0.15512225871938715
19.833112,3.5067815545184273,0.15407384133127416
19.835496,3.548311917656114,0.15283775143701245
19.837876,3.593566943032915,0.15150039995820838
19.84028,3.641196156208469,0.15013712314492503
19.842668,3.689244678264604,0.14872969798051935
19.845048,3.732777142148708,0.147460018425578
19.847452,3.775937518980474,0.14615286397846172
19.84984,3.8181667302524622,0.1448992346995916
19.85222,3.857881984098836,0.14372631203678926
19.854616,3.8952230501464555,0.14258123637293954
19.857004,3.9244631654097897,0.14163139433975813
19.859384,3.9469055825009556,0.1408680407548061
19.861788,3.9611998269795943,0.1403941687708879
19.864172,3.9784273377644275,0.13984371963333728
19.866552,3.98922923742943,0.13952956165644415
19.868956,4.000729985228734,0.13914477903453304
19.871344,4.015024229707372,0.13870331621961357
19.873724,4.026105668626095,0.1383836412225898
19.87612,4.036116172358179,0.13810650174836578
19.878508,4.040399913104732,0.13797246934376817
19.880892,4.04989856015762,0.13768356653118055
19.883288,4.059816516091086,0.1373630072274771
19.885672,4.068011910531858,0.13707307796519183
19.888056,4.0756954482934304,0.13676778994911426
19.890452,4.081516654935447,0.13650029554731027
19.89284,4.087477631204323,0.136218560111113
19.89522,4.097954665645232,0.1358585707028614
19.89762,4.1101542615788365,0.13547997775066514
19.900004,4.120211987139164,0.13516432088136238
19.902388,4.134134144565465,0.1347646271678526
19.904788,4.152804677589274,0.13432002509290353
19.907176,4.183208275837864,0.13359889936793715
19.909556,4.217895614833008,0.13275525696961404
19.91196,4.250441083454875,0.1319920258559209
19.914348,4.284057487263382,0.13118950124157958
19.916728,4.315624568497228,0.13050020898582337
19.919124,4.342907908984519,0.1299465990052276
19.921512,4.368328918352255,0.12943494236774156
19.923892,4.39361015809313,0.128944773448303
19.926296,4.421125816005899,0.12845335767558846
19.928684,4.449525417650203,0.12802210787085236
19.931064,4.477226171160206,0.12766019935012438
19.933468,4.507580651722684,0.12726813547640028
19.935856,4.540449089710776,0.1268614227607773
19.938236,4.57755404661718,0.1264110258742182
19.94064,4.616893421695477,0.12595771086584823
19.943028,4.650506033788245,0.12561723541277076
19.945408,4.679882126962701,0.12532645571892112
19.947812,4.7111205512567125,0.1250042351143708
19.950196,4.7408687314835065,0.1247484888628756
19.95258,4.771455529471462,0.12442796903649544
19.954976,4.796595103727609,0.12419947207910988
19.957364,4.820943282050836,0.12398270412807968
19.959744,4.842218424441008,0.1238297368895721
19.96214,4.865076358697015,0.12366905639202751
19.964524,4.890635241833741,0.12341266049754684
19.966908,4.9150306419852114,0.1231301873256911
19.969304,4.935469062472093,0.12286485499974535
19.971692,4.9524623599735795,0.12263825891797622
19.974072,4.960935397810201,0.12255250817296534
19.976476,4.9626579593028985,0.12253304919099592
19.978864,4.957490274824808,0.12259227221485225
19.981244,4.945152805122212,0.12275250143352688
19.983644,4.92685625500861,0.12297355997770497
19.986032,4.902181315603419,0.12329266695148348
19.988408,4.874480562093416,0.12361910342484642
19.990816,4.847478656717714,0.12389263342203002
19.993204,4.821407916901791,0.12415064651776787
19.995584,4.794545781152947,0.12441099819958254
19.997988,4.765029918351632,0.12470898209315573
20.000372,4.732441019617261,0.12507587116821087
20.002756,4.698129559390193,0.12546007649328703
20.005151999999995,4.657811796923872,0.12597468766075295
20.00754,4.620567070390608,0.12642202063913746
20.00992,4.584952357551424,0.12678912091985384
20.012316,4.547475313592685,0.12718510384600318
20.014704,4.510277808887664,0.12755892828453505
20.017084,4.480389859034009,0.12781701236970183
20.019488,4.450082600299774,0.1281136748899779
20.021876,4.428854679737846,0.1282205114776037
20.024256,4.41256212622853,0.1282270364564757
20.026652,4.401065170144964,0.1281444130196033
20.02904,4.396365912233568,0.12792745666842345
20.031424,4.394972007680703,0.12768060631287065
20.03382,4.40051557092687,0.12728858045188118
20.036208,4.411785897158564,0.1267951059694859
20.038588,4.4217057489499005,0.1263485680227967
20.040984,4.429763269621681,0.12593177648157586
20.043368,4.435958459173904,0.125544988257362
20.045748,4.4453664542860425,0.1250762078428189
20.048152,4.45691631977146,0.12455076106801431
20.050536,4.467255480443376,0.12406093131375501
20.05292,4.482669777794766,0.12345110937265227
20.055316,4.493428247347262,0.12291881765111058
20.057704,4.500042745780068,0.12248869532722159
20.060088,4.50772817939951,0.12203048588893041
20.062484,4.515134073765231,0.12159465945520417
20.064872,4.516952974772283,0.12125797867881342
20.067252,4.518260019100137,0.1208983643958328
20.069652,4.518635897868213,0.1205578819025568
20.07204,4.516869906263012,0.12027250318973083
20.07442,4.517106015404227,0.11994606002494075
20.076824,4.511335822306193,0.1197464094252983
20.079208,4.502632362901963,0.1196040550637665
20.081592,4.488993536445121,0.11955985996256745
20.083988,4.467346307002611,0.11968216953035786
20.086376,4.448772113493157,0.11973573932961859
20.088756,4.434993517409454,0.11970061829960314
20.091152,4.42321702207217,0.11962372433697654
20.09354,4.412092153040942,0.11955300445520159
20.09592,4.402829615129272,0.11945184487048394
20.09832,4.396640113150657,0.11928435417580101
20.100704,4.388308740798764,0.11916804484670959
20.103088,4.384493426618903,0.11899004786612594
20.105484,4.383331839491516,0.11877925661457335
20.107868,4.381099317177492,0.11859413381382955
20.110264,4.378587255609745,0.11843122201170705
20.112668,4.3767268203480585,0.11827563838723029
20.115056,4.377520112138845,0.11808595171262934
20.117436,4.376962929489274,0.11794626016845128
20.119832,4.378268077959258,0.11777713440624299
20.12222,4.377151816802246,0.11768379115682497
20.1246,4.380970922697847,0.11749456238107765
20.126996,4.387863064526502,0.11723846213844527
20.129388,4.396477767847853,0.11696320028982171
20.131768,4.40816550710226,0.11661513857868075
20.134164,4.420784411916445,0.11625743750692685
20.136552,4.428607719304879,0.11598656475414343
20.138932,4.436151487439592,0.11573920901412284
20.141332,4.439970593335191,0.11555010695284815
20.14372,4.441647828857514,0.11541359513674583
20.1461,4.44025202844678,0.1153424044321149
20.148496,4.438204601729989,0.11526230633337377
20.150884,4.440440915759753,0.11508210244597623
20.153264,4.438952567550403,0.11495703192074906
20.155668,4.439326550460609,0.11480406443175244
20.158056,4.441051007811176,0.11460286149874098
20.16044,4.443846400348379,0.11437592400406899
20.162836,4.451437390311336,0.1140727481022808
20.165224,4.459168149901151,0.11375867158816207
20.167604,4.4668989094909675,0.1134469408935708
20.17,4.47798224426756,0.11305450775705578
20.172388,4.484921607924457,0.11274844676063622
20.174768,4.4887879356483005,0.11250377458252073
20.177168,4.495867068932059,0.11218974284116928
20.179552,4.5058794685220125,0.11182789135844318
20.181936,4.515891868111966,0.11147144639544652
20.184332,4.529628929941033,0.11106562301568217
20.18672,4.54350576139696,0.11064949895707052
20.189116,4.560036319905363,0.1102057593466493
20.191512,4.57377338173443,0.10979601740824797
20.1939,4.59151464505633,0.10931493260185501
20.19628,4.613771966550262,0.1087850354706779
20.198676,4.628812280991443,0.10840181342365254
20.201064,4.648648192858378,0.10794557044818015
20.203444,4.66941527028509,0.10748267527150768
20.205848,4.691765139577639,0.10702104930960657
20.208236,4.7158375703628845,0.10654975901232455
20.21062,4.73311230297596,0.10618706675753545
20.213016,4.750247265962177,0.10583527511507693
20.215404,4.765380128201977,0.10551757251616917
20.217784,4.777439954508722,0.10525919199331171
20.22018,4.796716787868215,0.10487490946580968
20.222567999999995,4.82078921865346,0.10442642429100102
20.224952,4.841788613505651,0.1040377352263984
20.227356,4.863579404290759,0.10365603492377193
20.22974,4.881086454329313,0.10335674814682148
20.23212,4.89673117324831,0.10308119518903591
20.234516,4.9162403240332795,0.10275931992881601
20.236908,4.935889244445111,0.10243016090102146
20.239288,4.964337963775528,0.10198605278987526
20.241684,4.992507143852225,0.10156805047284481
20.244072,5.0177430576227255,0.10119336674588318
20.246456,5.044701532885924,0.10080446104439236
20.248852,5.070589072962483,0.10043913538584731
20.25124,5.096756152292762,0.10006186399846802
20.25362,5.121060900503483,0.09970578847294631
20.25602,5.142711921661731,0.09937007369713932
20.258404,5.167156439499313,0.09900515460764917
20.260788,5.191600957336897,0.09864023551815901
20.263183999999995,5.2209808422270925,0.09821462760172044
20.265572,5.2490102526769284,0.09782447594781407
20.267952,5.269682886447155,0.09755900434444822
20.270351999999995,5.290355520217381,0.09729936040232684
20.27274,5.3096776795472485,0.09707492334111445
20.27512,5.324995637384282,0.09690573878369697
20.27752,5.345528501527648,0.0966563918052783
20.279908,5.365781826417293,0.09642525777833487
20.282288,5.37895791388105,0.09629297314731176
20.284688,5.3921340013448065,0.0961621099483691
20.287076,5.400234952129091,0.09610395938222555
20.28946,5.408615442167096,0.09602939062811343
20.291864,5.418998032951518,0.09593028394589491
20.294248,5.435946004482632,0.09572500230042773
20.296632,5.45024024896127,0.09553485732616436
20.299028,5.461181918253133,0.09540424662578478
20.301416,5.473194522731634,0.09525768518349238
20.303796,5.488931789449248,0.09508108189348115
20.306192,5.509092566540278,0.09483619874023355
20.30858,5.531255444377723,0.09456949508071463
20.31096,5.545689458483221,0.09438053975179546
20.313356,5.561753486282799,0.09414166389373188
20.315744,5.581170089269153,0.09384571659037454
20.318128,5.594859929269976,0.0936037677214511
20.320524,5.610040013338019,0.09331983909223962
20.322912,5.626850111100141,0.09298627063808121
20.325308,5.640866712182929,0.09267856690256404
20.327704,5.656373557332935,0.09233128350419766
20.330092,5.678166243975912,0.09189837937964185
20.332472,5.697165433939555,0.09148736972226268
20.334868,5.712439961664084,0.09110401055382825
20.337256,5.721708187149362,0.0907889694820457
20.33964,5.729253851141944,0.09048205404468972
20.342036,5.7281394858428,0.09025876204059594
20.344424,5.729818617222993,0.0900139965108716
20.346804,5.732987992670403,0.08972863817033741
20.3492,5.735645511438616,0.08942648778794379
20.351588,5.736860007967853,0.08911598932588916
20.353972,5.728855396697925,0.08891574446357646
20.356376,5.71926799356216,0.08871264919041079
20.358764,5.715547123038784,0.08845298091139679
20.361144,5.71154671326169,0.08820961423075609
20.363544,5.706615137924817,0.08797308146989427
20.365928,5.707969404080914,0.08765767178136913
20.368312,5.709463439863871,0.08733467981032102
20.370708,5.710538166766248,0.08703630771581376
20.373096,5.709610792922209,0.0867577790340132
20.37548,5.708683419078169,0.08648045699054555
20.37788,5.700027181502182,0.08626735606263586
20.380268,5.692302109485973,0.08604722171405833
20.382652,5.687789843029679,0.08578338274327328
20.385048,5.689423648439498,0.08544934681719389
20.387436,5.6901262882895365,0.08512129991943872
20.38982,5.691480554445635,0.08480103375337572
20.39222,5.692183194295675,0.08447152685704432
20.394604,5.690604194145577,0.08417782180215153
20.396984,5.687674719555121,0.08391436725988324
20.399384,5.68046150421811,0.08370686024061887
20.401768,5.676461094441015,0.08345499322118015
20.404148,5.670318814290643,0.08323102032627716
20.40654,5.661243267834075,0.08303347749433668
20.408924,5.652307491004368,0.08282747596544507
20.411324,5.644442649361299,0.08260729451332655
20.41372,5.6310833621581775,0.08246491468715055
20.416104,5.619446636447753,0.08231869938836106
