Time,Force,Position
21.369768,0.033271651884805305,0.0
21.372156,0.03718172701799896,0.0
21.374536,0.04174500701827351,0.0
21.376932,0.044166416645270996,0.0
21.379316,0.04537712145876974,0.0
21.381696,0.050452258138241966,0.0
21.384112,0.05431669000421546,0.0
21.3865,0.05804135224332875,0.0
21.38888,0.06283694966908054,0.0
21.391284,0.06777231672169258,0.0
21.393672,0.07284745340116482,0.0
21.396052,0.08113539564055264,0.0
21.398448,0.09007496418599835,0.0
21.400832,0.10036342861078006,0.0
21.403216,0.11065189303556175,0.0
21.40562,0.1214537927005641,0.0
21.408004,0.1299740523654292,0.0
21.410384,0.14319578309640607,0.0
21.412788,0.15222789944046883,0.0
21.415172,0.1651700909177253,0.0
21.417556,0.17341081132886998,0.0
21.41996,0.17671616468740264,0.0
21.422343999999995,0.17736779099346053,0.0
21.424724,0.17815918692637867,0.0
21.42712,0.1821633884192124,0.0
21.429508,0.1824429276729328,0.0
21.431888,0.18300200618037363,0.0
21.434284,0.18584272468795174,0.0
21.436672,0.18239760170255886,0.0
21.439068,0.180395500956142,0.0
21.441472,0.17424942909003124,0.0
21.443856,0.1661012564775036,0.0
21.44624,0.16158519830547224,0.0
21.448644,0.15413587382724564,0.0
21.451028,0.14575538378924074,0.0
21.453408,0.13453575380468077,0.0
21.455804,0.1243870590067593,0.0
21.458192,0.11116532827578242,0.0
21.460572,0.10022523754494282,0.0
21.462976,0.08728304606768637,0.0
21.46536,0.07713435126976488,0.0
21.46774,0.06991892277803857,0.0
21.47014,0.0645658254058689,0.0
21.472528,0.05921272803369922,0.0
21.474908,0.05171776028825249,0.0
21.477304,0.04501418847572387,0.0
21.479692,0.03817084703633503,0.0
21.482072,0.028114700037030607,0.0
21.484472,0.022202524157420092,0.0
21.48686,0.015638721971751677,0.0
21.489239999999995,0.012147955719138643,0.0
21.491636,0.009588355026303931,0.0
21.494024,0.004747114333331946,0.0
21.496404,0.0019079743867768126,0.0
21.4988,0.0,0.0
21.501188,0.0,0.0
21.503572,0.009260959350647831,0.0
21.505968,0.025457490642455293,0.0
21.508356,0.04989284648753818,0.0
21.510736,0.08172840912473525,0.0
21.513136,0.12655117191271642,0.008045391012187191
21.515524,0.1833374214930863,0.015656866879144537
21.517904,0.248642034880452,0.02318295609949276
21.520304,0.3132459042756474,0.03155559581719914
21.522688,0.38259625341048226,0.04028558926358329
21.525072,0.46321124120340473,0.04878998967164201
21.527476,0.5563015724679137,0.05700299887890538
21.52986,0.6614951601516715,0.06493555043728921
21.532244,0.7701319749629529,0.07310659214123974
21.53464,0.8837948087675942,0.08145392673412762
21.537023999999995,1.0097932164169618,0.08962434762832494
21.539408,1.1462648667914987,0.09772619423360251
21.541804,1.288833471346034,0.1059138482925541
21.544191999999995,1.4431332452674808,0.11387326644403346
21.546572,1.6034374255703092,0.12184112631077176
21.548972,1.7726792785607137,0.12970807106484752
21.551359999999995,1.9372215563428759,0.13759612352384634
21.553756,2.1006475729680254,0.14536320769824984
21.556152,2.257045469853399,0.15307174027903706
21.55854,2.405950612148041,0.1607151419566656
21.56092,2.537492265746727,0.1604201323249367
21.563316,2.6566511236724444,0.16060664313766687
21.565704,2.770876510403419,0.16078209814563568
21.568084,2.8920884826195343,0.1598765967911765
21.570488,3.0112549239767286,0.15847606364076802
21.572876,3.1185051003697772,0.15729646953689058
21.575256,3.2092757317984058,0.15653779649271163
21.577656,3.288734502740703,0.15604897931297787
21.580044,3.365541442488395,0.15531116069115528
21.582424,3.4417458736161413,0.15422591626082224
21.584828,3.502169607913769,0.1533855466459558
21.587216,3.552399638739947,0.152584472271587
21.589596,3.5994659816923225,0.1516109773484992
21.591992,3.6317281193447304,0.15096695998440887
21.59438,3.6564030587499214,0.1503344782042605
21.596764,3.669626368041921,0.1498485337963581
21.59916,3.672701299832846,0.14949887652010324
21.601548,3.6688859856529854,0.1493131257862781
21.603924,3.6655825281523224,0.1491471464252739
21.606332,3.661300683263637,0.1490891028983777
21.608716,3.660603730987205,0.14893581396891054
21.611096,3.658603526098658,0.1487746552565603
21.613496,3.6488744574781626,0.14887390148839277
21.615884,3.6308574466182804,0.14928419720941372
21.618264,3.608137386131263,0.1499106656626391
21.620668,3.583415224897829,0.1506196658784336
21.623056,3.5629768044109498,0.15116448266365312
21.625436,3.539884656871595,0.15178446606801654
21.62784,3.517072048585961,0.15236508445077854
21.630227999999995,3.4869026636207168,0.1532327827631433
21.632608,3.4612493368275046,0.153981625758826
21.635004,3.4345250748476537,0.1547750744487977
21.637392,3.4017945106285525,0.15579275060172196
21.639772,3.377863745328037,0.15649119127922295
21.642168,3.3575178726397734,0.1570889464146388
21.644556,3.3426192236833208,0.15753198975606503
21.64694,3.3363806040185926,0.15769596639017278
21.649336,3.3293505884209464,0.15787553401403387
21.651724,3.318595910584187,0.15817051707935473
21.654104,3.309424024613264,0.15844270515199688
21.656504,3.303045635321676,0.15862651876740913
21.658892,3.300391908269201,0.15869574829409674
21.661272,3.301882152336421,0.15860101532797205
21.663672,3.30895938976231,0.15833251420133881
21.66606,3.3168280231211176,0.1580453841221139
21.668444,3.3290729450250955,0.15764026342569903
21.67084,3.3410383276753537,0.15726979630095597
21.673228,3.3567283725647252,0.1567798071522138
21.675612,3.3719991085735157,0.15634371424116228
21.678011999999995,3.394719169060533,0.15567464668493797
21.6804,3.418090855853608,0.15502021361334556
21.68278,3.442114168952741,0.15436538002899142
21.685179999999995,3.4721437842911236,0.15348289246448793
21.687564,3.4935133703377823,0.1529084383361243
21.689948,3.5126013163843033,0.15244461284900748
21.69234,3.5307580968710455,0.1520242036657095
21.694728,3.543979510305176,0.1517761680119422
21.697108,3.560273959672362,0.15141443837499563
21.699504,3.580712380159242,0.1508970220043707
21.701892,3.6030603535939214,0.15025363491686003
21.704276,3.624616931095683,0.1496349159031216
21.706676,3.642448846358331,0.14912363079654128
21.709064,3.662422631994256,0.14853725761796005
21.711444,3.6790910642716486,0.14801977719815343
21.713848,3.700974402855374,0.14732542139614851
21.716236,3.7243479855063186,0.14656635583117678
21.718616,3.7490720425976223,0.1457464724149443
21.72102,3.7723530774499494,0.14494174637904098
21.723404,3.797915752302414,0.14405994078116502
21.725788,3.819102138609708,0.14328217392600284
21.728184,3.8408476034244416,0.1424633995096247
21.730568,3.861150046000201,0.14164228835663437
21.732948,3.8767966607770665,0.14093701256811864
21.735348,3.895236772233268,0.14015472489761613
21.737736,3.9188917899958016,0.13922144347658497
21.740116,3.9406844766387787,0.13834119894264943
21.742512,3.963687868095255,0.13740348706249783
21.7449,3.9856203243650925,0.13650828542899984
21.74728,4.006202306194571,0.1356863337954522
21.749688,4.0222210080237755,0.1350329223380738
21.752072,4.039031105785897,0.13438150592290796
21.754456,4.058774469854215,0.13365409341902273
21.756856,4.076655502802976,0.13297678504481303
21.759243999999995,4.096119327617572,0.132292013771014
21.761624,4.110508015752697,0.1317544367095782
21.764028,4.1191699409022915,0.13135092510295648
21.766411999999995,4.126760930865248,0.13098307551261154
21.768792,4.131930511201206,0.13070431175755184
21.771192,4.132584033365134,0.13051031324008788
21.773576,4.129512893289947,0.1303924759071794
21.77596,4.122437551721927,0.1303777301691493
21.778364,4.116293375713687,0.1303435542577298
21.780748,4.110009430078584,0.13032329703130366
21.783128,4.105075958883841,0.130243411721626
21.785532,4.089340588024097,0.13043386316538658
21.78792,4.069740785298378,0.13072274415904755
21.7903,4.0517237744384955,0.1309966252676782
21.7927,4.032356289138255,0.13133328821014809
21.795088,4.008193206412261,0.13179488606276638
21.797468,3.985380598126627,0.13220247066787283
21.799864,3.9556305220419636,0.13280979583534308
21.802252,3.924390201890082,0.1334909732100734
21.804636,3.8936617384173964,0.1341875186755623
21.807032,3.85785813826524,0.13504169124565576
21.809416,3.8260587396059176,0.1357741335096826
21.811796,3.8003581909844613,0.1363944563655125
21.8142,3.7718169238554276,0.13716399719615432
21.816584,3.747931484525286,0.13782525243159904
21.818964,3.727351398553677,0.1384413255157866
21.82136,3.714732493739491,0.1389060574894343
21.823748,3.7052791726569785,0.13934204923327317
21.826128,3.698991435306138,0.13974553738006984
21.828524,3.698150921687108,0.14003559060419096
21.830912,3.697822264747275,0.14034315942813
21.833296,3.709086903405363,0.14036475914184218
21.835692,3.7285922624745953,0.14021570899646443
21.83808,3.7478180822901077,0.14009471289479108
21.840475999999995,3.77305020434487,0.13981775861177836
21.842872,3.8052197941986607,0.13935557897879527
21.84526,3.8419054422244834,0.13881527723942688
21.84764,3.887530658795752,0.13803473404219893
21.850044,3.935577284994018,0.1371682457346031
21.852432,3.9828325152593655,0.13631137327857398
21.854811999999995,4.0363735870176845,0.13526251933559635
21.857216,4.0860502269100305,0.1343208002285967
21.859604,4.1310710390034835,0.13348905906770048
21.861984,4.1820056055375705,0.13244153243819126
21.86438,4.23256808501932,0.13138965243409464
21.866768,4.282478938195012,0.1303455130909992
21.869148,4.330015603571949,0.12934960533839107
21.871544,4.376388785963631,0.12833496108420273
21.873928,4.421318946116337,0.1273346846012559
21.876312,4.463874918470289,0.1263726963909796
21.878708,4.503777163771765,0.12545375105110226
21.881096,4.537952646087712,0.12467151142017953
21.883476,4.567891609485348,0.12395270492642667
21.885872,4.598669190644145,0.12317125481943164
21.888259999999995,4.623068382511355,0.12250168861472038
21.89064,4.648678279192063,0.12181280341838933
21.893048,4.670843052887378,0.12117261630253812
21.895432,4.688212229156941,0.12062555879918262
21.897816,4.703579304680086,0.12012355837845379
21.900212,4.722019416136287,0.11956223801087729
21.9026,4.735524160539876,0.11909651020707834
21.90498,4.7511707753167425,0.11858175282098245
21.907376,4.768167864533969,0.1180193214946463
21.909764,4.781952148191278,0.1175383449040557
21.912144,4.789730129609339,0.1171716530444674
21.914544,4.79657694546762,0.11682025164108788
21.916928,4.7976969983403706,0.11656112848323058
21.919312,4.794812849720287,0.11637767327328101
21.921707999999995,4.789274974047729,0.11622499954259413
21.924096,4.781734997628755,0.1161106903621716
21.92648,4.776476661209918,0.11593593655781567
21.928875999999995,4.7696355329252444,0.11576675393135091
21.931264,4.759581599080655,0.11567184368507658
21.933644,4.748037421168847,0.11563328858080375
21.936043999999995,4.735422308070401,0.11562035300061221
21.938432,4.716940662359565,0.11571057391348345
21.940828,4.699390182208506,0.11578450517857117
21.943224,4.681699932430588,0.11587023440604176
21.945612,4.662007581906252,0.11599567420553393
21.947992,4.637519633956163,0.11619863725193488
21.950392,4.614102621192716,0.11637946714282214
21.952776,4.591477004362185,0.11655248787099791
21.95516,4.567780452345015,0.11674933665041386
21.957556,4.542873195514346,0.11698286170129119
21.959944,4.523552932042349,0.11713579179186547
21.962323999999995,4.505024064503268,0.11728452256174694
21.964728,4.489288693643524,0.11739555707358246
21.96712,4.483144517635282,0.11734428830690932
21.9695,4.4803056949855735,0.11727067730383851
21.971896,4.478118498641923,0.11720514617337834
21.974284,4.478305490097025,0.11713193581643035
21.976668,4.481006438977743,0.11703988350326683
21.979064,4.486640654164655,0.1168949823254242
21.981452,4.496139301217542,0.11668749034568635
21.983836,4.510945402375378,0.11642091101271046
21.986232,4.530267561705245,0.11609949501082756
21.98862,4.548099476967894,0.11583579306077935
21.991,4.571658155216072,0.1154871709667192
21.993396,4.599872661263142,0.11507425392457434
21.995784,4.628599023989411,0.11467467886451504
21.998168,4.6587684089546535,0.11427992923245325
22.000564,4.684933592427064,0.11396010960293096
22.002948,4.713472963698229,0.11363330737242953
22.005332,4.744945601275589,0.11325656786778614
22.007728,4.77534730366631,0.11290773352503945
22.010116,4.80681994124367,0.11254065644945542
22.0125,4.843088176246781,0.11210429865545568
22.014896,4.87442104419728,0.11176521692172642
22.017284,4.908035552147917,0.11138061212582452
22.019664,4.944723096031609,0.11094431074945933
22.022068,4.975823646556631,0.11058296847935839
22.024456,5.006924197081652,0.11022446363619788
22.026836,5.043239653913007,0.10977849818761423
22.02924,5.072757412572193,0.1094343043314985
22.031628,5.099761213805764,0.10910833378733563
22.034008,5.126113388733278,0.10878118621793997
22.036404,5.154886973287788,0.10839580945194593
22.038792,5.179004730043408,0.1080719057551778
22.041172,5.203681565306467,0.10771892222242185
22.043568,5.230640040569665,0.10731630509489838
22.045956,5.26043923434044,0.1068346829136766
22.048336,5.293591003297991,0.10628470638267873
22.050732,5.330654425949759,0.10564516779890404
22.05312,5.363201790429495,0.10504561160304586
22.0555,5.397239398976452,0.10440599525479025
22.0579,5.428483510844073,0.10379903474017659
22.060288,5.455211564539661,0.10323804566452612
22.062684,5.478354725622997,0.1027043039167462
22.065088,5.495771123720804,0.10224076001776211
22.067476,5.511464960325914,0.10179248784175389
22.069856,5.5303716024909395,0.10128975929243014
22.07226,5.547555683163268,0.10079710706068847
22.074644,5.559524857529264,0.10039191543436995
22.077028,5.576848707828454,0.0998977591412202
22.079424,5.595243493314281,0.09938821974932412
22.081812,5.6076319765608575,0.09895696812196947
22.084192,5.616295797568321,0.09856246391312687
22.086588,5.62202635226959,0.09820139765848991
22.088975999999995,5.619329195104611,0.09797271248060073
22.09136,5.614909476446935,0.09775307017855295
22.093756,5.605135081856067,0.09762152963536727
22.09614,5.5929392776382,0.09754236692595919
22.09852,5.57031366080767,0.0976196741026826
22.10092,5.5547652814030295,0.09759928005733387
22.103304,5.535072930878694,0.09763838048112845
22.105684,5.514309645167719,0.09769563852147144
22.108084,5.4944775250165225,0.0977433702814037
22.110468,5.479441002291078,0.09773908008934167
22.112852,5.466406580312052,0.09770868363486049
22.115256,5.448436791280412,0.09773892552990492
22.117644,5.429396067062134,0.09778460784474954
22.120024,5.4143595443366905,0.09777742083880633
22.122428,5.396529524931911,0.09779619883977649
22.124816,5.376417865526996,0.09785569287903832
22.127196,5.352162235002385,0.09797535097201605
22.129596,5.332050575597469,0.09803664087269714
22.13198,5.311659376938832,0.09811669394194997
22.13436,5.295412149399889,0.09813578883005687
22.136764,5.286381928913695,0.09805094017717444
22.139152,5.2790742699202,0.09795751774633248
22.141532,5.275770812419535,0.09781195046318004
22.143932,5.276611326038566,0.09760631294668684
22.146316,5.284389307456625,0.09731269703657763
22.1487,5.284670742568213,0.09714209451847171
22.151095999999995,5.288025213612858,0.09692803596144049
22.153484,5.294312950963699,0.09667926248243018
22.155868,5.300321149060818,0.09644867980373312
22.158264,5.303396080851742,0.09625307497203953
22.160652,5.306051703762086,0.09608423311787304
22.163032,5.313642693725043,0.09585466954377414
22.165428,5.318952043687863,0.09566803685785578
22.167816,5.323190458464043,0.09550118062587884
22.170196,5.332364240292835,0.09527543519032816
22.172592,5.342469187681405,0.09504248877573158
22.17498,5.3605825380556436,0.09471130772229223
22.17736,5.380418449922578,0.09437572115758493
22.179764,5.404118793655486,0.0939998548593966
22.182148,5.4294019292542295,0.09363153712778925
22.184532,5.4526829641065575,0.09329071626879498
22.186936,5.475824229332025,0.09296073627546805
22.189324,5.496823624184215,0.092665568652575
22.191708,5.516100457543708,0.09238172969855524
22.194104,5.533514959783644,0.09211460303072687
22.196492,5.556004598703054,0.09178458668229608
22.198872,5.57942540318224,0.09145156796541634
22.201268,5.60205481172851,0.09111946728523625
22.203655999999995,5.625894925088278,0.09076531605782558
22.206036,5.651737139194464,0.09039010370215939
22.208436,5.675856791807952,0.09001836627549263
22.21082,5.700907609981219,0.08964418660470616
22.213204,5.73103356483396,0.08921187016434158
22.2156,5.7552929870743075,0.08883679711125524
22.217988,5.77755030856824,0.08848681205350684
22.220368,5.797945298942615,0.08815125433374592
22.222764,5.81275329595832,0.08786075932196782
22.225152,5.824907565921551,0.08758324161566897
22.227536,5.836270439951862,0.08730656020417493
22.229932,5.843117255810144,0.08705487072488745
22.23232,5.851314546108784,0.0867742031429053
22.234716,5.861141850101504,0.08645025098221011
22.237112,5.867524031108831,0.08613299754687237
22.2395,5.8697622409964625,0.0858637475802262
22.24188,5.871209054951176,0.08559247534605925
22.244276,5.869210745920499,0.08532991541873648
22.246664,5.863348005023847,0.08509957112080574
22.249044,5.857764803380915,0.08485318714458442
22.251448,5.850459040245289,0.08461054375920489
22.253836,5.839288845243687,0.08439856264583707
22.25622,5.828677728749526,0.08415331193091798
22.258616,5.816483820389529,0.08390377150636497
22.261004,5.801775954603917,0.08365555859179584
22.263384,5.789861585497641,0.08338893382997817
22.26578,5.776224654898668,0.08312483736495872
22.268168,5.76566076023275,0.08282779708017649
22.270548,5.752815225566694,0.08256425915423748
22.272948,5.738107359781084,0.08231040271143109
22.275336,5.720466227689277,0.08208081404694127
22.277716,5.7016143907839725,0.08187172028512169
22.280111999999995,5.681412079438308,0.08169148134025866
22.2825,5.655855092159452,0.08157806952706027
22.28488,5.635885098239265,0.08143010859737607
22.28728,5.6220611761851895,0.08121602775099596
22.289664,5.607445858198195,0.080997977551172
22.292048,5.597626137636954,0.08074428417125645
22.294444,5.589948287448988,0.08046290396152347
22.296832,5.579849027634024,0.08022338398578799
22.299216,5.572403494871535,0.0799760959565154
22.301612,5.569893329161659,0.07968635641416932
22.304,5.572830387183594,0.07937538971896595
22.30638,5.575348136324946,0.07908881716526404
22.30878,5.5743735406526636,0.07885588989280885
22.311168,5.576751520167157,0.07857701027122696
22.313552,5.583925097107402,0.07826701383887999
22.315948,5.587094472554813,0.07799263090368447
22.31834,5.595478754308556,0.07766294437571658
22.320716,5.608239324607471,0.07732512221972151
22.323132,5.625935261958998,0.07694982701583471
22.325516,5.648706335989996,0.07652776235311551
22.327896,5.669615078901438,0.07611414919155751
22.3303,5.689592656253102,0.07569929486120228
22.332688,5.710920708045125,0.07526301951719505
22.335068,5.726242457597897,0.07487961530478439
22.337468,5.744078164576285,0.07449898520699193
22.339856,5.754417325248203,0.07420445774160889
22.342236,5.762474845919982,0.07394203459459661
22.344636,5.776398899204152,0.07363885250574774
22.347024,5.787249916555266,0.07336555859980878
22.349404,5.797821394652661,0.07311076052604157
22.3518,5.805319836816999,0.07288692029597368
22.354184,5.8136096749142565,0.07266722728784772
22.356564,5.825903714504346,0.07241485088252152
22.358968,5.835916114094299,0.07219557652454098
22.361352,5.842064081818281,0.07200137271713312
22.363736,5.8472808839824815,0.07180961361426508
22.366132,5.849005341333048,0.07166844123474761
22.36852,5.850357711631276,0.07150169179354289
22.3709,5.846774714876892,0.07136929422957854
22.373304,5.843983114055427,0.07124160594974366
22.375692,5.844124779540157,0.0710954467465199
22.378072,5.854137179130109,0.07088482392244973
22.380468,5.859446529092928,0.07074121834585438
22.382856,5.86740960610822,0.07059389583618415
22.385236,5.875512452750375,0.0704401303708766
22.38764,5.892182780885635,0.07020011798662702
22.390024,5.9107154401404545,0.0699522545859239
22.392408,5.920448300476688,0.0697574636190751
22.394804,5.932462800813059,0.06953412162473756
22.397192,5.942475200403012,0.06932594262799713
22.399572,5.951556434433187,0.06912182060796362
