Time,Force,Position
20.85624,0.09833365219546755,0.0
20.85862,0.09777457368802672,0.0
20.861016,0.09321129368775218,0.0
20.863404,0.08929963999353553,0.0
20.865784,0.08129123700786813,0.0
20.86818,0.07058529209187571,0.0
20.870564,0.05787724642946645,0.0
20.872948,0.04637990558055593,0.0
20.875344,0.038886766224479105,0.0
20.877732,0.027249655748708367,0.0
20.880108,0.01831008720326264,0.0
20.882515999999995,0.01593589940450831,0.0
20.8849,0.01877661791208642,0.0
20.88728,0.024550602725859703,0.0
20.889683999999995,0.03288235984309778,0.0
20.892072,0.038001311400420276,0.0
20.894452,0.04484282445043919,0.0
20.896856,0.05489714306037371,0.0
20.89924,0.0614625238070651,0.0
20.90162,0.06309253750114448,0.0
20.904024,0.06779558712827922,0.0
20.906412,0.07263840638227419,0.0
20.908792,0.07361679377029566,0.0
20.911196,0.07459518115831713,0.0
20.91358,0.07594565559867608,0.0
20.91596,0.07706040566316487,0.0
20.918364,0.07803538610079344,0.0
20.920748,0.07887059691156181,0.0
20.923128,0.07887059691156181,0.0
20.925524,0.07887059691156181,0.0
20.927908,0.07817515572765366,0.0
20.930288,0.07519807454360825,0.0
20.932684,0.07101028854606406,0.0
20.935072,0.06482040180210305,0.0
20.937452,0.05648864468486497,0.0
20.939848,0.05136969312754248,0.0
20.942232,0.04452818007752356,0.0
20.944612,0.034473861467589045,0.0
20.947028,0.027352809163849703,0.0
20.949416,0.02386046435021369,0.0
20.951796,0.018505788417021034,0.0
20.9542,0.017295083603522294,0.0
20.956584,0.023813242521970535,0.0
20.958964,0.031402336627057305,0.0
20.96136,0.03712909961258744,0.0
20.963744,0.04457842409081401,0.0
20.966124,0.051096583009262245,0.0
20.968528,0.055752410808153845,0.0
20.970915999999995,0.0643164853508692,0.0
20.973296,0.07208916396066643,0.0
20.9757,0.08000161219732389,0.0
20.978088,0.08176798856787058,0.0
20.980468,0.0817679885678706,0.0
20.982864,0.0817679885678706,0.0
20.985248,0.08618430027515354,0.0
20.987628,0.0998631498941073,0.0
20.990032,0.12266476779787164,0.0
20.99242,0.15235473581455247,0.0
20.9948,0.1845567653989786,0.0
20.997204,0.21843564574038168,0.0
20.999588,0.25678146656770373,0.0
21.001972,0.2983835230674461,0.0120269118407237
21.004376,0.34473205930682776,0.02347589620866071
21.006764,0.39945918972634514,0.03425081305471479
21.00914,0.46470678469927523,0.04457947224169929
21.011548,0.5343287723595073,0.054945082345811656
21.013932,0.6177765779316847,0.06468765143030304
21.016312,0.7127685614156702,0.07424128339528063
21.018716,0.8109242327734588,0.08379808222769815
21.021104,0.914525232005188,0.09342277202296782
21.023484,1.0214296887375804,0.10322236980328457
21.02588,1.1513790711810845,0.11236719431521949
21.028268,1.2948259993620468,0.12118823721530919
21.030648,1.4469782828051079,0.1297895544797134
21.033044,1.5996496215934983,0.1381699558390596
21.035432,1.738821903551907,0.14667605273693723
21.037812,1.8632844238668351,0.1554138803050627
21.040208,1.981789759628625,0.16411187272067274
21.042596,2.0984346601287274,0.172809747911176
21.044976,2.211124476822109,0.18150774032678602
21.04738,2.319115035604094,0.19012686700527354
21.049764,2.4194730701684874,0.18671861941106838
21.052147999999995,2.508286926821073,0.1840293372314998
21.054544,2.586300779666525,0.18213813177842025
21.056932,2.657379060570818,0.18065027105974252
21.059312,2.7242227184146697,0.1790637917475863
21.061716,2.772864269801404,0.1783347330927888
21.064104,2.809030477716552,0.17795157392736774
21.06648,2.8421255455565144,0.1774703856129741
21.068888,2.8768053011201817,0.17666406485994232
21.071272,2.911114865489381,0.1755231218147283
21.073652,2.9240095178415477,0.17521833161603712
21.076048,2.922239734520608,0.17538512340557122
21.078436,2.910553891124071,0.17585754066314263
21.080816,2.8972380340334536,0.17644004640638228
21.08322,2.8923026669808416,0.17667148362426768
21.085604,2.89351337179434,0.17659225566493525
21.087988,2.890999414368726,0.1766729113405137
21.090384,2.8892768528760295,0.1767327787612849
21.092768,2.89309406291376,0.17665525274511729
21.095148,2.9033822100416953,0.17641892026654762
21.097544,2.917255249781884,0.17605990116917894
21.099931999999995,2.9369948221344626,0.1754422596785026
21.102328,2.960226739300677,0.17461882564391082
21.104732,2.9825274909071138,0.17384069900300952
21.107116,3.0066905736331067,0.1730139532896045
21.1095,3.0383029808373267,0.17187593185137212
21.111896,3.0751302943478787,0.17047356071047465
21.114284,3.105067361887645,0.16928388046357787
21.116664,3.1250411475235707,0.1684745570499168
21.11906,3.142733293159359,0.16781058120550169
21.121448,3.16387056178054,0.1670137182060046
21.123832,3.1891518015214144,0.16600363532345905
21.126228,3.217645846822205,0.16482943902549066
21.128616,3.2386905676447695,0.1639415965367419
21.130996,3.2570343395866153,0.16326673424838437
21.133392,3.280685565633411,0.16245399184679177
21.13578,3.309132389105957,0.16144682506663177
21.13816,3.3372071255261675,0.16041605168701673
21.140564,3.363746291908785,0.15937670810897211
21.142952,3.3841866082535335,0.15854407663336822
21.145332,3.402205514971285,0.15785006214882497
21.147724,3.4166395290767833,0.15726958567212126
21.150112,3.427209111316308,0.15682547504884742
21.152492,3.4392689376230523,0.1562933691053072
21.154896,3.44918689355652,0.15586028329321094
21.15728,3.459896245422905,0.15542544673946707
21.15966,3.4704658276624305,0.1550171027954687
21.162064,3.4889040432607628,0.15434909061339097
21.164448,3.513720648150683,0.15350165140334565
21.166827999999995,3.5405393537870204,0.15259985778283314
21.169232,3.573364361662609,0.1515122996136835
21.171616,3.606840995844254,0.15044781460012505
21.173995999999995,3.641528334839399,0.1493602008002989
21.176392,3.681710119394596,0.14803807249183554
21.178776,3.7219391257780363,0.14665731432374132
21.181156,3.756161829922226,0.14550617741282693
21.183572,3.7891738292529173,0.14442286775230823
21.185956,3.819112792650553,0.1434359042146631
21.188336,3.841694979368579,0.1427015509327144
21.19074,3.8646492531389427,0.14200404943465128
21.193128,3.889465858028864,0.14126341788745445
21.195508,3.9134438451576226,0.14059995878116038
21.197912,3.9411464945254946,0.13984081149025832
21.200296,3.9665675038932293,0.13918035577126117
21.20268,3.9927799091938825,0.13851660143121455
21.205072,4.0171299833749785,0.13791136990230482
21.20746,4.042131683862133,0.13732773670901122
21.209836,4.062989413229594,0.13688594314132896
21.212244,4.08133318517144,0.1364877654548428
21.214628,4.094881359687535,0.13621035796490988
21.217012,4.105216728643713,0.13604358211919992
21.219408,4.113689766480334,0.13591915262456708
21.221796,4.117879063570403,0.13592852422643698
21.224176,4.119507181406613,0.13604258480674747
21.22658,4.120156911854801,0.13624622654979376
21.228968,4.124671074168963,0.13635779479999321
21.231348,4.129185236483126,0.1364690855552363
21.233744,4.140776636223176,0.1363971830697411
21.236128,4.160376438948895,0.13612253721256248
21.238512,4.173178543502446,0.13599964939480588
21.240912,4.182255985816882,0.1359548336462255
21.2433,4.195105312198675,0.1357618218342057
21.24568,4.204229976341355,0.13564757295579552
21.248072,4.211492309364479,0.1355711447802678
21.25046,4.214238584215571,0.13558107248720047
21.252856,4.214982758320245,0.13564411092310696
21.255256,4.2107915653723085,0.13583345384294326
21.257644,4.203806875745036,0.13608594071703384
21.260024,4.197613582050683,0.13632988229511708
21.26242,4.195144950595442,0.13649297427694754
21.264808,4.190813988020643,0.13669582696434118
21.267188,4.187693730259345,0.13685179008051712
21.269584,4.184713242124906,0.1369959614956695
21.271968,4.187878825856579,0.1369674985116937
21.274348,4.187599286602858,0.1369933238341937
21.276752,4.178939257311133,0.1372023378158896
21.279136,4.168975975407292,0.13739949457149012
21.281516,4.152354764958143,0.13774395598450842
21.28392,4.1307981874563815,0.1382059700727981
21.286304,4.119531652940425,0.13838568697909012
21.288684,4.111338154357524,0.1384813559155776
21.291084,4.101282324655065,0.1386129895495384
21.293472,4.0963016316320795,0.13860893733453264
21.295852,4.092391873795732,0.13857349092690216
21.298248,4.0947679574523566,0.13835794380559882
21.300636,4.1003568466688955,0.13804734267147842
21.303032,4.106504814392874,0.137681789266834
21.305428,4.116377444355968,0.1372346305073854
21.307815999999995,4.126389843945922,0.13677808453456766
21.310196,4.136030156483537,0.13629557138419088
21.3126,4.143156511595539,0.13584165254585095
21.314983999999995,4.147070061147625,0.1354838934368955
21.317364,4.1501922147667925,0.13513033481540565
21.319772,4.144794108721095,0.13496761747191044
21.32216,4.146473240101288,0.13461764444030272
21.32454,4.154950069653648,0.1341020202128661
21.326936,4.1668720221914,0.13353918894408878
21.329324,4.179305831408353,0.1329903634318876
21.331708,4.190668705438665,0.13246833467966196
21.334104,4.197235982043226,0.13206425014982773
21.336488,4.205945129021063,0.13160310597096364
21.338868,4.213443571185402,0.13118641259171027
21.341263999999995,4.215075480737351,0.13090890769316746
21.343652,4.220991131035852,0.13050955363707215
21.346036,4.223693975774439,0.1302063233797357
21.34844,4.224394719766611,0.12995299012447456
21.350824,4.227749190811256,0.129658399623013
21.353204,4.233525071482898,0.12928454976262477
21.355612,4.236507455475206,0.12896224735569692
21.358,4.2382791346540145,0.12868277875916725
21.36038,4.244986180885435,0.12829363108804864
21.362776,4.25597696786341,0.12778865403202214
21.365164,4.270971956334219,0.12719361240654803
21.367544,4.291553938163697,0.12649337365382277
21.369948,4.306269387380785,0.12592599201100493
21.372336,4.320193440664956,0.1253714184437355
21.374716,4.329321896523373,0.12491239204666446
21.377112,4.340871762008788,0.12437449746938535
21.3795,4.354843037121203,0.12375433323294963
21.381879999999995,4.370397104099452,0.12312644107412603
21.384276,4.377942768092034,0.12267413330595789
21.386664,4.3870712239504535,0.12221297153176121
21.389044,4.4027178387273205,0.12164050194762914
21.391448,4.413149547197855,0.12119945853876016
21.393836,4.42265009010861,0.12077393250265488
21.396215999999995,4.432010863392506,0.12036057676591802
21.398612,4.441371636676402,0.11995042157259442
21.401,4.443375633280688,0.11972032504502712
21.403376,4.448173126564309,0.11944268978521148
21.40578,4.45297061984793,0.11916548932122417
21.408164,4.4565574083180515,0.11892996288114946
21.410544,4.460004427161313,0.11870916833422963
21.412936,4.462100971564217,0.1185392427393101
21.415324,4.463126580780481,0.11839639649787748
21.41772,4.468528478541917,0.1182041784759944
21.42012,4.470298261862857,0.11812227493517405
21.422508,4.474070145930213,0.11799955324699354
21.424888,4.477562490743848,0.11790051444593151
21.427284,4.485570893729515,0.11774501774916249
21.429668,4.493858835968904,0.11756917035689653
21.432048,4.509875641940239,0.11725885418763063
21.434444,4.526311756792154,0.11691830005682027
21.436831999999995,4.537021108658539,0.11667330459216958
21.439212,4.548941165338423,0.11639083293588548
21.441616,4.560581682764586,0.11612855166554573
21.444004,4.568497537951637,0.11591894765469637
21.446384,4.574551062019131,0.11573786188226257
21.44878,4.587821593139375,0.1154023935541688
21.451168,4.601883520192535,0.11506782022155214
21.453544,4.61394334649928,0.11477047059033302
21.455948,4.624792467992526,0.11451013652975167
21.458336,4.630286913552578,0.11437386835744515
21.460716,4.635781359112632,0.11423849196587176
21.463116,4.63848230799335,0.11414430766818101
21.465504,4.637877903515535,0.11407266717811625
21.467888,4.641417470157414,0.1139126428690758
21.470284,4.644817267172433,0.11376377994536596
21.472672,4.648217064187452,0.11361597862419812
21.475052,4.644819163030302,0.11358520297008064
21.477456,4.6389998522461555,0.1136247156265326
21.47984,4.63238914552909,0.11366491588699484
21.482224,4.625638669185164,0.11371475529952446
21.48462,4.622612855080352,0.1137130448160189
21.487008,4.625034264707349,0.11364569571564043
21.489388,4.632530811013819,0.1134854209872169
21.491784,4.649618552171791,0.11318251507488142
21.494168,4.668289085195601,0.11287572849863366
21.496564,4.685469374152192,0.11262843600277031
21.49896,4.700927101616085,0.11239702923364701
21.501348,4.723042757625287,0.11207573667515319
21.503732,4.747300284007767,0.111713010038171
21.506128,4.778914587069857,0.11120870095098426
21.508512,4.810808429385666,0.11068923264390754
21.510895999999995,4.845775307634533,0.11011444934265462
21.5133,4.882464747376093,0.10952913749881991
21.515684,4.91664022969204,0.10896211518237985
21.518068,4.95509945275454,0.10832092409102857
21.520464,4.988064230256988,0.10778726763429679
21.522852,5.021680634065495,0.10725516108571459
21.525231999999995,5.061582879366971,0.10661205607236021
21.527636,5.099203484668309,0.1060268910759127
21.530024,5.135613385156152,0.10547488849160915
21.532404,5.170440493778155,0.10493092444860941
21.534808,5.200472004974407,0.10446098096548648
21.537196,5.229292811357162,0.10403256904777805
21.539576,5.251455689194608,0.10369437364095982
21.541972,5.274829271845552,0.10333033827673534
21.54436,5.293407257070744,0.10302431148802031
21.546744,5.313987343042353,0.10269175839940956
21.54914,5.329771831588212,0.10242336651816024
21.551528,5.344764924201151,0.10215885007795523
21.553908,5.358547312000591,0.10192822344307935
21.556304,5.369908290173035,0.10175258171849827
21.558692,5.381781125024676,0.10159632154345768
21.561072,5.392583024689679,0.10145896963887932
21.563476,5.407109586593794,0.10128686572067977
21.56586,5.416281472564716,0.10120619593317086
21.56824,5.4330896744689685,0.10099076306504214
21.570644,5.453250451559999,0.10071349359456595
21.573028,5.464611429732441,0.10054504701047812
21.575408,5.478254047905022,0.1003337492170027
21.577812,5.492176205331323,0.10010489420289344
21.5802,5.506749989063683,0.09988593147744065
21.582584,5.521323772796041,0.09966696875198788
21.58498,5.527517066490395,0.09952595688342095
21.587364,5.534361986490805,0.09939334885497494
21.589748,5.538273640185022,0.09929652127093565
21.592144,5.549542070558848,0.0990860526327545
21.594532,5.556806299439841,0.09892855509807737
21.596912,5.562068427574415,0.09879656100877685
21.599316,5.564117750149076,0.09871727645126983
21.601704,5.561511244924844,0.09868205582738929
21.604084,5.56239708451425,0.09857688890406008
21.60648,5.559837801118261,0.0984890450557239
21.608868,5.55942038809555,0.09836671240993962
21.611248,5.557000874326422,0.0982707890994628
21.613652,5.552719029437737,0.09819159440502984
21.61604,5.546714623056356,0.09812046275266892
21.61842,5.538847885555417,0.09806558587400654
21.62082,5.535916515107091,0.09795187172463697
21.623204,5.529912108725711,0.09788014096011476
21.625584,5.526049572717606,0.0977748833173695
21.627984,5.520464475216806,0.09767726613764416
21.630368,5.513017046596448,0.09759579345385677
21.632752,5.516371517641093,0.09739039343357564
21.635156,5.521495772006678,0.09712660678139984
21.637544,5.529972601559039,0.09680608528579872
21.639924,5.532582898499009,0.09655176002812363
21.642328,5.537335065812256,0.09626418006368767
21.644715999999995,5.543577477192722,0.09593338775085443
21.647096,5.553963859692882,0.09554585588478848
21.649492,5.564070702939322,0.09517225943265704
21.65188,5.5681712439465105,0.09487138599539953
21.654264,5.577207152006311,0.09451519528005847
21.656664,5.579445361893945,0.09422984219405328
21.659052,5.580752406221798,0.093953058690031
21.661432,5.586343191296208,0.09360967041015845
21.663828,5.591654437116896,0.0932856836523396
21.66622,5.595894747750944,0.0929777972710062
21.6686,5.598132957638577,0.09269414657519885
21.670996,5.599859310847012,0.0923913018682968
21.67338,5.595439592189336,0.0921680038589976
21.675764,5.592230578345159,0.09191955064941369
21.678156,5.592374139687757,0.09161366661114059
21.680544,5.583298593231191,0.09142763804638282
21.682928,5.572732802707404,0.0912826911019007
21.685324,5.556020940317507,0.09121557545835507
21.687712,5.541962804980085,0.0911342200203153
21.690092,5.527764900015802,0.09106079143333867
21.692492,5.519293758037049,0.09093456385487585
21.69488,5.506166788259405,0.0908432686588671
21.69726,5.495600997735617,0.09069511328074452
21.69966,5.493183379824359,0.09044824679562236
21.702044,5.485830394860487,0.09025321115287806
21.704428,5.486625582509144,0.08996034849030213
21.706824,5.4878400790383814,0.08964279831321455
21.709212,5.48798364038098,0.08934132791032623
21.711596,5.485193935417383,0.08906797286109164
21.713992,5.482404230453787,0.08879382261976433
21.71638,5.481476856609747,0.08850639726214818
21.71876,5.482132274631544,0.08822169843253302
21.721156,5.488002598959673,0.08786861055853311
21.72354,5.493453614407221,0.08754124573678243
21.72592,5.498625090601048,0.08723277239921699
21.728336,5.508080307541429,0.08686194240249843
21.73072,5.513531322988977,0.08653184556658051
21.7331,5.52298653992936,0.08615549731573328
21.735504,5.529648260190407,0.08579911751046052
21.737892,5.538312081197871,0.08542291376521277
21.740272,5.539107268846529,0.0851267754645669
21.742668,5.542835722801379,0.08480158617589727
21.745056,5.545073932689013,0.08451663483181053
21.747436,5.540886531456813,0.08432160955909006
21.749832,5.53977216615767,0.0840905435817086
21.75222,5.533954751231392,0.08394369774534945
21.7546,5.524505221864618,0.08386530429902886
21.757,5.516918023617402,0.08377419659350634
21.759384,5.511193156489741,0.08367047309051652
21.761764,5.508541325295135,0.08353175417040286
21.76418,5.504166932607833,0.08339672644664514
21.766563999999995,5.501794640666948,0.08324182452759454
21.768944,5.50128467984562,0.08307636029227795
21.77134,5.501054258278011,0.08289458835503259
21.773728,5.4985421967102655,0.08274883922210796
21.776108,5.497101070329159,0.08258953733912495
21.778512,5.501666246187303,0.08237134737956382
21.780899999999995,5.504880947605088,0.08218308073367196
21.783276,5.5099579801424285,0.08198298469821923
21.785672,5.511030811186937,0.08182205599845979
21.78806,5.516899239657197,0.08162479733624088
21.790456,5.522348359246875,0.08145252088226869
21.792852,5.529008183650053,0.08125820263406816
21.79524,5.53701848249359,0.08103253312776863
21.79762,5.540745040590573,0.08086173245974611
21.800024,5.549034878687829,0.08062031874997776
21.802408,5.5626793927182785,0.08030967733672209
21.804788,5.5743218060023105,0.08002032621900054
21.807192,5.587826550405899,0.07972185560352289
21.809576,5.60012058999599,0.07944782670376423
21.811956,5.6162790614520555,0.07914737537205462
21.81436,5.630295662534843,0.07887508796719835
21.816748,5.63816619175152,0.07866582481376042
21.819128,5.647107656154835,0.07844483602875318
21.821532,5.659541465371786,0.07817032192753975
21.82392,5.6718355049618765,0.07790601079475136
21.8263,5.6842693141788265,0.07763716175372341
21.828696,5.702057799328971,0.07730863736487313
21.831084,5.72291932041217,0.07695431809319814
21.833464,5.746993647055285,0.07656360098473244
21.83586,5.768134707392204,0.07619605063122077
21.838248,5.792348803662179,0.07580294643223855
21.840628,5.819216626984628,0.0754080831033805
21.843028,5.848738177359552,0.07501008705714297
21.845412,5.883195094787088,0.07457445584624034
21.847795999999995,5.9084329044154575,0.07422178882912385
21.850192,5.9346018796036075,0.07387107979403154
21.85258,5.960631085164897,0.07352832575243469
21.85496,5.982795858860211,0.07321001432961227
21.857364,6.000956431062692,0.07292204954888713
21.859752,6.016835363265037,0.07266782096456889
21.862136,6.034995935467518,0.0723850664471527
21.864532,6.059162809909248,0.07205639256340893
21.866916,6.0839813106570375,0.07174214033900916
21.8693,6.107449336964469,0.0714575450399706
21.871696,6.128495953644903,0.07120991989413614
21.874084,6.146329764765419,0.07099690730856882
21.876464,6.161090539952881,0.07081289026982714
21.878864,6.17156757439379,0.07067303774994073
21.881248,6.182696235140756,0.07054546246799137
21.883628,6.1946162918206396,0.07042149284345246
21.886032,6.20267191663455,0.07031927695011812
21.88842,6.207142648836207,0.07022409264075628
