Time,Force,Position
23.677872,0.03193254466845347,0.0
23.68026,0.03370074942837007,0.0
23.68264,0.03560872381514689,0.0
23.685044,0.03290935349545197,0.0
23.687432,0.027136947242701666,0.0
23.689812,0.023226872109507996,0.0
23.692212,0.019177027349454125,0.0
23.6946,0.014056247402761719,0.0
23.69698,0.011728964135404276,0.0
23.699376,0.008330745681408302,0.0
23.701764,0.004001361667634006,0.0
23.704144,0.003676179146693415,0.0
23.70654,0.003676179146693415,0.0
23.708928,0.003676179146693415,0.0
23.711324,0.003676179146693415,0.0
23.71372,0.0052989267061420795,0.0
23.716108,0.0166035210578422,0.0
23.718492,0.035495313656759855,0.0
23.720887999999995,0.061741987077417744,0.0
23.723276,0.09585539799901359,0.0
23.725656,0.13806786384702463,0.009944010035535349
23.728052,0.18754234542131265,0.0194357345084376
23.73044,0.24353309005617962,0.028782688716348936
23.73282,0.307575985086065,0.037973603543873746
23.735216,0.3761802642583556,0.04712996442399789
23.737604,0.4497180146253891,0.056333211487030486
23.739988,0.5307031936127797,0.06541540401362828
23.742384,0.620066966780306,0.07432833195948595
23.744768,0.7185081822622693,0.0829519478367737
23.747152,0.8230935737524739,0.0915225075887011
23.749548,0.9315415012507827,0.10023131041671987
23.751936,1.0470175484888682,0.10896311809314814
23.754332,1.1755752395342243,0.11725710268813475
23.756727999999995,1.3056685006171733,0.12562289190734144
23.759116,1.4368326968867606,0.1339243728628746
23.761496,1.562137626678589,0.14237458700181516
23.763892,1.6744553563196327,0.15093702117678048
23.76628,1.7803965925269576,0.1594069236771503
23.76866,1.8788431782856823,0.1679000234247575
23.771056,1.9649069683714373,0.1766051577280402
23.773444,2.03691262311977,0.17562376218504225
23.775824,2.096442934396516,0.1752619129344088
23.77822,2.151039774478519,0.1749599230138293
23.780608,2.2029375615376736,0.174651719869573
23.783004,2.249854655573843,0.1744546860677446
23.7854,2.294771544721464,0.17403103607943587
23.787784,2.3322410052487275,0.17372844062756193
23.790168,2.3621232675287738,0.17356989759247082
23.792568,2.3812980738003042,0.1738756454397233
23.794956,2.3959114959294285,0.17418201641875794
23.797336,2.4058709861175323,0.1743761855961154
23.799732,2.409501204700159,0.17442338204206417
23.802124,2.3972562827961807,0.17506165365246695
23.804504,2.386269287533944,0.17547486855563732
23.8069,2.379006954510821,0.17568892218206053
23.809287999999995,2.3790541763390642,0.1755739943264319
23.811668,2.384269082645397,0.17526102419326559
23.814068,2.3897163063772067,0.17502283875358587
23.816455999999995,2.3964667827211317,0.17478756630035971
23.818836,2.4119698361553996,0.1742024837689212
23.82124,2.439018963359344,0.173133620993577
23.823628,2.4703046094816004,0.1718812690062125
23.826008,2.4953044141108855,0.170984874543541
23.828408,2.51415814687406,0.17045693662102787
23.830791999999995,2.539949347436264,0.16957762451118846
23.833176,2.564529843184969,0.1688239042783721
23.835572,2.5863168422543383,0.16818228567067559
23.837959999999995,2.6034480135248166,0.16774351479275476
23.840344,2.624351068862651,0.16700875350436684
23.84274,2.64246062752115,0.16640730646507937
23.845127999999995,2.66629694916518,0.16554715376587303
23.847508,2.690225818607826,0.1647940264854035
23.849908,2.7143870054759494,0.1640630054094652
23.852296,2.7364063219707964,0.16348740648034407
23.854676,2.7510688617860346,0.16335633336400796
23.857071999999995,2.7623788264144955,0.1634471703482108
23.859456,2.7701038984307043,0.16368489948077974
23.86184,2.7737322211554623,0.16404578366213984
23.864239999999995,2.7761970608949644,0.16438055760980885
23.866628,2.776008173581992,0.16481091305812118
23.869008,2.771303228096988,0.16540435451529595
23.871407999999995,2.764875721119288,0.16605582901784283
23.873792,2.7685059397019147,0.16611066438643846
23.876176,2.778049912725175,0.1657875943248454
23.878572,2.7789338564567103,0.16585288861947597
23.88096,2.779166173882188,0.16591509365354543
23.883356,2.7859166502261132,0.16572101622069826
23.885752,2.8025378606752636,0.16509151168649586
23.88814,2.820741862990249,0.16445734335001308
23.890519999999995,2.8426705275443473,0.16368646344107488
23.892916,2.8603154513518927,0.1631530024437869
23.895304,2.880242015159575,0.16251501368911797
23.897684,2.9042200022883335,0.1616067355957865
23.900088,2.928896837551394,0.1606194364105566
23.902476,2.9564143913220327,0.15941835858208037
23.904855999999995,2.9872845202794456,0.15806451811147582
23.907252,3.0218793114759728,0.15658298960828693
23.90964,3.060338534538474,0.15493997399618867
23.91202,3.1018707935340304,0.1531939333829541
23.91442,3.1390267639844156,0.151562065310621
23.916808,3.1718989936882465,0.15011531731959707
23.919188,3.209566820817829,0.14851144901727872
23.921592,3.2426713679471373,0.14720897847453476
23.92398,3.274704979889807,0.14600034925052333
23.926359999999995,3.3099513973923926,0.14463988924829135
23.928756,3.3410538437752835,0.14343741112956251
23.931144,3.3665692967995047,0.1424275599069805
23.933524,3.382493554972222,0.14175966412736504
23.935928,3.3881749919873783,0.1414028755439014
23.938312,3.390970384524582,0.14106249665417042
23.940696,3.3931141507557285,0.1407173632382938
23.943092,3.3871097443743476,0.14068687761428855
23.94548,3.376821597246412,0.1408411880745439
23.94786,3.3670453067976744,0.14101208199715953
23.95026,3.357780873028134,0.14120355452735983
23.952644,3.3459552600047373,0.14152890958001485
23.955024,3.333989877354479,0.1418623942354318
23.957424,3.322536351383419,0.14221176592465953
23.959812,3.3040055879864694,0.1428152808949461
23.962192,3.291341357201911,0.14322422430373974
23.964588,3.283892032723685,0.14343771730474825
23.966975999999995,3.2707159452599277,0.14382300312883034
23.969372,3.255677526676614,0.1442612178049145
23.971768,3.236495136973607,0.14485322934482683
23.974156,3.2130290065240454,0.14562797098520214
23.97654,3.1965003438735127,0.14616263900422968
23.978936,3.1858382138353702,0.14649934950999197
23.981324,3.183556573835233,0.14659940403573118
23.983708,3.1913779853657975,0.1464266276477818
23.986104,3.2020854413743134,0.14624951273369083
23.988492,3.214515458875526,0.14603880286372942
23.990872,3.2397494767881576,0.14541922825450726
23.993268,3.2735037543656547,0.14456665837208765
23.995656,3.3031140608234573,0.14385896702411052
23.99804,3.333795302467898,0.14312089584679893
24.000436,3.36503562261978,0.14232513127952634
24.002824,3.390269640532412,0.1417155606364255
24.005204,3.4136413273254873,0.14116055800618285
24.007608,3.4468837482237857,0.14029886116366141
24.009996,3.4777047594950874,0.1395668705809515
24.01238,3.5093171666993075,0.138847857817394
24.014776,3.54451446651578,0.1380463484320225
24.017164,3.5792924574516727,0.13727633729951597
24.019544,3.615932779507122,0.1364439419325661
24.021944,3.6587191734286812,0.1353942712359355
24.024332,3.6993636969769637,0.13445853210258002
24.026712,3.7386577460848875,0.13362855106143104
24.029108,3.7690122266473653,0.1330672301826497
24.031496,3.797783915344007,0.13254119517651664
24.033876,3.820968610681979,0.132144197311507
24.036276,3.8445726149005313,0.13171482354672678
24.038664,3.856862862774883,0.13156668411321598
24.041044,3.86035331173065,0.13165032726849918
24.04344,3.868407040686692,0.1315672813472662
24.045828,3.8755296040829545,0.1315066726741669
24.048212,3.880510297105941,0.13151465366829168
24.050608,3.892707997181676,0.13130831300397805
24.052996,3.903043366137855,0.13114053463197461
24.05538,3.905510101735226,0.13118237098048105
24.057776,3.906394045466761,0.1312376527544487
24.060164,3.904624262145821,0.13133974769967813
24.062543999999995,3.902202852518824,0.13143373267180342
24.06494,3.900480291026127,0.13146047468780395
24.067328,3.898245872854233,0.13146660592682763
24.069708,3.8964307635629196,0.1314315008645444
24.072108,3.89317263203263,0.13139500756619785
24.074496,3.88581775121089,0.13140078446866318
24.076892,3.8838175463223426,0.13124429317013275
24.079288,3.8810259455008764,0.13109438393304293
24.081676,3.883309481358883,0.13080891651314455
24.084056,3.8818683549777764,0.13060007761315556
24.086456,3.884943286768701,0.13030722791817317
24.088844,3.8952352256123746,0.12981522485160854
24.091224,3.903245524455911,0.12940529989285088
24.09362,3.908881635500693,0.12901214027333252
24.096008,3.916799386545613,0.12854226741919264
24.098392,3.9208527057245597,0.12816358269976885
24.100788,3.92932953527692,0.12764703848699252
24.103176,3.939156839269639,0.12706804943249786
24.105556,3.9531281143820527,0.12638161735638642
24.107956,3.9681703246811044,0.12566830693976117
24.110344,3.983352304607017,0.12494896714709985
24.11272,4.003329881958681,0.12413968672403261
24.115128,4.025961186362819,0.123296255507677
24.117512,4.044960376326461,0.12259031099223426
24.119896,4.061817695916827,0.12194074166011154
24.122296,4.079978268119308,0.12130454137522068
24.12468,4.099070005881567,0.12066120829198944
24.127064,4.11629941252427,0.12005450955828796
24.12946,4.130083696181581,0.11949197164190604
24.131848,4.1435884405851695,0.11894841361398141
24.134228,4.153228753122785,0.11848094473980922
24.136628,4.159144403421288,0.11808751332967832
24.139016,4.161335391480678,0.1177560987087476
24.141396,4.164969401779043,0.11742800509307555
24.143792,4.165670145771213,0.1171622909587227
24.14618,4.169443925696439,0.11682322001409852
24.14856,4.171867231181305,0.1165413699026801
24.150956,4.17480239334537,0.11628017749023935
24.153344,4.170939857337266,0.11615599917739819
24.155728,4.161862415022829,0.11616280316177131
24.158128,4.150643102335115,0.11622647479362547
24.160516,4.132346552221513,0.1164513201748297
24.162896,4.111396275055435,0.11670840733329813
24.165296,4.087000874903964,0.117012840930539
24.167684,4.063257101058552,0.11733300462272826
24.170064,4.0380703049741635,0.11765092671296704
24.172464,4.0108814081433595,0.11800835631018648
24.174852,3.982062497618474,0.11845382712563791
24.177232,3.959621976385177,0.11878502457212808
24.179628,3.9415577436970515,0.11905976203283385
24.182016,3.930151439554234,0.11920746725354074
24.1844,3.9179065176502554,0.11943070195887183
24.186796,3.9131109202245034,0.11952423304586655
24.189184,3.9080357835450314,0.11964331654789419
24.191564,3.9073369354107306,0.11970609882061281
24.193964,3.9030059728359334,0.11989218827056915
24.196352,3.8966729095147192,0.12012277707194896
24.198736,3.8914107813801433,0.12032431523888727
24.201132,3.8946689129104333,0.12036929801429319
24.20352,3.904073116306834,0.12026815393186663
24.205904,3.913477319703234,0.12016579144783887
24.2083,3.928887825338885,0.11992908120963813
24.210688,3.9457413532135113,0.11969834771073824
24.213072,3.970323744820085,0.11931461175318113
24.215468,4.00147151717335,0.11875868611050322
24.217856,4.033922542138731,0.11821579954780002
24.22024,4.0673047326638905,0.11766186397602411
24.222636,4.1031083328160465,0.11701750596178831
24.225024,4.130903529982536,0.1165569037868737
24.227408,4.155533143417354,0.11611392676944682
24.229804,4.173644597933722,0.11578221876883198
24.232192,4.192454900584392,0.1153881211082048
24.234576,4.20782008024967,0.11503844734517013
24.236972,4.225746439168804,0.11460123727703662
24.239364,4.239296509542767,0.11421662371838592
24.241744,4.257409859917004,0.11370295255823538
24.244144,4.27752531103766,0.11314812259865588
24.246532,4.297128905479117,0.11257635447514129
24.248912,4.309795032121546,0.1121481868144802
24.251308,4.319388122830917,0.11178893428196768
24.253696,4.33019191835379,0.11139140365405976
24.25608,4.337131282010687,0.11106570585690925
24.258476,4.344350184921306,0.11071856197023029
24.260864,4.349986295966089,0.11038304761837416
24.263248,4.346403299211705,0.11023676857259201
24.265648,4.346452416897817,0.10998436648449543
24.268035999999995,4.344778973091233,0.10974678818003286
24.270416,4.345247399657926,0.10946251565980383
24.272816,4.348137235851617,0.10910480209433353
24.2752,4.3520980072319455,0.10872306861686765
24.277584,4.360482288985689,0.10823279258402302
24.27998,4.369937505926071,0.10772177349109241
24.282368,4.379252953239593,0.10722318924262342
24.284752,4.385635134246919,0.10677615987973955
24.287148,4.397092451933718,0.10623754658203197
24.289536,4.401612301821488,0.10581720713229897
24.291916,4.402267719843285,0.10545500345397728
24.294316,4.403574764171139,0.10510424035695394
24.296704,4.408094614058909,0.1046833583046823
24.299084,4.413964938387037,0.10421683139528992
24.301484,4.417833161968749,0.10378415564103714
24.303872,4.425565817416435,0.10329562903137444
24.306256,4.431575911371423,0.10282071352426897
24.308652,4.431300163833442,0.10247058049231537
24.31104,4.4340974522285155,0.10205815647201609
24.313436,4.430748668757477,0.10176288866166604
24.315832,4.426980576405859,0.10150024334668761
24.31822,4.421070613680964,0.10128433200079984
24.3206,4.415812277262128,0.10107849860350133
24.322996,4.408923927149211,0.10094001972815086
24.325384,4.4014764985288535,0.10084532207978412
24.327764,4.389605559535082,0.10085262899575871
24.33016,4.377874390168171,0.10084790008835555
24.332548,4.368936717480595,0.10080754104361674
24.334932,4.354923908113546,0.10085500253096993
24.337328,4.347708796918666,0.1008017889609907
24.33972,4.34328718240312,0.10071479943000043
24.3421,4.336211840835101,0.10065028158739554
24.3445,4.3280655640804415,0.10060745967859455
24.346888,4.3212225399379,0.10058590021970831
24.349268,4.31810417803447,0.10052014314244095
24.351668,4.309119283518651,0.10054166855621358
24.354056,4.302648346428446,0.10055183190880046
24.35644,4.300181610831074,0.10049669188373166
24.35884,4.304512573405873,0.10034528473951132
24.361224,4.311637032660005,0.10016016106829706
24.363608,4.321043131914273,0.0999208843574452
24.366004,4.329378295981905,0.09970294956622909
24.368396,4.339063934489895,0.09944309633363142
24.370776,4.3513107522517425,0.099107688264249
24.373172,4.363417800386729,0.09878553778553925
24.37556,4.380739754828049,0.09836572610994497
24.377944,4.397642400388787,0.09797911001850101
24.38034,4.413054801882308,0.09764979865027952
24.382728,4.4301897648685244,0.09730861119843442
24.385112,4.443180756735047,0.097044185579703
24.387508,4.457242683788207,0.09675993469426886
24.389896,4.473958337893844,0.09645586751114608
24.392275999999995,4.4902546831188985,0.09618358483180747
24.394672,4.503385444612282,0.09591040503963985
24.397064,4.516795745359386,0.09562104026879727
24.399443999999995,4.536863974651797,0.09525266860058504
24.401848,4.555349412078373,0.09488648611206724
24.404236,4.572763914318309,0.09454009166959403
24.406616,4.581238848012801,0.09432663811553652
24.409016,4.59185565208057,0.0940751453795205
24.411404,4.602332686521477,0.09383637455943362
24.413784,4.617745088014997,0.09353373927323977
24.416184,4.632877950254797,0.09325498407378613
24.418572,4.648662438800653,0.09299170207453078
24.420952,4.6635157617867335,0.09273806151518879
24.423352,4.678508854399673,0.09247951817715555
24.42574,4.694992191079831,0.09217442444037269
24.42812,4.712034606267431,0.09183166594246296
24.43052,4.733220992574724,0.09143175212263328
24.432908,4.755897622949236,0.09098439575470621
24.435288,4.778853792577469,0.0905224558771264
24.437684,4.799947631086146,0.09007788601390108
24.440072,4.8198779866095665,0.08959899463011596
24.442456,4.845115796237936,0.08909616760068048
24.444856,4.865138699559975,0.08867190185364174
24.447244,4.878643443963564,0.0883048940121681
24.449624,4.89401051948671,0.08792579077927003
24.452024,4.9103087605696345,0.087537966931801
24.454412,4.929680037585615,0.08710422636376913
24.456796,4.94625781792226,0.08669689545884951
24.459192,4.962044202325987,0.08629000212367624
24.46158,4.974105924490599,0.08591858879648508
24.463964,4.987098812214991,0.08554319626224567
24.46636,4.99622726807341,0.08520664044472297
24.468752,5.0016310616927155,0.084896452214869
24.471132,5.003030653819186,0.08463502908141499
24.473528,5.0013572100126025,0.08441402206043794
24.475916,4.997030039153544,0.08420475795234204
24.478296,4.984694465308818,0.08408990646451749
24.480692,4.972219121837231,0.08398343308833482
24.48308,4.957182599111787,0.08393769288768688
24.485464,4.944939573065678,0.08387052481744922
24.48786,4.936001900378102,0.08380332657584326
24.490248,4.92441050063805,0.0837464868144997
24.492628,4.918685633510389,0.08363116008999201
24.495028,4.915754263062063,0.08349514380992928
24.497412,4.908678921494044,0.08341368112337529
24.499796,4.905607781418857,0.08328766208711616
24.5022,4.9045387420900886,0.08313994429614024
24.504588,4.905052494627154,0.08299769274656274
24.506968,4.907149039030058,0.08286157264511504
24.509364,4.9078951089926015,0.08275884700043143
24.511752,4.904776747089173,0.08269049417872984
24.514136,4.906453982611495,0.08258178006674459
24.516536,4.918001952239042,0.08237611713987228
24.518924,4.931924109665343,0.08217812804017786
24.521304,4.9505020948905365,0.0819504558446841
24.523703999999995,4.971314498287623,0.08174054456073643
24.526092,4.997062268737322,0.08147931585217574
24.528476,5.0236014351199385,0.08122337971321207
24.530871999999995,5.053632946316191,0.08090513589189378
24.53326,5.07966025601961,0.08062956792579327
24.53564,5.103965004230332,0.08035932556489153
24.538039999999995,5.125848342814057,0.08013715385251437
24.540428,5.146009119905085,0.07992187420016056
24.542812,5.1632366306899184,0.07973190299483511
24.545207999999995,5.183537177407809,0.07950555167136904
24.5476,5.198110961140167,0.07932587284801727
24.54998,5.212824514499386,0.0791408403808786
24.55238,5.228748772672104,0.07893479807024603
24.554768,5.238294641553233,0.0787580842289405
24.557152,5.248399588941805,0.0785456864734367
24.559552,5.263719442636708,0.07827181250681774
24.56194,5.2745232381595795,0.07801827037240572
24.564324,5.278389565883423,0.07783170868225754
24.56672,5.281092410622009,0.07761264352094226
24.569104,5.279139427561705,0.07742023443892126
24.571487999999995,5.273601551889148,0.07723953968946687
24.573888,5.26806367621659,0.07705929204820451
24.576272,5.2613150957305335,0.0769016354964332
24.578655999999995,5.250841853005364,0.07676382593367184
24.581052,5.242510480653471,0.0765983553341765
24.58344,5.234458647555299,0.07641537842879813
24.58582,5.227105662591428,0.07618883671703398
24.58822,5.218681742440919,0.07597599555567101
24.590608,5.2201285563956334,0.07568157930773424
24.592988,5.220923744044289,0.07537597916187266
24.595388,5.22572313318578,0.07503502219766812
24.597776,5.223445284901381,0.0747594628643927
24.600156,5.217163235124148,0.07451965248933744
24.602552,5.219401445011782,0.07422895317865967
24.60494,5.222291281205473,0.07395047743280957
24.607324,5.222899477399025,0.07370872774519101
24.60972,5.228443040645191,0.07342934333460419
24.612108,5.234917769451133,0.07314538854501258
24.614488,5.244046225309552,0.07285836562946828
24.616888,5.257178882660803,0.07253877501664723
24.619276,5.27338457594511,0.0721883884750091
24.62166,5.2858656069903045,0.07185414827643187
24.624068,5.302770148408913,0.0714655361746243
24.626456,5.322840273559194,0.07109430776769068
24.628836,5.346123204269391,0.07069081959493181
24.631232,5.369126595725868,0.0703055734004609
24.633624,5.393852548675041,0.06992300503163817
24.636004,5.417507566437575,0.06955213796148932
24.6384,5.430220914908246,0.06926708690087734
24.640788,5.439581688192142,0.0690246885062515
24.643168,5.4478715262894,0.06879645971639119
24.645564,5.461096731439268,0.06853114721892742
24.647952,5.478465907708832,0.06822751284567108
24.650332,5.491970652112419,0.06794981960973175
24.652728,5.507477497262426,0.06765902136000264
24.655116,5.519119910546459,0.06738943174152016
24.6575,5.525267878270439,0.06718635209125294
24.659896,5.531276076367559,0.06699144360294502
24.662284,5.536353108904899,0.06680153330820474
24.664664,5.538217335882326,0.06664601799229604
24.667064,5.541804124352449,0.06649271078400851
24.669448,5.548975805434823,0.06633394029649657
24.671832,5.552934680957283,0.0662102359584012
24.674232,5.5563816998005455,0.0660669961000379
