Time,Force,Position
23.032912,0.0,0.0
23.0353,0.0,0.0
23.03768,0.0,0.0
23.040084,0.0,0.0
23.042472,0.0,0.0
23.044852,0.0,0.0
23.047248,0.0,0.0
23.049636,0.0,0.0
23.05202,0.0,0.0
23.054416,0.0,0.0
23.056804,0.0,0.0
23.059184,0.0019986937960239574,0.0
23.061584,0.007070423525103295,0.0
23.063972,0.013073318813960953,0.0
23.066352,0.019215983729678823,0.0
23.068756,0.02442748308561837,0.0
23.071144,0.02777665132200128,0.0
23.073524,0.03391931623771915,0.0
23.07592,0.03992221152657681,0.0
23.078312,0.044993941255656145,0.0
23.080692,0.04885496617123675,0.0
23.083088,0.0507138903404005,0.0
23.08548,0.05657701600239794,0.0
23.08786,0.06337130722417372,0.0
23.09026,0.0701655984459495,0.0
23.092648,0.07803082485436379,0.0
23.095028,0.08575628163591789,0.0
23.097424,0.09362150804433218,0.0
23.099812,0.10069533851982838,0.0
23.102196,0.10455636343540897,0.0
23.104592,0.10655505723143295,0.0
23.10698,0.10562389167165462,0.0
23.109364,0.10055216194257527,0.0
23.11176,0.09454926665371761,0.0
23.114148,0.08840660173799973,0.0
23.116532,0.08319510238206018,0.0
23.118928,0.07984593414567727,0.0
23.121316,0.0737032692299594,0.0
23.1237,0.06770037394110173,0.0
23.126096,0.06262864421202241,0.0
23.128484,0.058767619296441816,0.0
23.130863999999995,0.056908695127278065,0.0
23.133264,0.05104556946528062,0.0
23.135652,0.04425127824350485,0.0
23.138036,0.03745698702172908,0.0
23.140432,0.029591760613314776,0.0
23.14282,0.021866303831760685,0.0
23.145204,0.014001077423346385,0.0
23.1476,0.006927246947850194,0.0
23.149988,0.0030662220322695945,0.0
23.152372,0.0010675282362456369,0.0
23.154768,0.0,0.0
23.15716,0.0,0.0
23.15954,0.0013470674899660568,0.0
23.161936,0.0016231997932935828,0.0
23.164324,0.0016231997932935828,0.0
23.166708,0.001623199793293583,0.0
23.169104,0.001623199793293583,0.0
23.171496,0.001623199793293583,0.0
23.173876,0.001623199793293583,0.0
23.176272,0.001623199793293583,0.0
23.178664,0.001623199793293583,0.0
23.181044,0.001623199793293583,0.0
23.183444,0.00348212396245733,0.0
23.185832,0.00348212396245733,0.0
23.188216,0.00348212396245733,0.0
23.190624,0.005620587385341497,0.0
23.193012,0.0057569500618088135,0.0
23.195392,0.005756950061808813,0.0
23.197796,0.0057569500618088135,0.0
23.200184,0.0057569500618088135,0.0
23.202563999999995,0.0057569500618088135,0.0
23.204968,0.0057569500618088135,0.0
23.207356,0.004409882571842757,0.0
23.209736,0.00413375026851523,0.0
23.21214,0.00413375026851523,0.0
23.214524,0.00413375026851523,0.0
23.216904,0.00413375026851523,0.0
23.219304,0.00413375026851523,0.0
23.221692,0.00413375026851523,0.0
23.224072,0.00413375026851523,0.0
23.226468,0.00413375026851523,0.0
23.228856,0.00413375026851523,0.0
23.231236,0.0022748260993514834,0.0
23.233632,0.012786196128763557,0.0
23.23602,0.032607325898089595,0.0
23.2384,0.05270950601365971,0.0
23.240796,0.07802469657769301,0.0
23.243184,0.11064413918483056,0.0
23.245564,0.15294542858421956,0.01118158684547883
23.24796,0.20520810402958037,0.021549383632890218
23.250347999999995,0.2644063514161008,0.031570399959049325
23.252728,0.32630365182547,0.041721301221916994
23.255132,0.39541606342971913,0.05150642901086487
23.25752,0.47276729958724373,0.061059635981503976
23.2599,0.5599401521638799,0.07034594825945645
23.262296,0.6568420733610107,0.07929923907285384
23.264683999999995,0.7590967746334649,0.088209201165867
23.267068,0.8670763430335803,0.09713355380344159
23.269464,0.9830151967332503,0.10601533685367673
23.271856,1.1084035797996947,0.11471819974364202
23.274236,1.2458498933150142,0.1229720448672079
23.276632,1.387160638696307,0.13105128754979709
23.27902,1.5277272099729249,0.1390442846774051
23.281404,1.6507523956224848,0.1472859098005098
23.2838,1.7651194478381886,0.15552962104127116
23.286184,1.883445375576352,0.16352261816887917
23.288568,1.997489458425831,0.17157322072254408
23.290963999999995,2.1004086722440825,0.17971344816116622
23.293356,2.1903406859115493,0.17676925252298922
23.295736,2.269100608719546,0.1747240038414871
23.298131999999995,2.3412970466387204,0.1730709795458838
23.30052,2.415310489707078,0.17110473877514923
23.3029,2.4839711527001116,0.169426051660509
23.305299999999995,2.5405285592738966,0.16815928544585473
23.307684,2.5871245798017095,0.16718084565098432
23.310068,2.6265054891346415,0.16645640575598528
23.312468,2.6619766406312277,0.16575872299412445
23.314856,2.6912110683209547,0.16502365212634923
23.317236,2.710391562166093,0.16434529535013728
23.31964,2.7196106699652582,0.16382238218939324
23.322024,2.71514183362147,0.16389621086962686
23.324404,2.707320422090906,0.16416783876448704
23.326808,2.7061097172774073,0.1642457801479518
23.329196,2.7142106680616918,0.16394041784703922
23.331576,2.7215202229130586,0.1636528846144392
23.333972,2.7205418355250366,0.16379459563740076
23.33636,2.7258020678017436,0.16371626498812758
23.33874,2.7387439419821535,0.16340847904141798
23.341136,2.755270708774817,0.16296583853067773
23.343524,2.770214683701644,0.16254132275045075
23.345904,2.787300529001748,0.1620057722118075
23.3483,2.8021047343017145,0.16162723078026817
23.350688,2.8161175436687635,0.1612752866371872
23.353068,2.836416194528783,0.1606062174430482
23.355464,2.8543406575900483,0.15997526688056873
23.357852,2.8674695232255623,0.15954498916715842
23.360244,2.8788758273683794,0.15916881631315838
23.362648,2.8945186504295073,0.1586831318938193
23.365036,2.9136065964760283,0.15809707718164198
23.367416,2.9321354640151083,0.1575843463202505
23.369812,2.9530857411811855,0.15691007893689393
23.372195999999995,2.9779004502132365,0.1560931535447113
23.374576,2.996569087379177,0.15559111330395103
23.37698,3.012164688612062,0.15523677596063568
23.379363999999995,3.0272484331657497,0.1548579902645185
23.381744,3.044661039547817,0.15424778689833293
23.384152,3.0551833999590987,0.15384372683149905
23.386536,3.063052033317906,0.15353101090549487
23.388916,3.07292276742313,0.15314366547635805
23.39132,3.085075141528491,0.15263047586301004
23.393708,3.095132867088819,0.152131011709863
23.396088,3.100162677797916,0.15174638470390076
23.398492,3.1039817836935164,0.15143102750473356
23.400876,3.10416877514862,0.1513188018031288
23.403256,3.1087320551488946,0.1510861572574228
23.40566,3.115065118470109,0.15070907610706633
23.408044,3.1219572602987635,0.15025926198235307
23.410428,3.1251247398883057,0.14994195698433183
23.412824,3.1265224361569084,0.1497637247545454
23.415208,3.128199671679231,0.14954821270553012
23.417588,3.126711323469881,0.14938499850014023
23.419984,3.118472498916605,0.14938094868414004
23.422372,3.11065298324391,0.14932356319837667
23.424752,3.1054871946236897,0.1491905271808378
23.427156,3.1001816363766097,0.149074936722026
23.429544,3.092594438129392,0.14907534975328637
23.431924,3.0918049380543433,0.1488239422037193
23.43432,3.0896649635389353,0.14865644517340862
23.436704,3.0877573064490047,0.14854788236251892
23.439088,3.090086168277385,0.1483481142920927
23.441492,3.088550598239792,0.1482792174347145
23.44388,3.0891568985754763,0.14811594132725675
23.446264,3.0888320333513817,0.14798170004380828
23.448668,3.094653239993398,0.14760478482317546
23.451052,3.0981002588366606,0.1472655046476672
23.453432,3.1015472776799227,0.1469256269450966
23.455836,3.104714757269465,0.14662094894471853
23.458224,3.1068113016723675,0.14636091827562744
23.460604,3.111189486075408,0.14599300049036215
23.463,3.1214342030908386,0.14543167837609336
23.465388,3.135263812718523,0.14477457425614418
23.467763999999995,3.150117135704601,0.14415126414551374
23.470168,3.1614781138770445,0.14369049273867482
23.47256,3.1704176824224906,0.14335927805848747
23.47494,3.1812195820874924,0.1429713554076732
23.477336,3.1968170791782473,0.14242481210963293
23.479724,3.2041266340296137,0.14221523000703054
23.482104,3.209294318507703,0.1420930667870525
23.484508,3.2127394414930963,0.14201317535073738
23.486892,3.211388967052737,0.14209234948562283
23.489276,3.2161373426502458,0.1420253177056972
23.491672,3.2220492012330095,0.14198680036612762
23.494056,3.2334082835475835,0.14179950510821052
23.49644,3.238341754742326,0.14188096869296624
23.498844,3.24737197522852,0.1418955513304981
23.501228,3.2564947435133305,0.1419817088401394
23.503612,3.269202404410394,0.14198028572166166
23.506008,3.284144483479352,0.1419617879448742
23.508392,3.300948893667867,0.14189910335044456
23.510772,3.313329793482967,0.14202336160505233
23.513176,3.3280848810968213,0.1421247828851243
23.515564,3.3459130046437315,0.14212113077326347
23.517948,3.3708183656165303,0.1418833399782033
23.520344,3.3994956106566856,0.14147151216347273
23.522732,3.429243790883479,0.1410340706602573
23.525112,3.458060805550494,0.1406378096299668
23.527516,3.4918131872701217,0.14008629638432724
23.529904,3.5319911801095807,0.1393080294194711
23.532284,3.571238007389261,0.13855396738726083
23.53468,3.614628805788635,0.13767270007283677
23.537068,3.6570884386282314,0.1368350277542228
23.539448,3.7014104025873844,0.1359588607429723
23.541844,3.739074438001228,0.13525886477066987
23.544232,3.7795791919226507,0.13441056662202008
23.546612,3.817709758045319,0.13360942621457544
23.549012,3.860263834541401,0.1326662638491823
23.5514,3.8972309176788134,0.13185714737267662
23.55378,3.9342452226444697,0.1309786790668258
23.556176,3.9678144046247326,0.1301749139347814
23.558564,3.9960761325000456,0.12945120400353174
23.560944,4.017679931830051,0.12888684048342447
23.56334,4.040634205600414,0.12827484036455306
23.565728,4.0600035867585245,0.12774025004597492
23.568112,4.079093428662914,0.12724845521716235
23.570508,4.0986951272465015,0.1267878402833547
23.572896,4.115503329150754,0.12638603992787725
23.575275999999995,4.133662005495367,0.12593712936389065
23.577672,4.1508895162802,0.12552069887499034
23.58006,4.16467190407964,0.1251427520632915
23.582456,4.1758005648266066,0.12481076792232314
23.584852,4.180550836281985,0.12458377962973982
23.58724,4.183625768072909,0.12431144588422657
23.58962,4.190752123184912,0.12387628891333113
23.592016,4.196807543110275,0.12347330149282225
23.594408,4.20086086228922,0.12311693932202201
23.596788,4.200118584042414,0.12285810332187869
23.599184,4.201797715422606,0.12251657420529363
23.601572,4.201614515683241,0.12220831259674547
23.603952,4.1992894455705985,0.1219561130526003
23.606356,4.202551368816627,0.12160191288952694
23.608744,4.2113077376227075,0.1210892881402903
23.611124,4.2174103793763145,0.12062007783202477
23.613528,4.224583956316558,0.12012479115830292
23.615916,4.223237273591939,0.11978498723011498
23.618296,4.214720805642811,0.1195507072900196
23.620692,4.206064568066824,0.11932827314234831
23.623084,4.188608531572253,0.11929364571974924
23.625464,4.166496667278788,0.11933932334023423
23.62786,4.150111565970855,0.1192725755031932
23.630252,4.128371788729728,0.11935624361213291
23.632632,4.11342970966077,0.11929620173327182
23.635031999999995,4.096205990591676,0.11930632910864941
23.63742,4.074279221895446,0.11947300245642523
23.6398,4.0502105828259385,0.11970094638156786
23.642196,4.025071008569793,0.11996319749941206
23.644584,3.995927232820814,0.12033443268172
23.646964,3.9655727522583364,0.12074785270447143
23.649364,3.9350785020689982,0.12117579391706176
23.651752,3.9076572878127154,0.12152307918829544
23.654132,3.8786532816905965,0.12187761724610417
23.656528,3.8482988011281187,0.12227704526953838
23.658916,3.8143122061251447,0.1228164773148023
23.6613,3.777392344815975,0.12342171898512794
23.663696,3.7488529735448104,0.12387347443524399
23.666084,3.727623157125012,0.12419753984946048
23.668464,3.7082556718247712,0.12448554791705095
23.670864,3.6987589206297544,0.1245410514840751
23.673252,3.690565422046853,0.12461519241699348
23.675632,3.677948413090537,0.12483001316495383
23.678028,3.6721291023063896,0.12489195699792906
23.680416,3.6644474604026853,0.12498858410391082
23.682796,3.657929301484237,0.12511771727825505
23.6852,3.656346509618401,0.12512755874361767
23.687588,3.6615614159247336,0.12498272918915956
23.689968,3.669569818910401,0.12478241655405721
23.692364,3.6853070856280157,0.12440496746855614
23.694756,3.703837849024965,0.12397539447290112
23.697136,3.725022339474389,0.12350717362306853
23.699536,3.743925189923676,0.12311700900009408
23.701924,3.765481767425438,0.12269039949945221
23.7043,3.783034143434365,0.12235960963195382
23.706704,3.8050100298167076,0.12188277450561724
23.709092,3.8304310391844423,0.12135912066693877
23.711472,3.853338091126563,0.12087271926407894
23.713868,3.8714495456429314,0.12049143066312831
23.716256,3.8887696042263826,0.12011720321407553
23.71864,3.9008747565035002,0.11989017271325822
23.721036,3.914609922474698,0.11958137885736492
23.723424,3.9322567421401122,0.11911427796841058
23.725804,3.949251935499469,0.11864535855568988
23.7282,3.9667589855380228,0.11820117491633514
23.730588,3.987106754084155,0.11763681682214919
23.732972,4.00666312669737,0.11708529655628133
23.735376,4.017279930765138,0.11673446674620162
23.73776,4.029247209273264,0.11633483068133985
23.740144,4.038560760728917,0.11597543311038072
23.74254,4.0449410458783746,0.11567674007638416
23.744924,4.050669704721773,0.11537199571531477
23.747308,4.059750938751948,0.1149741567509769
23.749704,4.067901007222346,0.11459569622748735
23.752092,4.082057377931993,0.11409191417513723
23.754488,4.093140712708585,0.1136566807748085
23.756884,4.098916593380228,0.11328401022268868
23.759272,4.102550603678593,0.11296444717787807
23.761652,4.110468354723513,0.11253635251434402
23.764052,4.116523774648876,0.11213656935028497
23.766436,4.124581295320656,0.11169396911920694
23.768816,4.131288341552076,0.1113056203481257
23.771215999999995,4.138367474835835,0.1109566428936665
23.7736,4.14730893923915,0.1105848171046877
23.77598,4.156669712523046,0.11017992236527027
23.77838,4.161746745060387,0.10987946400365647
23.780768,4.164821676851312,0.10961903334483405
23.783148,4.172180349388791,0.1092520550450036
23.785544,4.174324115619937,0.10900250022218495
23.787932,4.17833021297064,0.10872734563270989
23.790327999999995,4.183267475881121,0.10843765343165597
23.792724,4.186202638045185,0.10818795316374141
23.795112,4.183783124276057,0.10806588124007825
23.797492,4.182434545693567,0.10791907923263802
23.799888,4.180015031924438,0.1077983831821153
23.802276,4.183322281140841,0.1075890463138116
23.80466,4.195010020395247,0.10726523848933076
23.807056,4.210562191515627,0.10687903565978017
23.809444,4.224763888195649,0.10654516744275042
23.811828,4.241339772674425,0.10620603816766085
23.814224,4.260197297153337,0.10581466879817288
23.816612,4.280917152751806,0.1054014672272567
23.818992,4.300146764283056,0.10504830998537801
23.821392,4.315092635067754,0.1047904700057656
23.823776,4.331621297718286,0.10453576823399766
23.82616,4.353736953727489,0.1042127670881779
23.828556,4.378366567162305,0.1038778612436831
23.830943999999995,4.404578972462958,0.10354571686732839
23.833328,4.43758907593578,0.10311237547698952
23.835724,4.469900331274301,0.10273900789672682
23.838111999999995,4.501000881799324,0.10239541307123859
23.840496,4.533823993817042,0.10204057863522978
23.8429,4.575726444007066,0.10153524904612495
23.845288,4.616557959010453,0.10106141163237756
23.847668,4.653385272521005,0.10065355086188996
23.850068,4.686487923792443,0.100297945992267
23.852456,4.713863812078353,0.10002330431806628
23.854836,4.737375268498288,0.09980201778017915
23.857232,4.763959760851278,0.0995352430385946
23.85962,4.792034497271488,0.099220767311375
23.862004,4.8167566585049215,0.09898187396400164
23.8644,4.842829294178715,0.09870987687340196
23.866784,4.86866961242703,0.09839823473595963
23.869168,4.8949292395559265,0.09805363995390151
23.871564,4.91760397407257,0.09774116358235319
23.873952,4.938695916723377,0.09743536788903708
23.876336,4.958065297881489,0.09714010510321444
23.87874,4.97771421829332,0.09683010661485704
23.881128,4.989494505346343,0.09662255796535536
23.883508,4.998109208667695,0.09641274176378958
23.885908,5.013149523108877,0.09609352890484352
23.888292,5.027398441617142,0.09577504480313043
23.890676,5.030845460460403,0.09559470249603173
23.893076,5.03121944337061,0.09545994553174932
23.89546,5.031872965534537,0.09530489751114683
23.897844,5.031455552511824,0.09516835436387461
23.90024,5.035321880235667,0.0949582608593535
23.902628,5.0431924094523435,0.09469356420004564
23.905012,5.041192204563797,0.09455596332538754
23.907412,5.035327567809276,0.09446364913891285
23.9098,5.027880139188919,0.09436991448244937
23.91218,5.013495242769532,0.09436747106744588
23.914576,5.0001812815367845,0.09434494721197229
23.916964,4.990080125863953,0.09426625727062699
23.919348,4.980910135750901,0.09417856882163457
23.921748,4.968015483398733,0.09412468463847384
23.924136,4.956611075113786,0.09402329487135147
23.926516,4.940550839029946,0.09396335648563138
23.928912,4.932918314812354,0.09376921491330105
23.9313,4.928358826527818,0.09353056197644197
23.933679999999995,4.9168618704442535,0.09337799974834453
23.93608,4.907367015107104,0.09319976105167194
23.938468,4.903878462009207,0.09294378616136094
23.940847999999995,4.905884354471362,0.09259202327070867
23.943248,4.9117546787994915,0.09219945150808662
23.945636,4.920977578314397,0.09174770631249816
23.948016,4.922983470776551,0.09139729466878374
23.950416,4.920053996186095,0.09110414830826079
23.952804,4.924621067902108,0.09068746612060036
23.955184,4.932121405924317,0.09023747020558089
23.957584,4.943625945439357,0.0897384654218586
23.959968,4.958203520887456,0.08919172023903016
23.962348,4.971570391522055,0.08867471347766465
23.964744,4.97958258622346,0.08824393970574412
23.967132,4.9888054857383635,0.08778871527987701
23.969512,4.999750946745964,0.08732646446326127
23.971916,5.009485702940067,0.08689356175887493
23.974304,5.022805351746422,0.08643890702690876
23.976688,5.030910094246446,0.08606354904665126
23.979088,5.035941800813413,0.08572878605957954
23.981476,5.044837939246355,0.08535648263705806
23.983856,5.046796609880267,0.08506080643252088
23.986252,5.048615510887319,0.08477593331506385
23.98864,5.041866930401263,0.08462180244312173
23.991024,5.032324853235871,0.0844886445199172
23.99342,5.019430200883704,0.08441278038627802
23.995808,5.011610685211009,0.08427398579147162
23.998192,5.009937241404425,0.08405621766467569
24.000596,5.007425179836679,0.0838945438940592
24.002984,5.003981952709156,0.08373982339605646
24.005368,4.996534524088798,0.08362976355763192
24.007764,4.989738721774499,0.08353108882150806
24.010152,4.981080588340642,0.0834452573441994
24.012532,4.977357821959399,0.08330779851374057
24.014928,4.970422250018239,0.08321746011860193
24.017316,4.959622246211106,0.08316273192000256
24.019696,4.946261063150115,0.08316841157665791
24.0221,4.933970815275762,0.08315688312026659
24.024488,4.920609632214771,0.08316154668769295
24.026868,4.910041945833117,0.08314587809887185
24.029264,4.893607726839071,0.08318884271575773
24.031652,4.883971206017193,0.08316659793853345
24.034032,4.874474454822176,0.08313430122534665
24.036436,4.873405415493407,0.08298297126227097
24.038824,4.872848232843834,0.0828528621593584
24.041204,4.873641524634621,0.08268777748595882
24.043608,4.87336388123877,0.0825391225261479
24.045992,4.869733662656144,0.0824477704966902
24.048376,4.864008795528483,0.08232890620453583
24.050772,4.860286029147238,0.08218830490091857
24.053156,4.8604276946319676,0.08201372016055775
24.055536,4.85898656825086,0.08183249751518704
24.057936,4.862201269668645,0.08162102187127968
24.06032,4.864764344780373,0.08139907496310214
24.062704,4.869469290265378,0.081146172706737
24.0651,4.8819030994823285,0.08082754630948613
24.067488,4.899179727953275,0.08041261845450176
24.069868,4.912452154931388,0.08004051886104943
24.072264,4.930939488215832,0.07960513668866294
24.074652,4.949706360753997,0.0791555506596966
24.077048,4.975270931464331,0.07864757869847355
24.079443999999995,5.000183875868606,0.07813333635588905
24.081832,5.021232388406909,0.07764977554191439
24.084212,5.037997160198658,0.07722806563838175
24.086611999999995,5.055041471244126,0.07678848799244324
24.089,5.07366857415543,0.0763596600776777
