Time,Force,Position
21.856,0.0008129859047858266,0.0
21.858396,0.0008129859047858266,0.0
21.860784,0.0008129859047858266,0.0
21.863164,0.0008129859047858266,0.0
21.865568,0.0008129859047858267,0.0
21.867956,0.001486202182711443,0.0
21.870336,0.0014862021827114428,0.0
21.87274,0.0014862021827114428,0.0
21.875128,0.00257872734121769,0.0
21.877508,0.00378943215471643,0.0
21.879904,0.009957093992694909,0.0
21.882292,0.01505382064403486,0.0
21.884672,0.018939842481876065,0.0
21.887068,0.021894698759938953,0.0
21.889456000000003,0.027131195038139114,0.0
21.891836,0.034230022435895915,0.0
21.894232,0.04118908020679251,0.0
21.89662,0.04586649797755182,0.0
21.899,0.049612750188532825,0.0
21.901396,0.05536110314593067,0.0
21.903784,0.060178290543550186,0.0
21.906176,0.06392454275453119,0.0
21.908572,0.06473752865931702,0.0
21.91096,0.06473752865931702,0.0
21.913344,0.06473752865931702,0.0
21.91574,0.0640643123813914,0.0
21.918128,0.0640643123813914,0.0
21.920508,0.0640643123813914,0.0
21.922904000000003,0.06297178722288516,0.0
21.925288,0.060948096504600584,0.0
21.927672,0.05478043466662211,0.0
21.930068,0.04968370801528216,0.0
21.932456,0.045797686177440955,0.0
21.934852,0.042842829899378064,0.0
21.937248,0.037606333621177906,0.0
21.939632,0.03050750622342111,0.0
21.942016,0.023548448452524517,0.0
21.94442,0.0188710306817652,0.0
21.946808,0.015124778470784202,0.0
21.949188,0.009376425513386353,0.0
21.951584,0.004559238115766825,0.0
21.953972,0.0008129859047858267,0.0
21.956352000000003,0.0,0.0
21.958752,0.0,0.0
21.96114,0.0,0.0
21.963520000000003,0.0,0.0
21.965924,0.0,0.0
21.968308,0.0,0.0
21.970688000000003,0.0,0.0
21.973092,0.0,0.0
21.97548,0.0,0.0
21.977856000000003,0.0,0.0
21.980252,0.0,0.0
21.98264,0.0,0.0
21.985016,0.0,0.0
21.98742,0.0,0.0
21.989808,0.0,0.0
21.992188,0.0,0.0
21.994592,0.0,0.0
21.99698,0.0,0.0
21.99936,0.0,0.0
22.001764,0.0,0.0
22.004148,0.0,0.0
22.006528,0.0,0.0
22.008932,0.0,0.0
22.01132,0.0,0.0
22.0137,0.0,0.0
22.016092,0.0,0.0
22.01848,0.0,0.0
22.02086,0.0,0.0
22.02326,6.881180011086723e-05,0.0
22.025644,6.881180011086723e-05,0.0
22.028024,6.881180011086723e-05,0.0
22.030424,6.881180011086723e-05,0.0
22.032808000000003,6.881180011086723e-05,0.0
22.035192,6.881180011086723e-05,0.0
22.037592,6.881180011086723e-05,0.0
22.03998,6.881180011086723e-05,0.0
22.04236,6.881180011086723e-05,0.0
22.04476,6.881180011086723e-05,0.0
22.047144,6.881180011086723e-05,0.0
22.049528,6.881180011086723e-05,0.0
22.051920000000003,6.881180011086723e-05,0.0
22.054308,6.881180011086723e-05,0.0
22.056704,6.881180011086723e-05,0.0
22.059104,6.881180011086724e-05,0.0
22.061488,6.881180011086724e-05,0.0
22.063872,6.881180011086724e-05,0.0
22.066268,6.881180011086724e-05,0.0
22.068656,6.881180011086724e-05,0.0
22.071036,0.0,0.0
22.073432,0.0,0.0
22.07582,0.0,0.0
22.078204,0.0,0.0
22.0806,0.0,0.0
22.082988,0.0,0.0
22.085368000000003,0.0,0.0
22.087764,0.0,0.0
22.090152,0.0,0.0
22.092536000000003,0.0,0.0
22.094932,0.0,0.0
22.09732,0.0,0.0
22.0997,0.0,0.0
22.1021,0.0,0.0
22.104488,0.0,0.0
22.10688,0.0,0.0
22.109276,0.0,0.0
22.111664,0.0,0.0
22.114044,0.0,0.0
22.11644,0.0,0.0
22.118824,0.0,0.0
22.12122,0.0,0.0
22.123616,0.0,0.0
22.126004,0.0,0.0
22.128384,0.0,0.0
22.13078,0.0,0.0
22.133164,0.0,0.0
22.135548,0.0,0.0
22.137952,0.0,0.0
22.140336,0.0,0.0
22.14272,0.0,0.0
22.145116,0.00016135959872792574,0.0
22.147504,0.00016135959872792574,0.0
22.149884,0.00018294957059564198,0.0
22.152288,0.00018294957059564198,0.0
22.154672,0.00018294957059564198,0.0
22.157052,0.00018294957059564198,0.0
22.159456,0.0007636180499041986,0.0
22.161844,0.0007636180499041985,0.0
22.164224,0.0007636180499041985,0.0
22.16662,0.0007636180499041986,0.0
22.169008,0.0007636180499041986,0.0
22.171392,0.0007636180499041986,0.0
22.173788,0.0007636180499041986,0.0
22.176172,0.0007636180499041986,0.0
22.178556,0.0007636180499041986,0.0
22.18096,0.0007636180499041986,0.0
22.183348,0.0007636180499041986,0.0
22.185728,0.0007636180499041986,0.0
22.188132,0.0007636180499041986,0.0
22.19052,0.0025474079112345325,0.0
22.1929,0.016924720899143757,0.0
22.195304,0.04533643322596942,0.0
22.197692,0.0801502708428893,0.0
22.200072,0.11805683850686303,0.0
22.202468,0.16443454814958947,0.009931037165212693
22.20486,0.22328760126390226,0.019098758162663754
22.20724,0.28714508339970723,0.028314095726940464
22.209644,0.358938114836561,0.0372295988939202
22.212032,0.4360839263487381,0.046090292910335735
22.214412,0.5226792672276895,0.05469421528148556
22.216808,0.6172338934061959,0.06327291336329163
22.219196,0.7229606104441728,0.07158513986009395
22.221576,0.8361819779307502,0.07974055630874988
22.223972,0.9578291614257066,0.08771561450897992
22.22636,1.0819884064884082,0.0959399941971343
22.22874,1.2179713687166382,0.1039884436196697
22.231136,1.3608899028860277,0.11200580683596734
22.233524000000003,1.5080449559737286,0.11990306077319643
22.235904,1.652965590889535,0.12782868887533227
22.238304,1.7953582618393362,0.1356694379488419
22.240688,1.919409056705161,0.1437295999700733
22.243068,2.0258149277634403,0.1520542971346509
22.245468,2.129521745798871,0.16021965835950133
22.247856,2.232299294132393,0.1682681578296554
22.250236,2.3182724322774004,0.1666332917805478
22.252632,2.3872541687787896,0.16595411815558903
22.25502,2.4520938300183546,0.16520677467855238
22.257404,2.5099506974885166,0.1648049036722814
22.2598,2.562454784883356,0.1644578418165746
22.262188,2.606068421418862,0.16427850544363712
22.264568,2.6420023119085325,0.16408015641774185
22.266964,2.6642029322848746,0.16434793246583182
22.269352,2.6828658818772078,0.1646645264838244
22.271732,2.6966879080734145,0.16501583225060446
22.274136,2.711490217515512,0.16489528652348123
22.276524,2.713025787553105,0.16496595579270257
22.2789,2.706415080836039,0.16514851576205414
22.281308000000003,2.7044602019178656,0.1651380956576209
22.283692,2.7123288352766726,0.1648132945415518
22.286072,2.7215007212475957,0.1645010907488326
22.288476000000003,2.737610075017548,0.16388505033889636
22.290864,2.7584224784146345,0.16297428312272316
22.293244,2.7734608969979475,0.16239624733572278
22.29564,2.7867295322603214,0.16197563546916285
22.298024,2.8111249324117917,0.1612141469570351
22.300404,2.838034289988877,0.16033994876071586
22.302808,2.8633608557001256,0.15950423969361913
22.305196,2.8928313925310682,0.1584871825800813
22.30758,2.9256072827205437,0.15740412124679018
22.309976,2.9568929288428,0.1564391232034436
22.31236,2.985385078285721,0.15557268777312655
22.314744,3.016717946236221,0.1544719521302803
22.317148,3.040229402656155,0.15361872263243617
22.319532,3.059876427210118,0.15294690093847627
22.321912,3.0761708765773035,0.15247971250126818
22.324316,3.0900439163174926,0.15214446070757337
22.326704,3.1051276608711795,0.15172840441998608
22.329084,3.1061041524013318,0.15187350751440273
22.33148,3.100143176132455,0.15230745458369715
22.333868,3.0942747476621957,0.15281649541524278
22.336248,3.0870558447515766,0.15340995991628364
22.338652,3.0782541499751224,0.1540308040232404
22.341036000000003,3.0727124825868266,0.15440454119452424
22.34342,3.0708029296390267,0.1545643234847421
22.345824,3.06703104557167,0.15478450378457928
22.348212,3.069545002997284,0.15472710900379727
22.350592,3.073549204490118,0.15456919389329357
22.352996,3.0702438511315853,0.1546379984487539
22.35538,3.0600482518022663,0.1548810672342786
22.357764,3.0486419476594495,0.15519764111902187
22.360164,3.044684967994859,0.15526230200759034
22.362552,3.040727988330269,0.15532596374346028
22.364932,3.0424977716512087,0.15518914724340133
22.367336,3.0477598997857847,0.15487649276198706
22.369724,3.05260271903978,0.15461589990513994
22.372104,3.0662453372123606,0.15403444874508307
22.374508,3.0812384298252993,0.15337715037536112
22.376892,3.1029366728117895,0.15238110632985666
22.379272,3.1222607279995267,0.15141800611177791
22.381672,3.138791286507928,0.15053805210179155
22.38406,3.157463715389607,0.14957213982673795
22.38644,3.1759963746444257,0.1486190468508799
22.388836,3.1965311346456606,0.1476140275245756
22.391224,3.2101284268478674,0.14687545598651774
22.393604,3.223865488676934,0.1461275536478825
22.396004,3.233458579386307,0.14556144926174486
22.398392,3.240118403789485,0.14509718099580304
22.400772,3.2519931344989947,0.14442655204977772
22.403168,3.2702462545000923,0.14357398128629395
22.405556,3.2994410437930535,0.14236759124853293
22.407936,3.3246316315931805,0.1413372332865966
22.410332,3.3487512842066693,0.14034943528643637
22.41272,3.3703569793945434,0.1394148882661505
22.415104,3.3864682290223644,0.1387088027405243
22.4175,3.4045815793966026,0.13793905991509522
22.419888,3.4158972315986715,0.137387395074871
22.422268000000003,3.4261419486141023,0.13688170383894768
22.424664,3.430892220069481,0.1365883206264536
22.427052,3.437085513763834,0.13628992141764856
22.429436000000003,3.449145340070578,0.13581300867652277
22.431832,3.459714922310104,0.13542939375133736
22.43422,3.472938231602104,0.13499103406296797
22.4366,3.4798756994011324,0.1347759334554669
22.439004,3.4934710957454693,0.13437752906068023
22.441392,3.5085095143287828,0.13398493116670715
22.443772000000003,3.5239200199644336,0.13363024485206618
22.446176,3.544637979705034,0.13317143217468574
22.448564,3.562515220938056,0.13287039789384017
22.450944,3.580112922917358,0.1326086986938387
22.45334,3.585698020418158,0.13270378331345475
22.455732,3.587139146799265,0.13292964128871404
22.458112,3.58923189948643,0.13316321485581287
22.460508,3.594769775158988,0.1333379542952314
22.462896,3.603520456391461,0.13340257250467918
22.465276,3.610269036877518,0.13352528618504866
22.46768,3.6207422796026876,0.13356038584282798
22.470068,3.6307962134472755,0.13363951775791424
22.472448,3.647787615090894,0.13351968929218774
22.474844,3.668922987854206,0.13327415280843563
22.477232,3.6883357991248213,0.1330684205829688
22.479612,3.7052346529698212,0.132894562607812
22.482016,3.7216216501356247,0.13270548256685213
22.484404,3.7432235536077596,0.13235396772160207
22.486784,3.7611007948407815,0.13209270159071282
22.489184,3.778466179394606,0.13181736869417204
22.491572,3.7935971457765367,0.13154427163569232
22.493952,3.7999283132398816,0.13149256645339813
22.496356,3.8046766888373904,0.13145232105125185
22.498744,3.807050876636144,0.13143264127912546
22.501124,3.8097046036886186,0.13138315874839274
22.50352,3.8197151074207034,0.131101284885313
22.505908,3.833078186339564,0.13070582056337687
22.508288,3.8425768333924504,0.13040952592991548
22.510688,3.856079681938171,0.13001437742693295
22.513076,3.872003940110889,0.1295286176546869
22.515452,3.885274471231132,0.12909102454493712
22.51786,3.8966826712318183,0.12868850448800076
22.520244,3.904226439366531,0.12838172903578557
22.522624,3.905112278955935,0.12822620519931546
22.525024,3.903484161119725,0.12810229576487353
22.527412,3.9041376832836514,0.12789907881220372
22.529792,3.904092357313278,0.12776371156577065
22.532188,3.9026965569025456,0.12768774674753736
22.534572,3.902511461305311,0.1275669525117963
22.536952,3.899672638655603,0.12748857989890583
22.539352,3.8996273126852286,0.12735485263895063
22.541736,3.9069387633944643,0.1270101037057528
22.544116,3.919465120410033,0.12652173528991803
22.546512,3.931200081492683,0.12603874888858263
22.5489,3.950291819254942,0.12535228687857508
22.551296,3.9664502907110064,0.12474875935461405
22.553692,3.9784647910473767,0.12425990288144523
22.55608,3.992621161757024,0.12371053973193337
22.558464,3.998908899107864,0.12334149980514043
22.56086,4.002123600525649,0.12305061037400211
22.563248,4.00720063306299,0.12272621278417076
22.565632,4.016561406346886,0.12228424841217393
22.568028,4.030205920377336,0.12173009842961124
22.570416,4.045852535154202,0.1211225832406375
22.5728,4.0600089058638495,0.12057843432438405
22.5752,4.0748169028795544,0.12004714311344844
22.577588,4.087530251350227,0.11950193280006968
22.579968,4.09386521052931,0.119055473436904
22.582368,4.095404572282642,0.11870620446743106
22.584756,4.091729027729641,0.1184933935296293
22.587136,4.085399756124165,0.11832074303911609
22.589536000000003,4.075485591906436,0.11820463649195453
22.591924,4.058773729516539,0.11823740136325155
22.594304,4.040711392686283,0.11832989534807395
22.596704000000003,4.018225545482612,0.11855018092816784
22.599092,3.990944100853189,0.11887386795970972
22.601472,3.963942195477487,0.11917293792814145
22.603868,3.935077958982228,0.11950529533623011
22.606252,3.907284657673608,0.11981796200930155
22.608636,3.882704161924904,0.12003138728474527
22.611032,3.854119464683366,0.1203474874676983
22.61342,3.826186393747885,0.12065776228310429
22.6158,3.792758877252353,0.12113034806714429
22.618204,3.762124857436154,0.121545778481998
22.620592,3.7364262046725676,0.12184691773879422
22.622972,3.7073749767222055,0.12225637103796605
22.625372,3.6804183973168776,0.12268080482277509
22.62776,3.662913243136193,0.12292125033602666
22.630144,3.650715543060457,0.12308600424825385
22.63254,3.647317641903307,0.1230543278336494
22.634928,3.646293928544912,0.1230094955476684
22.637308,3.649087425224247,0.12295666550334919
22.639704,3.6553260448889744,0.12285792797721384
22.642092,3.668502132352731,0.12259706479154484
22.644472,3.680467515002989,0.12237859707551167
22.646868,3.696809186198418,0.12209314781956696
22.649256,3.7156648148194615,0.1217835386459829
22.651636,3.7331699690001456,0.1215274022254255
22.654032,3.7534686198601657,0.12121446724819263
22.65642,3.7705544651602696,0.12100138774665307
22.6588,3.7947175478862625,0.12061022655494501
22.6612,3.8128743283730056,0.12036754962563244
22.663588,3.8350353103525823,0.12002343052964758
22.665968,3.8561253571455203,0.11971730257677367
22.668368,3.8754928424457615,0.11944210113651008
22.670752,3.8984924421864995,0.11903277415699456
22.673132000000003,3.9201887893151217,0.11860518586767516
22.675548,3.937089539017992,0.11828383472800559
22.677936000000003,3.9542698279745823,0.11794242716962684
22.680316,3.9726608217446717,0.11757266583351285
22.682712,3.9933334555148976,0.11714042944610874
22.6851,4.0157758726060635,0.11663271168270911
22.687484,4.041291325630285,0.11606091538954078
22.68988,4.060940246042116,0.11561291646535632
22.692264,4.085012676827361,0.11505027687059853
22.694644,4.109364646866327,0.11446784065868829
22.697052,4.130783350599098,0.11394208660411777
22.699436,4.1575567302650605,0.11328728963608925
22.70182,4.183538713998106,0.112638291549508
22.704216,4.210312093664069,0.1119834945814795
22.706604,4.231870567023701,0.11145578252067735
22.708984,4.2597148818763015,0.11078491564432172
22.71138,4.287838735982624,0.11010214092620972
22.713768,4.316242129342667,0.10940286537931167
22.716152,4.343574587516072,0.10873410542187581
22.718548,4.370487736808895,0.10810719172987088
22.720932,4.3989836779675535,0.10747847695559473
22.723312,4.429481719872631,0.1068126932125677
22.725728,4.458117430658151,0.10617985050228465
22.728112,4.482748939950837,0.10563287686094393
22.730492,4.503376247750689,0.10516356696061059
22.732888000000003,4.515715613311153,0.10486146381454407
22.735272,4.524190547005644,0.1046216354377103
22.737656,4.532665480700136,0.10438032761215499
22.740052,4.537927608834711,0.10421126498753722
22.74244,4.545191837715704,0.10401025886058216
22.744824,4.555948411410332,0.10372144553186684
22.74722,4.56176961805235,0.10351403265900579
22.749608,4.569592925440783,0.1032749793663128
22.752004,4.577695772082936,0.10301453903516472
22.7544,4.591153294658283,0.10264830122220338
22.756784,4.602468946860352,0.10233070302391468
22.759164,4.610991102383085,0.1020476038116771
22.761568,4.6163004523459055,0.1018275521901846
22.763956,4.622401198241642,0.10160799445961316
22.766336000000003,4.62864171376424,0.10137943758504214
22.76874,4.635021998913697,0.10114197357582472
22.771128,4.639400183316737,0.10093586505924199
22.773508,4.6445697636526955,0.10073032729317039
22.775908,4.648528639175155,0.10055524098767155
22.778292,4.655560550630669,0.10032942305875803
22.780676,4.66552572839238,0.1000576762112377
22.783072,4.677493006900508,0.09975466336133124
22.78546,4.690391450968413,0.09944012821895465
22.787840000000003,4.701427563916762,0.09914517568285122
22.79024,4.7064573746258604,0.0989460111612533
22.792624,4.708926006081101,0.09882132058465162
22.795008,4.714979530148595,0.09866515830882187
22.797404,4.719170723096532,0.09853122836714476
22.799792,4.723361916044469,0.09839756333409562
22.802172,4.721127497872574,0.09838701841621349
22.804576,4.714888878207846,0.09843791739924176
22.806964,4.706089079289261,0.09856265129026975
22.809348,4.702364417050147,0.09860397153051648
22.811744,4.698779524437894,0.09863457270917923
22.814132,4.6951946318256415,0.0986647216593465
22.816512,4.691609739213388,0.09869442532399066
22.818912,4.6928204440268875,0.09866439148854765
22.8213,4.6912376521610515,0.0986638787464
22.82368,4.693659061788049,0.09860397774709138
22.82608,4.693798831414909,0.09859394944478522
22.828468,4.6988739680943805,0.09851615749351772
22.830848,4.704880270333631,0.09842993907043694
22.833244,4.714099378132798,0.09828779920053074
22.835632,4.727182917797937,0.0980990782097223
22.838012,4.746272759702328,0.09782575756471414
22.840408,4.7645712056738,0.09755056381832483
22.842796,4.782218025339214,0.09726852335818277
22.84518,4.8013078672436045,0.0969996251442019
22.847576,4.82333097545419,0.09669823282237314
22.849964,4.84856688922469,0.09633933259462657
22.852344,4.8796693356075815,0.0959068528421212
22.85474,4.916917853856584,0.09537923688098145
22.857128,4.951233105799391,0.09489586839286196
22.859512,4.983406487368921,0.09444968281562095
22.861908,5.013717537818894,0.0940227901414175
22.864296,5.040164156402894,0.09363923088625968
22.866676,5.058090515322029,0.09334476221876752
22.869076,5.079229679801078,0.09299524663256915
22.871464,5.095713016481236,0.09269164956889828
22.873856,5.113686597228615,0.09234273544585411
22.876256,5.1291462205503775,0.09200681620141409
22.87864,5.143814447939224,0.09167359697496383
22.881024,5.155269869768152,0.09139629919533894
22.88342,5.166073665291024,0.0911117267024536
22.885808,5.17408396413456,0.0908536604902091
22.888192,5.185446838164873,0.09053755876658963
22.890588,5.195878546635408,0.09023093259427223
22.892976,5.20300490174741,0.08992768992675451
22.895356,5.206546364247157,0.08964744305594681
22.897756,5.2083652652542085,0.08937334248753596
22.90014,5.204597172902591,0.08914332929604848
22.902524,5.196173252752081,0.08894989145387115
22.90492,5.18882026778821,0.08874033703126323
22.907308,5.18202636133178,0.08849437270936751
22.909692,5.176163620435129,0.08824079179692462
22.912096,5.176307181777727,0.08791762305996231
22.91448,5.182457045359576,0.08752234508733554
22.916864,5.187396204127926,0.08715370047760994
22.91926,5.19633956438911,0.08673983689043269
22.921648,5.203280823903878,0.08635008048696406
22.924032,5.206217881925811,0.08600510264581983
22.926436,5.208223774387966,0.08566815618338186
22.928824,5.2097178101709245,0.08531107074682161
22.931204,5.209069975580607,0.08498559913252685
22.933608,5.206140500990149,0.08469918685468239
22.935996,5.196785415279861,0.08450579464742355
22.938376,5.185288459196297,0.08434311478446888
22.94078,5.174582899045651,0.08418176011432936
22.943164,5.163597799641284,0.08403753789991787
22.945544,5.152333160983195,0.08391083860418613
22.947948,5.144932954191081,0.08374742898535464
22.950336,5.140605783332021,0.08354526617227817
22.952716,5.134416281353404,0.08335627077363451
22.955116,5.1279472401210695,0.08318460843831044
22.9575,5.122549134075372,0.08299743580161308
22.959884,5.116219862469897,0.0828176597080716
22.96228,5.112684087543757,0.08262051932509604
22.964668,5.110079478177394,0.08241765076728608
22.967048,5.105332998437755,0.08224471591023418
22.969448,5.10310047612373,0.08207173540626428
22.971832,5.106594716795237,0.08185523698946005
22.974216,5.1067363822799665,0.08168994176864021
22.976612,5.107389904443893,0.08154478552194268
22.978996,5.109905757727377,0.08138810345279966
22.981376,5.116565582130555,0.08118220068719836
