Time,Force,Position
23.341484,0.0,0.0
23.343864,0.0,0.0
23.346264,0.0,0.0
23.348648,0.0,0.0
23.351032,0.0,0.0
23.353424,0.0,0.0
23.355812,0.0,0.0
23.358196,0.0,0.0
23.360592,0.0,0.0
23.36298,0.0,0.0
23.365376,0.0,0.0
23.367772,0.0008017210240442694,0.0
23.37016,0.0037453124213656,0.0
23.37254,0.00668890381868693,0.0
23.37494,0.009492725589148052,0.0
23.377328,0.015229813665804344,0.0
23.379708,0.020966901742460634,0.0
23.382112,0.029777025752172306,0.0
23.3845,0.03565388345568881,0.0
23.38688,0.03859747485301014,0.0
23.389284,0.04047013106369294,0.0
23.391672,0.04313418320729385,0.0
23.394052,0.04738102721673098,0.0
23.396448,0.05241926715908622,0.0
23.398836,0.05652634154166314,0.0
23.40122,0.057700149618044885,0.0
23.403616,0.057700149618044885,0.0
23.406004,0.05794279213464832,0.0
23.408384,0.05818543465125175,0.0
23.41078,0.05818543465125175,0.0
23.413168,0.05818543465125175,0.0
23.415548,0.05738371362720748,0.0
23.417944,0.05444012222988615,0.0
23.420332,0.05149653083256482,0.0
23.422712,0.048692709062103705,0.0
23.425108,0.04295562098544742,0.0
23.427496,0.03721853290879112,0.0
23.42988,0.028408408899079446,0.0
23.432276,0.022531551195562945,0.0
23.434668,0.01958795979824161,0.0
23.437048,0.017715303587558812,0.0
23.439444,0.0150512514439579,0.0
23.441832,0.010804407434520769,0.0
23.444216,0.005766167492165528,0.0
23.446612,0.0016590931095886068,0.0
23.449,0.0004852850332068574,0.0
23.451384,0.003381654602285037,0.0
23.45378,0.0031390120856816077,0.0
23.456168,0.002896369569078179,0.0
23.458552,0.003139012085681608,0.0
23.460948,0.003381654602285037,0.0
23.463336,0.003381654602285037,0.0
23.46572,0.003381654602285037,0.0
23.468116,0.007348959358001747,0.0
23.470504,0.013178595233275098,0.0
23.472888,0.017006130362131597,0.0
23.475284,0.02041435661040747,0.0
23.477672,0.02470652659021851,0.0
23.480056,0.028252626607485346,0.0
23.482452,0.037570815580656225,0.0
23.48484,0.05117084944251198,0.0
23.487224,0.07249785117844548,0.0
23.48962,0.10220344709451462,0.0
23.492012,0.1370748316308038,0.0
23.494392,0.17552921292147686,0.0
23.496788,0.22036008764586862,0.009483224324284162
23.499176,0.2720236614216769,0.01833986825954309
23.50156,0.33910617006639276,0.026508818657865363
23.50396,0.41549843845102274,0.03450958318621618
23.506348,0.49802455775276794,0.04259728635323426
23.508728,0.5892088104883694,0.050548575177280224
23.511128,0.6895733784281506,0.05833116946645578
23.513516,0.796593979055371,0.06614173980376625
23.515896,0.9032302716812585,0.0741650376981642
23.518296,1.0126581651286117,0.08231585936743797
23.520684,1.1306044223829608,0.09049452793614056
23.523068,1.2560453300859105,0.09860957346185151
23.525464,1.3833013470801736,0.10682483962533612
23.527852,1.519357162993022,0.11483627360044049
23.530236,1.6531785607339768,0.12282320515703807
23.532632,1.7818794958250852,0.1309292519542788
23.535024,1.9027136934152555,0.13905528792155775
23.537404,2.0163800016387894,0.14710444229996625
23.539812,2.1273019308691,0.1550036641664158
23.5422,2.236782733718304,0.16279560555906378
23.54458,2.34030635201437,0.16104774634313693
23.546976,2.42930530426419,0.1601189982144081
23.549364,2.5000549282286495,0.16012253097279366
23.551744,2.5616345620800565,0.1602735861897956
23.554148,2.6168377024977434,0.16033770276813025
23.556532,2.6613806087351577,0.16063798750504166
23.558916,2.6976374685910542,0.16110896829061497
23.561312,2.725096425386234,0.16167563149037817
23.563696,2.7486928461733093,0.162072482001396
23.56608,2.772570702071974,0.16209881501159756
23.568476,2.794076266029754,0.16188736102305173
23.57086,2.8066441572999574,0.16181287081204712
23.573244,2.8186548659205894,0.1615255004550926
23.57564,2.8218204496522623,0.1614582994618753
23.578028,2.821727901853645,0.16137618633163192
23.580408,2.824476072562606,0.16108485756434923
23.582812,2.826572616965509,0.16078908714071605
23.5852,2.8255961254353563,0.16064124402203137
23.58758,2.8200563539049295,0.16075652151453573
23.58998,2.8122349423743658,0.16099926942207446
23.592368,2.8038544523363607,0.1613188238760604
23.594748,2.8019921212168044,0.16139150315357145
23.597144,2.8085102801352524,0.1611307577641368
23.599532,2.81474889979998,0.16091019257199246
23.601912,2.822710080957405,0.16063832026622618
23.604304,2.8326733628612457,0.16026669414485537
23.606692,2.8399829177126117,0.15998352091026644
23.609072,2.851715982937393,0.15944779650954055
23.611472,2.8629371914829758,0.15888472616166088
23.61386,2.866429536296612,0.1586715696789357
23.61624,2.862844643684358,0.15879985663231796
23.61864,2.8651262836844955,0.15866759510289583
23.621028,2.868339089244411,0.15850477108044603
23.623408,2.8742056218568015,0.15825836302446752
23.625804,2.882586111894807,0.15795360061925895
23.628192,2.8872419396936984,0.1577851421237328
23.630588,2.8954826601048427,0.15750499838625032
23.632988,2.9073082731282414,0.15710951613493943
23.635376,2.922206922084694,0.15657019080064966
23.637756,2.937245340668007,0.15601067552512715
23.640152,2.9533546944379587,0.15540064076806653
23.64254,2.9700231267153514,0.15473351993370052
23.644924,2.989392507873462,0.15393139716225082
23.64732,3.0101123634719316,0.1530503866498275
23.649708,3.0273870960850084,0.15225726122047384
23.652092,3.0477348646311406,0.1513528991438394
23.654488,3.071295438737188,0.15030058840308802
23.656876,3.093365768776017,0.1493680591501014
23.65926,3.116879121053822,0.14842675839441521
23.661656,3.1439773659438797,0.14736951453641403
23.664044,3.173077711580354,0.14620563984934654
23.666428,3.196963150910496,0.1452861178464656
23.66882,3.2173562454270024,0.14455801321864348
23.671208,3.23695794401059,0.14385547667256138
23.673588,3.2509726492355076,0.14332833352786442
23.675992,3.2676410815129002,0.1427288224030008
23.67838,3.2764408804314855,0.14240973133318124
23.68076,3.2797934556182615,0.1422491731416673
23.683156,3.2811439300586205,0.14216618308150183
23.685544,3.2826341741258394,0.14206568877327058
23.687924,3.2833330222601402,0.141978010646048
23.69032,3.280539525580805,0.14206663250401141
23.692708,3.269178547408362,0.1425252806023587
23.695104,3.2555359292357813,0.1430934084217304
23.6975,3.2425449373692588,0.1436757815147434
23.699888,3.224339039196404,0.14447324318101182
23.702268,3.2066449977027465,0.1452800348733216
23.704672,3.1870886250895327,0.14614803722799083
23.707056,3.1700934317301765,0.14685514714322367
23.709436,3.151515446504984,0.1475851143777021
23.71184,3.136801893145765,0.14817721483721244
23.714228,3.126372080533101,0.1485859304095613
23.716608,3.11449924568146,0.14900640611197774
23.719004,3.1015554756431802,0.1494685605908258
23.721392,3.0932675334037927,0.14979313506912922
23.723772,3.085770987097323,0.1501025340813595
23.726176,3.0872140093362987,0.15009735740310945
23.72856,3.0930333201204454,0.1499837048814023
23.73094,3.1020654364645077,0.14973590294571318
23.733344,3.11095778318171,0.14950560525808979
23.735732,3.119430821018333,0.14932554535282822
23.738112,3.1319080603477882,0.14900117245291003
23.740516,3.149600205983576,0.14846326177308078
23.742904,3.170085848298699,0.14784068781590892
23.74528,3.193644526546878,0.14710255747341858
23.747684,3.2212074062878897,0.14621251053525358
23.750072,3.2479788900959843,0.1453469757151125
23.752452,3.2778234098371337,0.1443678765878054
23.754856,3.300590692152394,0.14365189370716944
23.757244,3.3269428670799073,0.14285111614399745
23.759624,3.351292941261004,0.14214017315937857
23.76202,3.3735011450688237,0.141532550905678
23.764404,3.3966405144364216,0.14088789236836652
23.766788,3.4177777830576024,0.14030491648261012
23.769188,3.436121554999448,0.13980564727628322
23.771576,3.452882535075458,0.13933249994554017
23.773956,3.4639167521659378,0.139037710648202
23.776352,3.476580982950497,0.13864358324912734
23.77874,3.486172177802,0.1383602971494631
23.78112,3.496834307840142,0.13803828441917432
23.783524,3.5120597178785586,0.137533196340106
23.785912,3.5238400049315826,0.1371003077057648
23.788292,3.531476320864913,0.1368092075255118
23.790688,3.5395319456788235,0.13647822419590588
23.793076,3.5485187360525123,0.1361323107675883
23.795456,3.5548517993737265,0.13584143991139153
23.79786,3.5633267330682177,0.1354824790918671
23.800248,3.5707307315760706,0.13516444299042973
23.802628,3.583070097136535,0.13470308811776463
23.805032,3.5899622389651897,0.13435985974227846
23.80742,3.597925315980483,0.13398484405851885
23.8098,3.601092795570025,0.13372947196707521
23.812196,3.609335411839039,0.1333265090542585
23.814584,3.61971989848133,0.13284792123954697
23.816964,3.6310355506833987,0.13234558224932838
23.81936,3.6462156347514423,0.131753146923858
23.821748,3.664189215498819,0.1310937442271396
23.824128,3.6828144225522554,0.1304590533970773
23.826524,3.7043728959118862,0.1297516363515973
23.828912,3.7239292685251004,0.1291008108337648
23.831292,3.736128864458705,0.12868169420464054
23.833688,3.7497714826312847,0.12826461749087897
23.836076,3.7707708774834745,0.12763091291491516
23.838456,3.7888370060294694,0.12707614443603843
23.84086,3.8022473067765725,0.12662321488356396
23.843248,3.8175199386432324,0.12613267050082727
23.845628,3.828928138643919,0.12573838371621945
23.848032,3.8376826115921303,0.12538694218676533
23.850416,3.8453661493537035,0.1250697982028155
23.8528,3.858776450100806,0.12462686787082218
23.855196,3.8673911534221577,0.12429119547867407
23.85758,3.8810809934229815,0.12381511165767922
23.859964,3.890487092677251,0.12347673231333724
23.86236,3.903757623797494,0.1230583509840571
23.864748,3.9191700252910144,0.12258184426026444
23.867128,3.9267137934257277,0.12228955723973098
23.869532,3.932535000067744,0.12202024906899761
23.87192,3.933420839657148,0.12186715241338753
23.8743,3.9335152833136346,0.12171993635779349
23.876704,3.9354720580896774,0.12153786067177205
23.879092,3.9426437391720532,0.12121544250431882
23.881472,3.948232628388592,0.12090200480858605
23.883868,3.945673344992604,0.1207940664269216
23.886256,3.9439054575295334,0.12068162960887938
23.888636,3.937853829319909,0.120692985648666
23.891032,3.931522661856564,0.1207301579976942
23.89342,3.9261226599529975,0.12074938018902287
23.895804,3.9253784858483227,0.12067940067160227
23.8982,3.9275675780498425,0.12054451751804615
23.900588,3.925612699131669,0.12051835138117378
23.902968,3.925380381706192,0.1204703021018832
23.905364,3.925939460213633,0.12041835574134144
23.907752,3.925846912415016,0.12035751862366686
23.910136,3.91881689681737,0.12045610198285528
23.912532,3.906571974913392,0.12069382128897903
23.91492,3.902055916741361,0.12076715262126661
23.9173,3.8995419593157457,0.12079264939375983
23.919696,3.899169872263408,0.12075772663561024
23.922084,3.897447310770711,0.1207791144733358
23.92448,3.8937226485315986,0.1208480723410802
23.926876,3.8857142455459313,0.1210381490891952
23.929264,3.8786370081200423,0.12121109330799591
23.931644,3.876355368119905,0.12128509310887502
23.93404,3.8751446633064055,0.12132842325605085
23.936428,3.8880884333446852,0.1210292845134621
23.938808,3.901591281890406,0.12068220172590895
23.941204,3.913883425622627,0.12037647780731747
23.943592,3.921379971929097,0.12016927642833611
23.945976,3.9211476545036197,0.12012156539839972
23.94838,3.9239883730111975,0.11999772135787974
23.950768,3.9311128322653293,0.11975735791934755
23.953148,3.934233090026628,0.11960901263559917
23.95554,3.9412177796539,0.11938399967370658
23.957928,3.9511357355873673,0.11909351047022886
23.960308,3.9693416337602225,0.1185978856650943
23.962716,3.9800982074548505,0.1182349332376409
23.965104,3.990854781149479,0.11787640287898282
23.967484,4.004544621150303,0.11746324773984476
23.96988,4.018653770031707,0.11701319798342148
23.972268,4.033461767047413,0.11649908348451708
23.974652,4.0537642096231705,0.1158345362161933
23.977048,4.077931084064903,0.11510778375598035
23.979436,4.1006549362676585,0.11438257960139496
23.981816,4.123518558097274,0.11365288420137076
23.984216,4.135440510635028,0.11315754264429415
23.986604,4.14722269354592,0.11267953235841029
23.988984,4.163148847576508,0.11211409348563715
23.991388,4.183218972726789,0.111459939364245
23.993776,4.20915563048946,0.11068855284994462
23.996156,4.232298791572798,0.1099638937153637
23.998552,4.251018442282718,0.10935909436016171
24.00094,4.272950898552556,0.10867609280644147
24.00332,4.29087915332956,0.10807732302802413
24.00572,4.31094927847984,0.10743344544897285
24.008108,4.319937964711398,0.10700662941655455
24.010488,4.333582478741849,0.1065093394909431
24.012884,4.349089323891855,0.10599385293633388
24.015272,4.357798470869692,0.10559323302931473
24.017652,4.367578553034169,0.10517114354810746
24.020052,4.381595154116955,0.10472554124728405
24.02244,4.392398949639827,0.10435733651505752
24.02482,4.3961255077368095,0.10412087747996344
24.027216,4.397430656206795,0.10395311991188093
24.029604,4.395662768743724,0.10384449591974772
24.031984,4.396548608333129,0.10370930228249177
24.034392,4.391148606429562,0.10370642408467527
24.036776,4.3829551078466595,0.10373982656452457
24.03916,4.368475767770788,0.10390593404753092
24.041556,4.356138298068192,0.10402022645875228
24.043944,4.345802929112014,0.1040979522986552
24.046328,4.336957804223054,0.104118839395841
24.048724,4.328764305640152,0.1041488099280191
24.051112,4.321501972617028,0.10416707424458001
24.053492,4.312097769220629,0.10423044636177488
24.055896,4.316568501422286,0.10406257437379675
24.058284,4.322901564743502,0.10387402903428002
24.060664,4.322948786571744,0.10380881021877357
24.063068,4.329514167318436,0.10366288962251752
24.065456,4.333378599184409,0.10360588735703463
24.06784,4.329374397691576,0.10367399224037172
24.070236,4.324019721758384,0.10378714920179244
24.07262,4.32588205287794,0.1037640863756798
24.075004,4.33174858549033,0.10367290858525713
24.0774,4.339197909968557,0.10357941534002055
24.079788,4.348928874446921,0.10343078016938403
24.082168,4.363734975604757,0.10318526295167951
24.084572,4.376119667135595,0.1030068274906632
24.08696,4.396372992025241,0.1026976983892394
24.08934,4.415136072847667,0.10245197892920625
24.09174,4.4324089096028745,0.10226323526391866
24.094124,4.452335473410557,0.10205498982739332
24.096508,4.473612511658597,0.10180944779122002
24.098904,4.494749780279778,0.10157413638039439
24.101292,4.514024717781403,0.1013593880242059
24.103672,4.522218216364305,0.1013353922537002
24.106068,4.524684951961676,0.10138789383588256
24.108456,4.53250636349224,0.10133174571811329
24.11084,4.535811716850773,0.10132009209847558
24.113244,4.540467544649665,0.1012648143260364
24.115632,4.553271545061084,0.10106762639983455
24.118016,4.569567890286138,0.10078494511876837
24.120412,4.579718163645084,0.10061287311706248
24.122796,4.586143774764915,0.10048451209070466
24.12518,4.593128464392186,0.10031364874409676
24.127576,4.595969182899765,0.10021785303037653
24.129964,4.600812002153759,0.10009084775781839
24.132344,4.608727857340809,0.09990976146599286
24.134748,4.613058819915607,0.09976305445052495
24.137136,4.616086529878288,0.09959644404045284
24.139516,4.621675419094828,0.09935844127429463
24.141912,4.621677314952698,0.0991819983650384
24.1443,4.614462203757817,0.09912852130062966
24.146684,4.606735235883739,0.09905400767975658
24.14908,4.603152239129355,0.09890734867983715
24.151468,4.600919716815331,0.09871777368033068
24.153852,4.60255162636728,0.09847522319605363
24.156248,4.603392139986311,0.09823457891809424
24.158636,4.608097085471314,0.09794327984392102
24.16102,4.611219239090483,0.0976504120094368
24.163416,4.609266256030177,0.09744088793714481
24.165804,4.604100467409958,0.09729228181572262
24.168184,4.600285153230097,0.09710195506011306
24.17058,4.60047404054307,0.09685141905784825
24.172968,4.599591992669404,0.09662079010859319
24.175348,4.602993685542291,0.09630977548996907
24.177748,4.604812586549343,0.09599949040843818
24.180136,4.607330335690696,0.09564019571307708
24.182516,4.609848084832049,0.09528155245861794
24.184916,4.612226064346541,0.09493386428830274
24.1873,4.608597741621783,0.09467086305249356
24.189684,4.6129778218826925,0.09429648141690053
24.192084,4.620710477330379,0.09384948917662903
24.194468,4.629374298337842,0.09339351646509733
24.196852,4.63482531378539,0.092997221838367
24.199248,4.642278429979355,0.09257157088257516
24.201636,4.650011085427042,0.09212882588861457
24.20402,4.652389064941534,0.09177893996608488
24.206416,4.6519735477766915,0.09145685280438433
24.208804,4.6540719880374635,0.09112820275556023
24.2112,4.657520902738595,0.09076006959079529
24.213596,4.662180522253226,0.09036241696451944
24.215984,4.666700372140997,0.08997384045290445
24.218368,4.666936481282212,0.08966124764388082
24.220764,4.673039123035818,0.08928054879500343
24.223152,4.678070829602786,0.08892191048950326
24.225532,4.683754162475812,0.08857660332050496
24.227932,4.6858053809083415,0.08831518295490899
24.23032,4.688647995273787,0.08805655964485765
24.2327,4.690000365572016,0.08784498521772163
24.235096,4.697359038109494,0.08755487133284418
24.237484,4.696150229153865,0.08740890295516023
24.239868,4.6998767872508465,0.0872058661661756
24.242268,4.706536611654025,0.08697268842788652
24.244652,4.714267371243841,0.08672194490925869
24.247036,4.723720692326354,0.08646794277515849
24.249432,4.730612834155009,0.08627710655014678
24.25182,4.743511278222915,0.0860113288938096
24.254204,4.759063449343295,0.08573478332097201
24.2566,4.7758263252771735,0.08543490927408551
24.258988,4.793240827517111,0.08514945152135399
24.261372,4.811446725689965,0.08486850094128133
24.263768,4.831514954982378,0.08457435552981137
24.266156,4.855727155394482,0.08422407891739939
24.26854,4.871279326514863,0.08395822253003504
24.270936,4.88296706576927,0.08372901379434572
24.273324,4.8927924739041195,0.08351404717523606
24.275708,4.908763953905081,0.0832226211860999
24.278104,4.924735433906042,0.08293351786480548
24.280492,4.94419925872064,0.08257901779788006
24.282872,4.961241673908239,0.0822775304154472
24.285268,4.981636664282614,0.08191542216366793
24.287656,4.995606043537158,0.08165139615913729
24.29004,5.00450028611223,0.08144911160862743
24.29244,5.015536399060578,0.08121766358192951
24.294828,5.023918784956453,0.08099717572970762
24.297208,5.036864450852601,0.08069880234416558
24.299608,5.048227324882913,0.08039711688438997
24.301996,5.055585997420391,0.08013772368361004
24.30438,5.062293043651812,0.07986917084687688
24.306776,5.069000089883233,0.07960214098981505
24.309164,5.0738448049950975,0.07934698538327742
24.311544,5.078969059360682,0.07907577682567524
24.313944,5.0833019177933485,0.0788037223965351
24.316328,5.094292704771323,0.07848458049632077
24.318708,5.110870485107967,0.07813333055681715
24.321112,5.1305213013776685,0.07775078563133073
24.3235,5.145236750594757,0.0774162006021957
24.325884,5.158089868692289,0.07709267495167275
24.32828,5.168940886043404,0.07679079218161641
24.330668,5.179140277088462,0.07647610422756859
24.333052,5.191761077760516,0.0761201026046192
24.335448,5.207874223246207,0.0757058775098268
24.337836,5.225989469478312,0.07527163889706268
24.34022,5.240100514217586,0.07487593726296322
24.342616,5.255934120449557,0.0744800873217541
24.345004,5.266552820375194,0.07414457593518235
24.347388,5.277823146606889,0.07382311529858619
24.349784,5.294448148771777,0.07343761332675469
24.352172,5.309443137242586,0.0731008413495425
24.354552,5.3215048594072,0.0727858111100174
24.356948,5.332635416012034,0.07247391561610372
24.35934,5.3433466637362885,0.07218943360689431
24.36172,5.351496732206686,0.07195631997669828
24.364124,5.354851203251331,0.07175463195009604
24.366508,5.355691716870362,0.07155066656903075
24.368892,5.354390360116116,0.0713726359103455
24.371288,5.353089003361869,0.07119405538679233
24.373672,5.351927416234483,0.07100661851344668
24.376056,5.34862395873382,0.07084362367741025
24.378452,5.347602141233294,0.0706474336357296
24.38084,5.341085878172715,0.07052116979428942
24.38322,5.332427744738858,0.07041918521291105
24.385616,5.322838445745224,0.0703208158045162
24.388004,5.315111477871146,0.07021410272140817
24.390396,5.308734984437427,0.07007867451607662
