Time,Force,Position
4.061876,0.052748884169407734,0.0
4.064255999999999,0.0516779489827692,0.0
4.066659999999999,0.06324968066455788,0.0
4.069044,0.07326018439664214,0.0
4.071423999999999,0.08164067443464701,0.0
4.073827999999999,0.09924027227181806,0.0
4.076215999999999,0.11868063731241392,0.0
4.078591999999999,0.13639844086031336,0.0
4.081,0.15518717959485134,0.0
4.083383999999999,0.17225335683669285,0.0
4.085763999999999,0.18733899724824934,0.0
4.08816,0.19949137135361067,0.0
4.090544,0.21334474303553663,0.0
4.092924,0.2282690499041011,0.0
4.095327999999999,0.23776769695698763,0.0
4.097712,0.24032887621084537,0.0
4.100092,0.23795468841209103,0.0
4.102495999999999,0.23343863024005962,0.0
4.104884,0.22999350725466677,0.0
4.107263999999999,0.22747954982905222,0.0
4.109655999999999,0.22403442684365937,0.0
4.112043999999999,0.22152046941804482,0.0
4.114424,0.20994873773625616,0.0
4.116828,0.19807590288461524,0.0
4.119211999999999,0.18571277526990848,0.0
4.121595999999999,0.1672035757890909,0.0
4.123987999999999,0.14776321074849505,0.0
4.126375999999999,0.13004540720059563,0.0
4.128755999999999,0.11125666846605767,0.0
4.131152,0.09419049122421612,0.0
4.133535999999999,0.0783350187958733,0.0
4.135931999999999,0.06541281267372567,0.0
4.138328,0.05155944099179973,0.0
4.140715999999999,0.03663513412323525,0.0
4.143091999999999,0.026018330055467005,0.0
4.145496,0.02485295121234217,0.0
4.147884,0.025270364235053557,0.0
4.150264,0.02955220912373844,0.0
4.152659999999999,0.03406637143790058,0.0
4.155047999999999,0.040163325617898954,0.0
4.157428,0.04677213647709501,0.0
4.159832,0.054032573642348966,0.0
4.16222,0.06271446913044715,0.0
4.1646,0.07020722372117837,0.0
4.166995999999999,0.07819027107497548,0.0
4.169383999999999,0.08882704548124737,0.0
4.171764,0.0991842806337988,0.0
4.174159999999999,0.1081910413459913,0.0
4.176547999999999,0.11784942836424173,0.0
4.178932,0.13109270799474518,0.0
4.181327999999999,0.14806064986436193,0.0
4.183715999999999,0.16446951322653786,0.0
4.186112,0.18087837658871378,0.0
4.188507999999999,0.2000807366302247,0.0
4.190892,0.21297349312452246,0.0
4.193275999999999,0.22148996107364907,0.0
4.195679999999999,0.23256760827663336,0.0
4.198063999999999,0.24071198917342249,0.0
4.200443999999999,0.2557012900706234,0.0
4.20284,0.26724546798243154,0.0
4.205228,0.2801401203345986,0.0
4.207607999999999,0.29331431194048607,0.0
4.209999999999999,0.3082582868673131,0.0
4.212387999999999,0.32590321067485806,0.0
4.214784,0.3467609400423186,0.0
4.217179999999999,0.36189190642424895,0.0
4.219567999999999,0.3782335776196781,0.0
4.221947999999999,0.3979278240018831,0.0
4.224343999999999,0.41697044407803013,0.0
4.226732,0.4310776971015652,0.0
4.229111999999999,0.43689700788571234,0.0
4.231515999999999,0.4435077146027776,0.0
4.233903999999999,0.45277214837231766,0.0
4.236284,0.4586840069550819,0.0
4.238679999999999,0.47604939150890646,0.0
4.241067999999999,0.49350732386134805,0.0
4.243447999999999,0.5059826673329343,0.0
4.245851999999999,0.5231138386034124,0.0
4.248235999999999,0.5318172980076423,0.0
4.250615999999999,0.5418240100239882,0.0
4.253019999999999,0.552622117973252,0.0
4.255407999999999,0.5639320826017136,0.0
4.257792,0.5746829687227344,0.0
4.260187999999999,0.5813824315226782,0.0
4.262571999999999,0.5827272183894296,0.0
4.264956,0.5938029697345446,0.0
4.267348,0.6055303473857174,0.0
4.269736,0.6168384161563099,0.0
4.272115999999999,0.6278669456731818,0.0
4.274512,0.6422480503768295,0.00826694981327761
4.2769,0.663474075080889,0.01609034356452519
4.279295999999999,0.6839559256802734,0.023836621650979613
4.281692,0.7009926532942651,0.0316341449934429
4.284079999999999,0.716865897923001,0.0396087235737986
4.28646,0.7243586525137323,0.03960872357379859
4.288855999999999,0.7301760674400103,0.039608723573798604
4.291243999999999,0.7421867760606422,0.047228224675873176
4.293623999999999,0.7473072387104884,0.047228224675873176
4.296028,0.7525674709871948,0.047228224675873176
4.298411999999999,0.7569437595323659,0.047228224675873176
4.300792,0.7606684217714791,0.047228224675873176
4.303196,0.7632296010253369,0.047228224675873176
4.305584,0.7629972835998597,0.047228224675873176
4.307964,0.7628121880026255,0.047228224675873176
4.310359999999999,0.7679817683385841,0.047228224675873176
4.312747999999999,0.762768757890121,0.047228224675873176
4.315132,0.7582545955759589,0.047228224675873176
4.317523999999999,0.7521576413959604,0.047228224675873176
4.319911999999999,0.7483423272160993,0.04722822467587318
4.322291999999999,0.7408023507971249,0.03896127486259557
4.324691999999999,0.7329828351244301,0.03113788111134798
4.327079999999999,0.7256751761309329,0.023391603024893563
4.329459999999999,0.7180879778837155,0.015594079682430276
4.331856,0.7122233411291945,0.0076195011020745735
4.334244,0.707429639561312,0.0076195011020745735
4.336627999999999,0.7028682554189065,0.0076195011020745735
4.339024,0.6969563968361422,0.0
4.341408,0.6955605964254093,0.0
4.343807999999999,0.6984485367612306,0.0
4.346204,0.7026397297091678,0.0
4.348592,0.705620217843606,0.0
4.350975999999999,0.7083211667243239,0.0
4.353372,0.714654230045538,0.0
4.35576,0.7256431211656437,0.0065333060711800965
4.358143999999999,0.7329073500466361,0.013095442811413685
4.360539999999999,0.7448274067265201,0.019568546113576744
4.362931999999999,0.7503218522865731,0.019568546113576744
4.365311999999999,0.755164671540568,0.019568546113576744
4.367707999999999,0.7602870300482834,0.026191680211689453
4.370096,0.7649900796754182,0.026191680211689446
4.372475999999999,0.7666200933694975,0.026191680211689446
4.374872,0.7713231429966323,0.032879230535591275
4.37726,0.7761659622506273,0.032879230535591275
4.37964,0.783010882251039,0.03940861995767205
4.382035999999999,0.7945116300503424,0.045545072361307656
4.384423999999999,0.8095047226632818,0.0513768029953964
4.386804,0.8206333834102477,0.05734679189273939
4.389208,0.8316222745303534,0.06324628737173711
4.391591999999999,0.8404692952771821,0.06914578285073486
4.393972,0.848804459344813,0.07493852912907942
4.396376,0.8566277667332464,0.08069120568852217
4.398764,0.8625887430021231,0.08658287381208536
4.401143999999999,0.8667799359500603,0.09258791804765283
4.403547999999999,0.869388337032161,0.09182056469918162
4.405932,0.8739988388606786,0.09085149655463891
4.408315999999999,0.8778179447562783,0.0899188871159829
4.410712,0.8896454536375452,0.09518246293822595
4.413096,0.9030557543846485,0.10039488824587184
4.415476,0.9100404440119205,0.09935473044658216
4.417879999999999,0.9228916662515828,0.10470845636616917
4.420264,0.9341128747971659,0.1104749953151175
4.422647999999999,0.9376505455811758,0.11050146571378627
4.425044,0.9446786653209525,0.11763282700573253
4.427427999999999,0.950354414762501,0.11911403702526313
4.429824,0.9594733913315733,0.12102288539893503
4.432219999999999,0.971336746893868,0.12358108541162433
4.434607999999999,0.9940926540619128,0.12586853921880803
4.436988,1.0222938891038982,0.12830023027648013
4.439383999999999,1.0610155886992962,0.13043357188570434
4.441771999999999,1.1049030769149142,0.13280763374666468
4.444148,1.156749850430087,0.13522952307253308
4.446543999999999,1.2200482540584514,0.13734056421316213
4.448931999999999,1.2922843303743923,0.1392378394020578
4.451328,1.3664733897506371,0.14161400761791745
4.453723999999999,1.444897072187324,0.14425572049948174
4.456107999999999,1.5315595791772862,0.1468901268963913
4.458492,1.620362060682656,0.14980187551019425
4.460896,1.716100114129186,0.15269241421696372
4.463284,1.8238488761963474,0.155147350239476
4.465663999999999,1.9317355120325,0.15793834156905628
4.46806,2.0558240494372213,0.15998644696272304
4.470447999999999,2.192716587253362,0.1609324889894986
4.472828,2.3312863605918253,0.16137409910744824
4.475232,2.474421309788432,0.16075216173468124
4.477615999999999,2.610807678498983,0.16003821245298294
4.479996,2.7427271067236147,0.15892265666997643
4.4824,2.8661753929694935,0.157882943228509
4.484788,2.982455789848735,0.1567787229119329
4.487167999999999,3.0855619951220903,0.1560298369336238
4.489564,3.1841540380812825,0.15512302738466632
4.491952,3.276788896487337,0.15414208217744546
4.494332,3.359182829593699,0.15332794304206065
4.496727999999999,3.434129334079704,0.15256265556754417
4.499112,3.508054021065182,0.15147028467680446
4.501491999999999,3.5757419842438023,0.1502937224923349
4.503888,3.6322578565629517,0.14924536113883938
4.506276,3.6847714232471365,0.14813679485904202
4.508671999999999,3.728347317243745,0.14713737505410865
4.511068,3.7640564737394153,0.14620300694225521
4.513456,3.799115899786897,0.1450526898291148
4.515836,3.8177411068403324,0.14431341298667263
4.518239999999999,3.8305942249378644,0.1436282892331318
4.520624,3.8412129248635014,0.1429731299723424
4.523007999999999,3.8486188192292237,0.14244630742124584
4.525404,3.8533237647142276,0.1420464161647955
4.527787999999999,3.858540566878429,0.14166850205159803
4.530168,3.8624068946022723,0.14135495628085423
4.532563999999999,3.8694860278860306,0.14093613659031912
4.534951999999999,3.8794984274759847,0.14043359863823104
4.537331999999999,3.8868571000134633,0.13998292360476727
4.539731999999999,3.8919341325508046,0.13961954435346582
4.542119999999999,3.8967316258344256,0.1392823328479275
4.544499999999999,3.900597953558268,0.13896941294725693
4.546895999999999,3.9012514757221957,0.13876493348818333
4.549284,3.906840364938735,0.13842852053773722
4.551679999999999,3.9195064915811635,0.1378924124247068
4.554075999999999,3.9303102871040347,0.1374031526964273
4.556464,3.944466657813682,0.13680091563683433
4.558843999999999,3.956760697403773,0.13623617920246978
4.56124,3.963327974008334,0.1358119987070033
4.563628,3.970174789866615,0.1353523073812123
4.566008,3.969804598672147,0.13510795051479424
4.568411999999999,3.9657097452385655,0.1349489325153445
4.5708,3.956959064006092,0.13489618625989364
4.573176,3.9506297924006164,0.1347457726346249
4.575576,3.9435091248622225,0.13460239438046992
4.577964,3.9354572917640502,0.13448028327352338
4.580344,3.9240528834791024,0.13447599984267494
4.582739999999999,3.91437103668685,0.1344410678369238
4.585132,3.9079019954545147,0.1343014259827972
4.587511999999999,3.9006415582892604,0.13416896790540422
4.589907999999999,3.8973853226168407,0.13392536853932338
4.592295999999999,3.890124885451586,0.13379221632474134
4.594676,3.8832837571669128,0.13361697243413245
4.59708,3.868434225896572,0.13366597806904396
4.599468,3.8466472268272023,0.1338990538843222
4.601847999999999,3.8228581270114157,0.13419096006247058
4.604251999999999,3.795856221635714,0.13458236539664237
4.606639999999999,3.7748606184992624,0.13480081922171047
4.609019999999999,3.7595917783483412,0.1348795925002358
4.611416,3.75004970118295,0.13482219335882784
4.613804,3.7511697540557014,0.13450371339340084
4.616187999999999,3.7572251739810643,0.13406098961640386
4.618583999999999,3.7662138602126225,0.13354184567617924
4.620972,3.7724090497648457,0.1330798247790889
4.623351999999999,3.7816772752501246,0.13253876818942784
4.625755999999999,3.79280783185496,0.1319557981986081
4.62814,3.8059404892062116,0.13132053662293516
4.630523999999999,3.81520871469149,0.13077801291211597
4.632919999999999,3.8229866961095498,0.13031228865061312
4.635308,3.8354205053265007,0.12975293009717817
4.637687999999999,3.8429189474908396,0.129318480486324
4.640091999999999,3.85507321745407,0.12878330691136322
4.642479999999999,3.8717435455893323,0.12817555215059934
4.64486,3.892557844844288,0.12744206250705123
4.647255999999999,3.9169570367114965,0.12663941403652523
4.649643999999999,3.93842296227251,0.12588745682026667
4.652023999999999,3.961099592647023,0.12508672120834055
4.654423999999999,3.9766989855956463,0.12448635907631728
4.656811999999999,3.986943702611077,0.12405612369737942
4.659191999999999,3.998119585186286,0.12361978685832664
4.661595999999999,4.000635438469769,0.12338231110445459
4.663979999999999,3.99900732063356,0.12325876207855792
4.666364,3.998310368357128,0.12311742601317552
4.668764,4.0039918053722845,0.12286497728936654
4.671151999999999,4.002316465707831,0.12281456201530598
4.673535999999999,3.9975680901103225,0.1228442844688284
4.675932,3.992819714512814,0.12287310431942623
4.678319999999999,3.9902132092885823,0.12284029397287673
4.680703999999999,3.9877464736912107,0.12279437457111933
4.6831,3.9804841406680866,0.12285003029474098
4.685487999999999,3.974432512458462,0.12286246476570012
4.687871999999999,3.9665185531292817,0.12291072577056145
4.690268,3.9515273563742115,0.12313573786747825
4.692651999999999,3.9371877859251985,0.12336669450785284
4.695036,3.921777280289548,0.1236276899508354
4.697431999999999,3.9150268039456226,0.12370432308055897
4.699816,3.908927953907755,0.1237883195260014
4.7022,3.906973074989581,0.12376329595559342
4.704595999999999,3.907299836071545,0.12366336114706968
4.706983999999999,3.8977558630482845,0.1237961452186169
4.709368,3.8922160915178576,0.1238306110979862
4.711763999999999,3.8876074855472087,0.12384718204068047
4.714151999999999,3.8824398010691192,0.12391599303905386
4.716531999999999,3.8734076847250574,0.12406684030112632
4.718928,3.8693109354336066,0.1241042731778429
4.721316,3.870149553194768,0.12402510924342737
4.723711999999999,3.8679151350228738,0.12402673137920635
4.726108,3.8641904727837604,0.12409982086400463
4.728496,3.8603260409177866,0.12418601940401079
4.730879999999999,3.8603260409177866,0.12418601940401079
4.733276,3.8616292935299024,0.12420263647405706
4.735664,3.864794877261575,0.1241828640688525
4.738043999999999,3.869031396179886,0.12412950018303574
4.74044,3.8743388502848357,0.12404549606834836
4.742827999999999,3.879925843643506,0.12393478958142773
4.745211999999999,3.882719340322841,0.12388098131018657
4.747615999999999,3.884441901815537,0.12385831470355918
4.75,3.8858849240545132,0.12386207304887484
4.752383999999999,3.8890505077861857,0.12384403397793836
4.754779999999999,3.9008761208095835,0.12363901928842475
4.757168,3.9081384538327066,0.12358215274223013
4.759551999999999,3.917263117975386,0.12349050784263163
4.761947999999999,3.925875925438868,0.12337778687033815
4.764336,3.931415696969295,0.12334320136141938
4.766715999999999,3.9338824325666666,0.12338922643969434
4.769112,3.9362093985371773,0.12344841686046659
4.771495999999999,3.9414696308138844,0.12344037058270457
4.77388,3.949011503090728,0.12335657433759945
4.776275999999999,3.9564136057407113,0.12328564740443045
4.778663999999999,3.962744773204056,0.12324735314458123
4.781044,3.968424314361343,0.12320077821697507
4.783439999999999,3.9731726899588518,0.12317228961731831
4.785827999999999,3.9809941014894155,0.12306406796368669
4.788212,3.9869531819004234,0.12299278292494746
4.790607999999999,3.9907703919381534,0.12298207616464059
4.792995999999999,3.9945876019758835,0.12297201314663812
4.79538,3.994540380147641,0.12304558075295764
4.797775999999999,3.9935619927596195,0.12313682082715695
4.800163999999999,3.9888589431324846,0.12329947376565095
4.80256,3.9827128712663735,0.12345539429636099
4.804955999999999,3.983132180146954,0.12341678571608179
4.807343999999999,3.9821084667885587,0.12337450879244101
4.809723999999999,3.9812245230570236,0.12331943427790842
4.812128,3.985695255258681,0.12311482500449109
4.814515999999999,3.9936583322739745,0.12279420670675624
4.816896,4.00110955261007,0.12245673411052031
4.819291999999999,4.0089800818267465,0.12208473782099377
4.821679999999999,4.016059215110505,0.12171891916426157
4.824064,4.023837196528565,0.1212916697654531
4.826459999999999,4.030311925334509,0.12084848054273319
4.828847999999999,4.040278998954088,0.12030179101440597
4.831227999999999,4.051876086267748,0.11968227948595128
4.833623999999999,4.060819446528932,0.1190970308863604
4.836012,4.069902576416976,0.11850094397375616
4.838391999999999,4.0806157199991,0.11782408622096253
4.840791999999999,4.088675136528749,0.11718126907100444
4.843176,4.1012978330586725,0.11639452069417938
4.845559999999999,4.114619377722897,0.11554904320441978
4.847956,4.128220461640842,0.11467004360473672
4.850344,4.139028048879451,0.11384005527349274
4.852723999999999,4.147321678692447,0.11304291015623276
4.855124,4.152542272572388,0.11231198974904844
4.857512,4.155760765705911,0.11162150566162525
4.859891999999999,4.157256697346738,0.11095424482340134
4.862288,4.158892398614425,0.11027987184327759
4.864675999999999,4.158665768762556,0.10963578582397383
4.867056,4.157507973350907,0.10900846044657236
4.869456,4.154348077192843,0.1084191018561138
4.871843999999999,4.150908641781058,0.10785442216414014
4.874239999999999,4.1461187319289134,0.10733680246539624
4.876636,4.135462289464379,0.10692522802067318
4.879023999999999,4.123455372559485,0.10656214848864068
4.881407999999999,4.116663361960923,0.10608528031157628
4.883804,4.1081487898696665,0.1056206680007855
4.886191999999999,4.102287944830884,0.10512982883498279
4.888572,4.1019215453521545,0.10450813024613702
4.890967999999999,4.1034174769929805,0.10386663460953466
4.893355999999999,4.10342316456659,0.10328318273517663
4.895735999999999,4.107572823259892,0.10261977401214852
4.898135999999999,4.110372007512835,0.10199606431306664
4.900523999999999,4.11088955176564,0.10142978703024935
4.902904,4.114480131951501,0.10080164507700029
4.905299999999999,4.120212582510638,0.10012465846316118
4.907687999999999,4.123942932323359,0.0994822016212095
4.910067999999999,4.122598145456608,0.09893048524859992
4.912467999999999,4.121253358589856,0.09837723208857478
4.914852,4.118977406163326,0.0978351521657283
4.917235999999999,4.118983093736934,0.09723318021432202
4.919632,4.118337155004484,0.0966189258073901
4.92202,4.1195535473915905,0.09597954191552202
4.924415999999999,4.122352731644533,0.09533595361086943
4.926812,4.126083081457255,0.0946838486019166
4.9292,4.124318985709922,0.09416092361598558
4.931583999999999,4.12320651626865,0.09364755966051133
4.93398,4.118369384588262,0.09317851880840154
4.936368,4.10854966402702,0.09285826375831711
4.938751999999999,4.092583871599667,0.09264608047173294
4.941148,4.077689014358952,0.09241052190230975
4.943536,4.059581351558321,0.09223812619464673
4.945915999999999,4.044686494317607,0.09199877403452326
4.948316,4.032445364129368,0.09173919521283841
4.950704,4.019924694687407,0.09150180092763732
4.953083999999999,4.010197521924781,0.09123411736639445
4.9554839999999984,4.005917572893965,0.09092032056858254
4.957872,4.009366487595097,0.09050810049304105
4.960255999999999,4.014537963788924,0.09008968662321935
4.962651999999999,4.020500835915669,0.08967368916733114
4.96504,4.024042298415417,0.08932048740095934
4.967419999999999,4.030889114273699,0.08896788590215654
4.969819999999999,4.037224073452783,0.08859107863508929
4.972208,4.043419263005005,0.08822386778645966
4.974587999999999,4.04868328699745,0.08786757027019536
4.976987999999999,4.057951512482729,0.08745445830132734
4.979375999999999,4.0702927739010635,0.08699590037274954
4.981755999999999,4.085147992745012,0.08653465452603562
4.984155999999999,4.10149345565618,0.08601992370421466
4.986543999999999,4.124916155993236,0.08540170613080961
4.988928,4.149409791516932,0.08477000757743147
4.991323999999999,4.176557154093102,0.08412901490361607
4.993711999999999,4.205427078161968,0.0834913850649178
4.996096,4.233785145551637,0.08283562749756465
4.998495999999999,4.261212047381528,0.08218771887049231
5.000883999999999,4.283703582158806,0.08160596003365349
5.003264,4.299397418763917,0.08110224346585099
5.005668,4.313089154622609,0.08063457436006001
5.008051999999999,4.325709955294663,0.08018729621626561
5.010432,4.337120051153218,0.07976799963483121
5.012836,4.353745053318106,0.07927449436444742
5.015224,4.365574458057242,0.07882794787175021
5.017603999999999,4.380848985781771,0.07838028164338123
5.020007999999999,4.399476088693076,0.07787456309665862
5.022395999999999,4.413028054924909,0.07742757181763689
5.024775999999999,4.424717690037185,0.07699784579150726
5.027175999999999,4.433334289216406,0.07661072748416599
5.02956,4.4420906580224875,0.07621620926394031
5.031943999999999,4.44842561720157,0.07587415106629179
