Time,Force,Position
4.669356,0.2804354657570347,0.0
4.671736,0.2845794368767286,0.0
4.674131999999999,0.28723316392920334,0.0
4.676519999999999,0.29458994060881283,0.0
4.678904,0.2964522717283694,0.0
4.681304,0.296172732474649,0.0
4.683692,0.29496202766115026,0.0
4.686072,0.2883966469144589,0.0
4.6884760000000005,0.277966834301794,0.0
4.690864,0.26753702168912913,0.0
4.693243999999999,0.2612511801961582,0.0
4.695647999999999,0.2531030075836305,0.0
4.698035999999999,0.24481506534424274,0.0
4.700416,0.2353164182913562,0.0
4.70282,0.22488660567869131,0.0
4.705203999999999,0.2103128219463325,0.0
4.707584,0.19052905888755514,0.0
4.709979999999999,0.17260762694833448,0.0
4.712368000000001,0.15589689982261257,0.0
4.714747999999999,0.14011733825666894,0.0
4.717152,0.1254087118773639,0.0
4.719539999999999,0.11191079031155761,0.0
4.72192,0.09762147281283316,0.0
4.724324,0.08105051531397146,0.0
4.726708,0.06769236337502532,0.0
4.7290920000000005,0.054473981062939394,0.0
4.731488,0.04218676431063181,0.0
4.733876,0.03311235311823981,0.0
4.736256,0.027110977858903196,0.0
4.73866,0.022971933719123216,0.0
4.741044,0.015759853646287864,0.0
4.743424,0.011987969578931426,0.0
4.745828,0.008495624765295416,0.0
4.748216,0.005427515812153968,0.0
4.750595999999999,0.0024942495059587927,0.0
4.752999999999999,0.0015680109260944087,0.0
4.755384,0.0015680109260944087,0.0
4.757763999999999,0.0015680109260944087,0.0
4.760167999999999,0.0015680109260944087,0.0
4.762555999999999,0.0015680109260944087,0.0
4.764936,0.002541471334201948,0.0
4.767335999999999,0.002583766182531166,0.0
4.76972,0.0034174569637784886,0.0
4.772104,0.004530686998746232,0.0
4.774508,0.006435312966632087,0.0
4.776891999999999,0.006435312966632087,0.0
4.779276,0.007408773374739627,0.0
4.781672,0.010663873782984435,0.0
4.7840560000000005,0.013779204564369032,0.0
4.786435999999999,0.01689453534575363,0.0
4.788835999999999,0.01786799575386117,0.0
4.79122,0.018194756835824746,0.0
4.7936000000000005,0.01740828788282057,0.0
4.796003999999999,0.01740828788282057,0.0
4.798392000000001,0.018758762323179523,0.0
4.800771999999999,0.02210641053004139,0.0
4.803171999999999,0.027316389856459893,0.0
4.805556,0.036810109929432525,0.0
4.807939999999999,0.048445700375682216,0.0
4.810336,0.061012456381710226,0.0
4.812724,0.07060365123321385,0.0
4.815103999999999,0.08219694683113432,0.0
4.8175,0.0931386161229969,0.0
4.819888,0.10272981097450053,0.0
4.822268,0.1096672787735294,0.0
4.824663999999999,0.12265334366013805,0.0
4.827051999999999,0.13545734407155727,0.0
4.829436,0.14369806448270192,0.0
4.831840000000001,0.14807435302787308,0.0
4.834228,0.15137970638640574,0.0
4.836607999999999,0.1569666997450757,0.0
4.839004,0.16069136198418896,0.0
4.841392,0.1686022901913254,0.0
4.843775999999999,0.1797260239583774,0.0
4.84618,0.18829350545148565,0.0
4.8485640000000005,0.19485888619817704,0.0
4.850943999999999,0.20077264063881053,0.0
4.853348,0.20026078395961286,0.0
4.855732000000001,0.19360285541430436,0.0
4.858111999999999,0.18573422205549717,0.0
4.860508,0.17693442313691166,0.0
4.862896,0.16599275384504908,0.0
4.865276000000001,0.15612201973982498,0.0
4.867679999999999,0.15118665268721296,0.0
4.870064,0.14918455194079608,0.0
4.872444000000001,0.1419675448880468,0.0
4.87484,0.1362407819025167,0.0
4.877228,0.1330751981708443,0.0
4.879611999999999,0.13819755667855968,0.0
4.882008,0.14932621742552563,0.0
4.884396,0.16539024522510354,0.0
4.886776,0.18424776970401646,0.0
4.889171999999999,0.1978903878765969,0.0
4.891559999999999,0.20631809974284498,0.0
4.893944,0.2150253508628134,0.0
4.89634,0.2220100404900854,0.0
4.8987240000000005,0.223779823811025,0.0
4.901103999999999,0.22969357825165854,0.0
4.903503999999999,0.24068246937176427,0.0
4.905892000000001,0.25316160455908915,0.0
4.908271999999999,0.2676428404928309,0.0
4.910676,0.28519711235962797,0.0
4.913063999999999,0.30126114015920596,0.0
4.915444,0.31066723941347546,0.0
4.917848,0.32086473460066306,0.0
4.920232,0.33013106422807237,0.0
4.922612,0.33190084754901195,0.0
4.925007999999999,0.33138899086981427,0.0
4.927395999999999,0.32244942232436863,0.0
4.929776,0.30764332116653254,0.0
4.93218,0.28501883960017715,0.0
4.934568,0.26146319247404337,0.0
4.936948,0.23990964609432647,0.0
4.939352,0.22035820046102644,0.0
4.941736,0.2015981507606445,0.0
4.944119999999999,0.1847004321798192,0.0
4.946516,0.17180691509182763,0.0
4.948899999999999,0.1569112972574192,0.0
4.951284,0.14094474423637224,0.0
4.953684,0.12376748640182655,0.0
4.956072,0.10854207636340985,0.0
4.958452,0.0902938833422256,0.0
4.960856000000001,0.0723252295747618,0.0
4.963244,0.05715007248663293,0.0
4.965623999999999,0.040112584278947434,0.0
4.968028,0.02507719681767879,0.0
4.970415999999999,0.015256715662742587,0.0
4.972796,0.007438335254223237,0.0
4.975191999999999,0.004225529694307646,0.0
4.977576,0.001482285965260531,0.0
4.9799560000000005,0.001482285965260531,0.0
4.982359999999999,0.002223428947890798,0.0
4.984748000000001,0.005618298982995814,0.0
4.987127999999999,0.009804564951018942,0.0
4.989532,0.015201535732540811,0.0
4.99192,0.021529672073841002,0.0
4.9943,0.026786873228502657,0.0
4.996695999999999,0.03069359994280536,0.0
4.999083999999999,0.037393823336443026,0.0
5.001464,0.03808774449083014,0.0
5.003868,0.03776098340886657,0.0
5.006251999999999,0.03776098340886657,0.0
5.008632,0.03776098340886657,0.0
5.0110280000000005,0.03776098340886657,0.0
5.013412,0.03817536530953327,0.0
5.015795999999999,0.04124347426267471,0.0
5.018199999999999,0.04724484952201132,0.0
5.020587999999999,0.05576018220696249,0.0
5.022972,0.06483762452139918,0.0
5.025367999999999,0.07847341985619648,0.0
5.027755999999999,0.09005989261633378,0.0
5.030136,0.10551382836448926,0.0
5.032531999999999,0.1205484552320641,0.0
5.0349200000000005,0.1353960906445356,0.0
5.037299999999999,0.14735578572118585,0.0
5.039696,0.16406385639534474,0.0
5.042084,0.1856600722938725,0.0
5.0444640000000005,0.2104218719240727,0.0
5.04686,0.2332741186064731,0.0
5.049248,0.26795197831227124,0.0
5.0516440000000005,0.3041654080556625,0.0
5.05404,0.3456813649240893,0.008777895418269982
5.056428,0.3898038270167477,0.017549488786071203
5.058808,0.4366725639604979,0.02625288438610936
5.061212,0.4841506323619768,0.03507756031875725
5.063596,0.5326524141218512,0.043721387016407355
5.065976,0.5791048733070654,0.052532718026344294
5.068371999999999,0.6231359228652822,0.06156613366484446
5.070759999999999,0.6677260509309397,0.07048104309559887
5.073144,0.7085915167574841,0.07950146715255041
5.075539999999999,0.7563019025844402,0.08795184212783037
5.077924,0.798053208000389,0.09664908582159218
5.080303999999999,0.8402238222969184,0.10510421014263564
5.082707999999999,0.8833728239814692,0.11347089651550288
5.085095999999999,0.9323430323080366,0.12137222858751394
5.08748,0.9784271961566517,0.12905114576213045
5.089875999999999,1.019483445154038,0.1368844051905779
5.092263999999999,1.061657851166306,0.14446376778148773
5.094644,1.1006666734469013,0.15230499138543596
5.097048,1.133576645689629,0.1602283649055714
5.099436,1.1640198823349854,0.1682281296073768
5.101816,1.1878524122632768,0.1676528968865558
5.104207999999999,1.2080075017806977,0.16721247521474653
5.106596000000001,1.2272786475665833,0.1666731896723281
5.108975999999999,1.2453863103672134,0.16605580250916016
5.111375999999999,1.2578144320105566,0.1658329362338539
5.11376,1.2724316458554201,0.16510566350542458
5.116143999999999,1.287887477461445,0.16407844669673685
5.11854,1.302691682761412,0.16309398012547682
5.120924,1.316192635449263,0.1620797548983377
5.1233200000000005,1.324758221084502,0.16167724728847077
5.12572,1.3366763819065168,0.16083670985867796
5.128104,1.3417968445563628,0.1606757827064662
5.130488000000001,1.3465452201538717,0.1604355654447852
5.132884,1.3470098550048264,0.1607032908136214
5.135272,1.3417477268702505,0.16149052321192192
5.137652,1.3395586346687303,0.16195146095230617
5.140056,1.332294405787738,0.16292922229077722
5.142444,1.3291741480264394,0.1634698467343833
5.144823999999999,1.3295462350787766,0.16355898403331873
5.14722,1.3329913580641695,0.16334412869313147
5.149608,1.3393697473557575,0.16285644260424537
5.151988,1.3460276759010659,0.16227075290403858
5.1543920000000005,1.3498921077670394,0.1619232539509811
5.15678,1.356689805939208,0.16132464788564482
5.159159999999999,1.365769144111514,0.16043650075038432
5.161556,1.3697733456043477,0.1600586521668232
5.163944,1.3727066119105429,0.1597979353327959
5.166324,1.3734980078434613,0.15976445464543387
5.16872,1.3760119652690759,0.15962248880119873
5.171107999999999,1.3765238219482734,0.15966987126235221
5.173488,1.3719605419479988,0.16023911989479275
5.175892,1.3715412330674182,0.16037087762237054
5.178275999999999,1.3708423849331173,0.16058561674508443
5.180656,1.3742875079185102,0.16036074732407926
5.18306,1.3802465883295174,0.15995991880726693
5.185444,1.3864852079942453,0.15950554934494185
5.187824,1.3979387339653053,0.1585108984680394
5.190228,1.4098115688169464,0.15745980575202403
5.192616,1.4183318284818114,0.15681346787472247
5.194996000000001,1.425501613706318,0.15637051725000742
5.197399999999999,1.4318800029979057,0.15596248396588108
5.199787999999999,1.4398411841553302,0.15550061099397075
5.202172,1.4496646964323108,0.15491062046099147
5.204567999999999,1.4559033160970387,0.1545510470882004
5.206955999999999,1.4629333316946846,0.1541769762875194
5.209336,1.4719654480387474,0.1536295090759752
5.2117320000000005,1.4824878084500293,0.15288856915021723
5.214123999999999,1.4945004129285304,0.15193038409485898
5.216499999999999,1.5060011607278336,0.15093961156776808
5.218908,1.5239275196469684,0.14940094145497296
5.221291999999999,1.5492106552457126,0.1472446561395449
5.223672,1.5766356612177335,0.14495485669959815
5.226076,1.6021983360701981,0.1427877231014617
5.228464,1.620963312750494,0.14113612793784028
5.230844,1.6407066768188114,0.139247803545646
5.23324,1.652162098647741,0.13796141968632075
5.235627999999999,1.6608240237973357,0.13688966978890768
5.238008,1.6629205682002386,0.13637336681525727
5.240403999999999,1.6622236159238069,0.13601776186220768
5.242792000000001,1.6610148069681774,0.1356163167686885
5.245171999999999,1.657664127639271,0.13539888596841476
5.247568,1.654732757190945,0.13507620790524666
5.249956,1.651941156369479,0.13472055504029873
5.252336000000001,1.6479388507345145,0.13448900153982654
5.254739999999999,1.6437967754726899,0.13429119001413095
5.257124,1.6415170313304217,0.1339841936644445
5.259504000000001,1.6389577479344333,0.13374504000861653
5.261907999999999,1.6341168245383078,0.13371194036231634
5.264292,1.6289963618884615,0.1337441573743038
5.266671999999999,1.6167986618127261,0.13426318143912938
5.269068,1.5992462858037984,0.1351656929502625
5.271456,1.5806229746082319,0.1361051412723967
5.273836,1.5650726993457211,0.13682165494017
5.276236,1.5512449855759067,0.13751084025009117
5.278619999999999,1.5397914596048465,0.13811731502929292
5.281016,1.538627976619591,0.13805184883051932
5.283411999999999,1.5355549406865356,0.13825855262663936
5.285799999999999,1.540070998858567,0.13804526056604915
5.28818,1.5559461393451723,0.13754008701144785
5.290576000000001,1.5788493995715542,0.13723447221965143
5.292964,1.6116214980452912,0.13679302531514456
5.295343999999999,1.6524926514454432,0.13649138054634213
5.297748,1.6969468015999793,0.1364529316242624
5.300135999999999,1.7520611859347879,0.13625556722987306
5.302516,1.8131799766509784,0.13614456038175762
5.304911999999999,1.8744366411361595,0.1363579248223795
5.307300000000001,1.9412784031221415,0.13671095830360913
5.309679999999999,2.0189201689152565,0.13687980797174423
5.312084,2.1042889025824487,0.13705269330428974
5.314471999999999,2.2021802015494707,0.13699291143458237
5.316852,2.30928871245779,0.1367979187983914
5.319247999999999,2.42240162974749,0.13670112250611807
5.321635999999999,2.537374982298878,0.1368858609880059
5.324015999999999,2.6584925108585074,0.13703553536635263
5.326415999999999,2.7817500139335443,0.13743681412889375
5.328803999999999,2.907007721897129,0.13814944985751978
5.331184,3.042321259563172,0.1385882877523284
5.33358,3.1813122376400846,0.13906665749151464
5.335964,3.3134601915744555,0.13962599556455366
5.338363999999999,3.436997233903213,0.1400464489276138
5.34076,3.5558803442909483,0.1403605653226649
5.343148,3.66601277344621,0.1406161981566369
5.345527999999999,3.7769857162205027,0.14053908518981192
5.347924,3.8786488992548813,0.14046891420020416
5.350312,3.973516279974961,0.1403575764479728
5.352692,4.071598362112824,0.13990113916686944
5.355087999999999,4.162233015630331,0.1393968411884974
5.357475999999999,4.244209535713982,0.1389253047967408
5.359856,4.3168762960577185,0.13846066265622936
5.362251999999999,4.378882822221182,0.13807553773633524
5.3646400000000005,4.43088074051043,0.13776300268670102
5.367036,4.47580331723166,0.13744884860666678
5.369432000000001,4.520727789810757,0.13694851713795878
5.3718200000000005,4.564722992687947,0.13629450649855368
5.374199999999999,4.602574019556895,0.13561400515242417
5.376604,4.63535180560424,0.13489083368047375
5.378991999999999,4.65798121415051,0.13425289872874205
5.381372,4.677771800047069,0.1335764274069697
5.383767999999999,4.696910759637572,0.13289944685699961
5.386156000000001,4.719355072586607,0.1321910079255209
5.38854,4.740588680722144,0.13153556084960558
5.390935999999999,4.759400879230682,0.13095699363065857
5.393323999999999,4.768714430686336,0.13062007118829988
5.395703999999999,4.779750543634685,0.13026238809766041
5.3981,4.7927887573294505,0.12986453281541557
5.400488,4.8015432302776615,0.12958166185514547
5.402867999999999,4.815372839905345,0.12919341807555132
5.405264,4.831484089533166,0.128747255727554
5.407656,4.8513200014001026,0.12824251783234492
5.410035999999999,4.874368718826952,0.12766420868108014
5.412439999999999,4.900350702559997,0.1270288630385996
5.414827999999999,4.926332686293041,0.126393517396119
5.417208,4.946308367786836,0.1258841959378902
5.4196040000000005,4.961208912601157,0.12548581087213748
5.421992,4.979601802229116,0.12499428276733533
5.424371999999999,4.998786087789993,0.1245036176150683
5.426768,5.02383690596326,0.12391239059789752
5.429156,5.039948155591082,0.1234893500559917
5.431536,5.056478714099483,0.12303945535378547
5.433932,5.068353444808992,0.12265894047071961
5.436319999999999,5.074361642906112,0.12238102624278516
5.4387,5.083582646563148,0.12203022137166791
5.441104,5.098018556526517,0.12156437806695175
5.443492,5.112734005743604,0.12108223675162665
5.4458720000000005,5.126518289400915,0.1206194730785349
5.448272,5.1376488460057494,0.12018700663788145
5.45066,5.141702165184696,0.1198928646223073
5.4530400000000006,5.1444050099232825,0.11964494797434365
5.455436,5.145897149848371,0.11943191962741585
5.457824,5.145107649773322,0.11927568621005619
5.460216,5.142735357832437,0.11912555870131332
5.462611999999999,5.141853309958771,0.11892348228655912
5.464999999999999,5.143392671712103,0.1186556615530398
5.46738,5.146934134211851,0.1183524855949529
5.469776,5.149264891898101,0.11808418716748381
5.472164,5.149221461785595,0.11782479994202788
5.474543999999999,5.141309398314285,0.11769358298838353
5.476947999999999,5.139263867455363,0.1174674028348139
5.479335999999999,5.134145300663386,0.11729803427122655
5.481716,5.135964201670439,0.11701292611061377
5.484115999999999,5.142998008983822,0.11662486567058251
5.486503999999999,5.150962981856985,0.11622862641123831
5.488884,5.15799678917037,0.1158463769954096
5.491280000000001,5.163819891670254,0.11549712815636722
5.493668,5.16377646155775,0.11523702394509674
5.496047999999999,5.165874901818523,0.11493268093544756
5.498447999999999,5.169975442825711,0.11459179907714444
5.500832,5.171002947899845,0.11430665168780034
5.503215999999999,5.1705874307350035,0.11401674889670546
5.505612,5.166587020957907,0.11376433597239369
5.508,5.163238237486871,0.11351900206598067
5.510395999999999,5.15546594364242,0.11337185714550357
5.512788,5.148485045730887,0.1132219321604684
5.515175999999999,5.135777384833823,0.11315548178952756
5.5175600000000005,5.1190655224439245,0.11315852157413724
5.519956,5.099001084867252,0.11324120806275548
5.522344,5.080659208783276,0.11331278888817858
5.524724,5.058592670460185,0.11343671038360711
5.527124,5.039319628816429,0.11352150725489281
5.529507999999999,5.011898414560147,0.11375989107045915
5.531888,4.981543933997669,0.11404525747620738
5.534287999999999,4.944112216009302,0.11446615694030209
5.536672,4.905749332461157,0.11489826284958936
5.539067999999999,4.864592952233677,0.1153736570497307
5.541472,4.830234270178365,0.11573918517399921
5.543855999999999,4.794664883309555,0.11613713286448075
5.546236,4.759095496440745,0.11653679165065754
5.54864,4.7251561232660135,0.11687279464220218
5.551028,4.687864174904506,0.1172986403150509
5.553408,4.651503392102778,0.11772219728709005
5.555803999999999,4.61528237892791,0.11813199551792058
5.558191999999999,4.58120323612632,0.11849945933213611
5.560572,4.544190827018534,0.11891893784978154
5.562976,4.516117986456193,0.11916728198691455
5.565364,4.4869742107072135,0.1194513983344505
5.567747999999999,4.463045341264567,0.1196216618008869
5.570144,4.4434002125684735,0.11968882899806742
5.572527999999999,4.427479746111494,0.11969914828711135
5.574912,4.406763682228764,0.11979438536849847
5.577308,4.389912050212006,0.11982323395750846
5.579695999999999,4.373851814128167,0.11984920460803519
5.582076,4.36272694509694,0.11977924543024954
5.58448,4.350531140879074,0.11973607536609068
5.586868,4.341128833340544,0.11964711822880872
5.589248,4.328513720242095,0.11963871354091593
5.591644,4.315758837516789,0.11964255805909167
5.594032,4.302864185164622,0.11965876674295056
5.596412,4.291133015797711,0.11970186899607574
5.598812,4.28540814867005,0.1196171559586866
5.601195999999999,4.28419933971442,0.1194664530104658
5.60358,4.278706790012236,0.11942567803719947
5.605975999999999,4.272143305123414,0.11941314593160414
5.608363999999999,4.265440050607732,0.11941348451662158
5.610744,4.2524509545990785,0.1195692739230014
5.613148,4.2454681608296765,0.11959309507343249
5.615536,4.238205827806553,0.11963952181729255
5.617916,4.226659754036875,0.11979680589924316
5.62032,4.21432228433428,0.11995587027361954
5.622704,4.208782512803853,0.11998146014272812
5.625087999999999,4.202451345340507,0.12001081659095218
5.627484,4.200776005676055,0.11996191240810844
5.629872,4.198960896384741,0.11992485758958862
5.632255999999999,4.1988683485861245,0.11986872423389057
5.634652,4.197704865600868,0.11983995314563675
5.63704,4.197891857055971,0.11975964930579772
5.63942,4.196076747764658,0.11972239781229697
5.64182,4.1973346744064,0.11961378255300013
5.644203999999999,4.194076542876111,0.11957187000722141
5.646588,4.188816310599404,0.11957319682625658
5.648984,4.1847667831361965,0.11953410542562898
5.651371999999999,4.189656824218434,0.11931011969067486
5.653752,4.200413397913063,0.11897371720227673
5.656147999999999,4.213032302727248,0.11860458760847996
5.658535999999999,4.22779307791471,0.11817823741581031
5.66092,4.242274313848451,0.11778240723627979
5.66332,4.252611578662499,0.1174797868153268
5.665703999999999,4.265090713849824,0.11712054063944573
5.668084,4.278221475343208,0.11677201311015968
5.670488,4.287208265716897,0.11652204640230662
5.672871999999999,4.2987090135162,0.11625157835242371
5.675252,4.306624868703251,0.11603306336554749
5.677656,4.31561165907694,0.11578943965158918
5.680044,4.329394046876381,0.11546769512066447
5.682424,4.345969931355157,0.11510455552922191
5.684828,4.362126506953351,0.11477624149466777
5.687216,4.385360319977435,0.11430614215729144
5.689595999999999,4.403518996322047,0.11393984823868789
5.691992,4.430337701958384,0.11342722935962814
5.69438,4.455014537221443,0.11296195253929898
5.69676,4.4748957750587515,0.11258207173450699
5.699164000000001,4.492123285843586,0.11224409485550035
5.701548,4.505486364762446,0.11197578627747103
5.703928,4.520851544427724,0.11167293873798222
5.706332000000001,4.538079055212556,0.11134753770277986
5.7087200000000005,4.554515170064471,0.11102785892423349
