Time,Force,Position
4.37262,0.2564579328954115,0.0
4.375,0.2622319177091848,0.0
4.377395999999999,0.26185983065684737,0.0
4.379783999999999,0.26404892285836756,0.0
4.382164,0.2714529213662202,0.0
4.3845600000000005,0.2767150495007958,0.0
4.386948,0.2823492646877088,0.0
4.389327999999999,0.28570183987448466,0.0
4.391724,0.2942220995393497,0.0
4.394107999999999,0.3001811799503571,0.0
4.396488,0.30586072110764406,0.0
4.398888,0.310748866332013,0.0
4.401275999999999,0.3242970408481072,0.0
4.403656,0.3324905394310087,0.0
4.406051999999999,0.33933356357355127,0.0
4.408439999999999,0.3429637821561783,0.0
4.410824,0.3524605333511956,0.0
4.413219999999999,0.3612584364119119,0.0
4.415607999999999,0.36870586503226915,0.0
4.417987999999999,0.36586325066682174,0.0
4.420387999999999,0.36274109704765395,0.0
4.422775999999999,0.3628317489884018,0.0
4.425155999999999,0.3709308039148171,0.0
4.427572,0.3764686795873746,0.0
4.42996,0.3807958504464334,0.0
4.43234,0.3894067620520463,0.0
4.434735999999999,0.39950791772487837,0.0
4.437123999999999,0.4148239797040429,0.0
4.439504,0.43177005537728674,0.0
4.4419,0.44885590067739084,0.0
4.444288,0.4632880189250202,0.0
4.446672,0.47650943235915083,0.0
4.4490680000000005,0.48400408280775126,0.0
4.451452,0.4927094380698505,0.0
4.453852,0.5026254981454484,0.0
4.456248,0.5131006367284873,0.0
4.458636,0.5195715738186925,0.0
4.461015999999999,0.5244597190430613,0.0
4.463412,0.5297671731480108,0.0
4.4658,0.5421518646788492,0.0
4.46818,0.554676325836548,0.0
4.470583999999999,0.5637084421806109,0.0
4.472968,0.5687363570318399,0.0
4.475351999999999,0.5749749766965677,0.0
4.477748,0.5824243011747943,0.0
4.480136,0.5827963882271318,0.0
4.482516,0.5842394104661078,0.0
4.484912,0.5834007927049466,0.0
4.487299999999999,0.57948913901073,0.0
4.48968,0.5766484205031519,0.0
4.492075999999999,0.5776721338615474,0.0
4.494463999999999,0.5780442209138849,0.0
4.49686,0.5812098046455573,0.0
4.499255999999999,0.5894505250567019,0.0
4.50164,0.5948977487885115,0.0
4.504023999999999,0.602207303639878,0.0
4.50642,0.6124501247974395,0.0
4.508808,0.6197596796488059,0.0
4.511187999999999,0.6269294648733119,0.0
4.513584,0.6322369189782614,0.0
4.515972,0.6372648338294905,0.0
4.518352,0.6407099568148834,0.0
4.520747999999999,0.6425722879344401,0.0
4.523135999999999,0.6425722879344401,0.0
4.525516,0.6376369208818281,0.0
4.527915999999999,0.6394992520013846,0.0
4.5303,0.6369380727475269,0.0
4.532696,0.631443627187474,0.0
4.535091999999999,0.6250180160676428,0.0
4.53748,0.6176612393880334,0.0
4.539859999999999,0.5993627934165613,0.0
4.542256,0.5829266785646459,0.0
4.544644,0.5649077718468942,0.0
4.547027999999999,0.5419534980765306,0.0
4.549432,0.5210013250525837,0.0
4.551819999999999,0.49804705128222004,0.0
4.5542,0.4732304463922997,0.0
4.556595999999999,0.45549107892826846,0.0
4.558983999999999,0.4378914810910974,0.0
4.561368,0.4184295521343697,0.0
4.563763999999999,0.4004578672448612,0.0
4.566151999999999,0.3884924845946032,0.0
4.568531999999999,0.3782496634370417,0.0
4.570928,0.3721508133991741,0.0
4.573316,0.36912499929436193,0.0
4.575695999999999,0.3615831270175183,0.0
4.578096,0.35646266436767216,0.0
4.580484,0.3545550072777416,0.0
4.582868,0.3546494509342279,0.0
4.585272,0.35302133309801775,0.0
4.58766,0.3623348845536702,0.0
4.590043999999999,0.37472147194237804,0.0
4.592447999999999,0.38990155601042087,0.0
4.594835999999999,0.40200860414540823,0.0
4.597216,0.4147672785864535,0.0
4.59962,0.4293882841470555,0.0
4.602003999999999,0.44414905933451765,0.0
4.604384,0.4516928274692305,0.0
4.606779999999999,0.45895705635022294,0.0
4.609168,0.47022548672404907,0.0
4.611547999999999,0.4830767089637114,0.0
4.613951999999999,0.4917839600836799,0.0
4.616339999999999,0.5030051686292629,0.0
4.61872,0.5035170253084605,0.0
4.621115999999999,0.5067751568387502,0.0
4.6235040000000005,0.5114763106080156,0.0
4.625883999999999,0.5190635088552331,0.0
4.62828,0.5273023334085086,0.0
4.630664,0.5356337057604011,0.0
4.633044,0.5520660288965781,0.0
4.635444,0.5688704390850926,0.005572394625053073
4.637827999999999,0.582834130766029,0.011373794376540285
4.640208,0.5940968735662473,0.011373794376540285
4.642604,0.6117380056580537,0.01742239010167632
4.644992,0.6308221599888361,0.0234713979118586
4.647383999999999,0.6465537391328426,0.02991711076470238
4.649787999999999,0.6625176357023267,0.03651697543717563
4.652175999999999,0.6828578208169819,0.04317740947009623
4.654556,0.7078538337305287,0.049487320846423835
4.65696,0.734013329629331,0.055667466243466225
4.659348,0.7540267536620223,0.06227290440112619
4.661728,0.7794874014265235,0.06861015348133859
4.664123999999999,0.8012233869519114,0.07511706635124282
4.666508,0.838184782515716,0.08102589049003775
4.668887999999999,0.8686752409893156,0.08712180293807818
4.671291999999999,0.9039612968886669,0.09297691451202589
4.673679999999999,0.9358494516308686,0.0987181381932749
4.67606,0.9657355056266534,0.10454277305016545
4.678455999999999,0.9976708821970984,0.11009715498927394
4.680844,1.02043437279662,0.11579696150929439
4.683223999999999,1.0381699485449132,0.11598622555657925
4.68562,1.0568839116812274,0.1158107518470136
4.688008,1.0775074277653414,0.12130630424108296
4.690388,1.0989695616106168,0.12050407109004443
4.692788,1.116754255045022,0.11966938971236632
4.695172,1.140685020345538,0.11828102870007225
4.697552,1.165454403407215,0.11663110916369085
4.699956,1.1938559009093885,0.11469200206496395
4.702344,1.2149478435601955,0.11319589950106343
4.704723999999999,1.2307323321060528,0.11193048730219536
4.707127999999999,1.2506607917716044,0.1102405390491166
4.709512,1.2644904013992884,0.10885287342808084
4.711895999999999,1.2796704854673313,0.10725991927533612
4.714292,1.2881926409900655,0.10619583583363852
4.716676,1.3004394587519128,0.10490988176156205
4.719056,1.305236952035534,0.10400360413757034
4.72146,1.3062625612517986,0.1034827185966797
4.723848,1.307707479348644,0.10283887446574887
4.726227999999999,1.3019353903927398,0.10272946090471194
4.728631999999999,1.2986772588624502,0.10256071770161597
4.731019999999999,1.2960707536382186,0.10242601882352026
4.733404,1.289320277294293,0.10264281932912361
4.735795999999999,1.2792172257635916,0.10321381899657031
4.738184,1.2669723038596135,0.10391980400503223
4.740563999999999,1.2569618001275293,0.10464334045051504
4.74296,1.2422954685965535,0.10558704734342439
4.745348,1.2253474970654403,0.10675369900926494
4.747728,1.198528791429103,0.10863519775700055
4.750128,1.1734326472854621,0.11056944203796522
4.752511999999999,1.1514095390748769,0.11225753452172023
4.754908,1.131807840491289,0.11354699580379916
4.757311999999999,1.1148598689601759,0.11473188281255059
4.759696,1.0957700270557857,0.11614961802958665
4.762076,1.074817854031839,0.11765907963257033
4.764476,1.0557280121274488,0.11900203686548626
4.766859999999999,1.0426444724623092,0.11990890515223276
4.7692440000000005,1.0359865439170006,0.1202886896488225
4.771647999999999,1.0314704857449692,0.12047285279200529
4.774035999999999,1.03202956425241,0.1203031435602283
4.776415999999999,1.0320767860806532,0.12005139951538502
4.778812,1.0353368134688121,0.11953151640403965
4.7812,1.0455343086559998,0.11856090969612185
4.783579999999999,1.0600155445897412,0.11722361928027414
4.785983999999999,1.0732860757099842,0.1160366746253434
4.788371999999999,1.084834045337531,0.11489831901763767
4.790752,1.0985238853383545,0.11359053407660494
4.793156,1.1132846605258169,0.11216721106709884
4.795539999999999,1.1319098675792527,0.11032715825417591
4.79792,1.1487652913117485,0.10868133653349236
4.800328,1.1630123139621436,0.10762181758252559
4.802712,1.1720897562765804,0.10755510612401761
4.805092,1.1813050723600078,0.10814423738593266
4.807499999999999,1.2007613137431281,0.1086436590485013
4.809884,1.2291080059855812,0.10924004344393282
4.812263999999999,1.2604786164749777,0.11036132636590563
4.81466,1.2942215189052588,0.11196945728789892
4.817048,1.3329904403289001,0.11389620969606964
4.819428,1.371710244066429,0.11645039932709902
4.821823999999999,1.4146646708643995,0.11924920651336365
4.824211999999999,1.4645074477752864,0.1221595840069293
4.826592,1.5188643870003358,0.12524469995897367
4.828987999999999,1.5737312870467133,0.12870633634546355
4.831375999999999,1.6363251549671687,0.1321091464911131
4.833755999999999,1.7047836596421448,0.13552063635806552
4.836152,1.7826916936838957,0.13882511454087976
4.83854,1.8671159907862254,0.14218724928547882
4.840919999999999,1.960198421322411,0.14547266894023694
4.843316,2.0631496901059516,0.14860302233604827
4.845704,2.180300759711644,0.15118233028596179
4.848084,2.30704302416884,0.15319147886826334
4.850488,2.4403506693727275,0.1545564245793266
4.852876,2.5738925278599614,0.15534389338526589
4.855255999999999,2.698404165861002,0.15603426407210125
4.857652,2.8121630218831526,0.1566660912352558
4.86004,2.924388203725579,0.1568276208224971
4.86242,3.0273036258280914,0.15691319244472057
4.8648240000000005,3.1230511585639675,0.15692112742979247
4.867212,3.2187080393590954,0.1564580018206354
4.869591999999999,3.3102700667206424,0.15578696947649004
4.871988,3.396945844715689,0.15494798432489743
4.874376,3.4765462811427166,0.15414891945097217
4.876756,3.551353016001861,0.15323667068213095
4.879159999999999,3.6118674022402364,0.15269791756774265
4.881548,3.664515050977674,0.15219585098374214
4.883927999999999,3.708504566281255,0.1517816027321934
4.886324,3.74355640889726,0.15147255896618106
4.888712,3.7708812836391865,0.15121349183963062
4.891095999999999,3.7914103560668146,0.15097254041206645
4.893492,3.8024426772994255,0.15089170866245027
4.89588,3.806212665508913,0.15092909991598807
4.8982600000000005,3.809378249240585,0.15088813221862982
4.900663999999999,3.8172468825993917,0.1506573744702422
4.903048,3.825906911891118,0.15041620097403735
4.905431999999999,3.838151833795096,0.1500915775261599
4.907828,3.8470441805122984,0.14990015848243812
4.910216,3.8638051605883086,0.14948101629341287
4.912595999999999,3.8833596373436534,0.1490002483509751
4.914992,3.905847380405193,0.14845920349768302
4.91738,3.9280555842130127,0.14795157390770694
4.919763999999999,3.9491928528341935,0.14748384095695963
4.92216,3.974102005522731,0.14686742547693088
4.924543999999999,4.002643272651764,0.14611957669418693
4.926924,4.036678985340851,0.14517019837314055
4.929319999999999,4.077000539522909,0.14403478858566846
4.931708,4.119883272958823,0.14280512123456449
4.934087999999999,4.165047646394876,0.14149108500982746
4.936487999999999,4.207418523151594,0.14023664951230722
4.9388760000000005,4.247787299161894,0.13904966549816739
4.941276,4.283640017000163,0.1379528668247641
4.943671999999999,4.320051813345873,0.13681556381815238
4.946059999999999,4.350597077079193,0.13583938029635295
4.94844,4.370619980401231,0.13511940873520867
4.950835999999999,4.391853588536767,0.13435835291498627
4.9532240000000005,4.409502304060051,0.13366033261431973
4.955608,4.428082185143112,0.1329463211337402
4.958003999999999,4.44265786473334,0.13234635613563878
4.960391999999999,4.452577716524678,0.13184579730974513
4.962771999999999,4.453697769397428,0.1315562545432654
4.965168,4.450581303351869,0.13132329942741885
4.967556,4.445602506186752,0.1311280051205741
4.969939999999999,4.437410903461719,0.13102640355367964
4.972344,4.423073228870575,0.13108545187905496
4.974736,4.412088129466208,0.1310354812658869
4.977115999999999,4.395376267076311,0.13110217773303987
4.979512,4.374240894312999,0.13129848367303756
4.9819,4.352174355989909,0.131509868768871
4.98428,4.333041083973014,0.1316569312192162
4.98668,4.316049682329396,0.13174202812739855
4.989068,4.301712007738254,0.13178840695909239
4.991448,4.283370131654277,0.1319290978206939
4.993843999999999,4.267309895570438,0.13199861549920408
4.996231999999999,4.25590548728549,0.13198129884436569
4.998616,4.2438494526944845,0.13195512381776212
5.001011999999999,4.233655749223035,0.1318941540889127
5.003399999999999,4.218806217952694,0.13192418087575988
5.00578,4.20144272925674,0.1319855844020739
5.008175999999999,4.186872737240119,0.13199181172975485
5.0105640000000005,4.176167177089472,0.13191324808253893
5.012943999999999,4.169698135857137,0.13177885253039662
5.01534,4.165231195371217,0.13159372825361274
5.017728,4.161043794139019,0.1313830668415786
5.020111999999999,4.1608605943996535,0.13107133249115296
5.022508,4.1536001572344,0.1309405230633743
5.024896,4.1449892456287865,0.1308668307954193
5.027291999999999,4.139451369956229,0.13071095593422066
5.029688,4.133261867977613,0.1305478068521645
5.032076,4.125489574133161,0.13039608059413182
5.0344560000000005,4.113992618049597,0.1303180233186581
5.036852,4.10491707159303,0.13015090163628346
5.03924,4.099566187375576,0.12990983739272693
5.04162,4.095937864650818,0.1296454318362634
5.044015999999999,4.093100937858978,0.12937601578057717
5.046403999999999,4.090775867746336,0.12912672938263303
5.048788,4.089661502447193,0.12883452735546982
5.051183999999999,4.090409468267606,0.12850267651228806
5.053571999999999,4.0978153626333285,0.1280349698351723
5.055952,4.103498695506354,0.12759134830614555
5.058351999999999,4.107179927632962,0.1271938441902097
5.060739999999999,4.109138598266874,0.12681961439190584
5.06312,4.108164002594592,0.12650959171787834
5.065515999999999,4.102905666175754,0.12632088786113815
5.067904,4.092572193077444,0.12626213440075781
5.070288,4.084892447031611,0.12616119327490252
5.072683999999999,4.08121690247861,0.12595922754724642
5.0750720000000005,4.07688973161955,0.12574996842772837
5.077456,4.07307441743969,0.12556064567739877
5.079851999999999,4.0719128303123036,0.12532940116215946
5.082239999999999,4.06832983355792,0.12518530007827958
5.084624,4.060463096056981,0.12516785666107796
5.087019999999999,4.049663092249848,0.12521972851857788
5.089407999999999,4.033927721390103,0.12539151153822856
5.091787999999999,4.019682594597577,0.12548721044625205
5.094187999999999,4.006368633364829,0.12556132486473803
5.096575999999999,3.9975707303041124,0.12555511248843898
5.098972,3.991566323922731,0.12549651634437126
5.101372,3.978903988996042,0.12556965060593048
5.103755999999999,3.9673125892559904,0.12561175002436364
5.106131999999999,3.9558609591428,0.1256431196832875
5.108528,3.947342595335804,0.12560870827758452
5.110911999999999,3.9466928648876154,0.1254003808606497
5.113287999999999,3.9520494366786774,0.1250517559385578
5.115703999999999,3.9666251162689052,0.12447899234963299
5.118088,3.9825512702994925,0.12385590452475277
5.120467999999999,3.9968946324642434,0.12324375840557648
5.122871999999999,4.008025189069079,0.12271508808854815
5.125259999999999,4.019295515300774,0.12217442781907198
5.12764,4.026561640039636,0.12172576911759633
5.130044,4.040253375898328,0.12110042089224
5.132427999999999,4.0560869821302985,0.12041367441543561
5.134808,4.075273163549044,0.11962698627215995
5.137212,4.097392611273985,0.11876965603518282
5.139595999999999,4.115228318252372,0.11803435338308738
5.141976,4.127337262245229,0.11740879604323311
5.144371999999999,4.131717342506138,0.11694592335380403
5.146756,4.140101624259882,0.11640305009793597
5.149136,4.15099986343924,0.11583292553090803
5.151539999999999,4.160407858551378,0.11532822062240226
5.1539280000000005,4.174611451089269,0.11473413938722099
5.156307999999999,4.186021546947824,0.11419181558652591
5.158712,4.192076966873187,0.11379653951381577
5.161099999999999,4.196409825305853,0.11342286453066325
5.16348,4.1953880078053265,0.1131868544705809
5.165884,4.190082449558247,0.11305561169454076
5.168272,4.187430618363642,0.11289291017252538
5.170648,4.1887829886618695,0.11264843695934512
5.173055999999999,4.1912062941467365,0.11237887291966166
5.17544,4.192698434071825,0.11212041122718844
5.177819999999999,4.1927003299296945,0.11192595583496759
5.180223999999999,4.19442478728026,0.11171633742277359
5.182611999999999,4.195729935750244,0.11154334115625074
5.184987999999999,4.198245789033728,0.1113343727886674
5.187384,4.203834678250268,0.11106124707966165
5.189772,4.215429869706057,0.11067068148004668
5.192148,4.231820658587599,0.11019926643898241
5.194556,4.241413749296973,0.10985162031978733
5.19694,4.253148710379622,0.10945746544161811
5.19932,4.265163210715993,0.1090377391120985
5.2017240000000005,4.2742444447461665,0.10867375014112374
5.204112,4.284908470642179,0.10830741481914602
5.206491999999999,4.293989704672353,0.10794201675574032
5.208895999999999,4.304793500195227,0.10756628550904629
5.21128,4.310941467919206,0.10725029547772083
5.213664,4.320302241203102,0.10685735751888975
5.216059999999999,4.329663014486997,0.10647049587880376
5.218444,4.338884018144032,0.10609837790096936
5.220827999999999,4.346102921054651,0.10576393716178316
5.22322,4.361050687697216,0.10530963789463818
5.225607999999999,4.375486597660585,0.1048369024638593
5.227992,4.386989241317757,0.10441411138599153
5.230388,4.39863165460179,0.10398389590959846
5.232775999999999,4.409854759005242,0.10359062344732783
5.235151999999999,4.419075762662277,0.10323318242339094
5.237556,4.4240130255727586,0.10296737531439391
5.239944,4.426296561430765,0.10272660820349343
5.242324,4.431513363594967,0.10244008282182546
5.244728,4.433936669079833,0.10218931804378215
5.247116,4.441435111244172,0.10185297523461267
5.249492,4.446931452662094,0.10154837555247616
5.251896,4.451776167773959,0.101234452706534
5.254284,4.461416480311575,0.10085631603856068
5.25666,4.46477095135622,0.10059644343699459
5.259064,4.4769252213194495,0.10020438711287281
5.261452,4.4908020527753765,0.09980474823112918
5.263831999999999,4.500534913111611,0.09948140180238325
5.266228,4.5093366078880655,0.09917039817773611
5.268611999999999,4.5182780722913805,0.09884784708712335
5.270992,4.520421838522528,0.09862396487727507
5.273396,4.522937691806011,0.09843283132885901
5.275784,4.52866635064941,0.0981796782708334
5.278164,4.530390807999976,0.09798846801943237
5.280567999999999,4.532394804604262,0.09777722276374742
5.282952,4.535329966768327,0.09755546751620671
5.285335999999999,4.542548869678945,0.09725093494307421
5.287739999999999,4.549628002962702,0.09695619182580582
5.2901240000000005,4.553634100313406,0.09671302758100139
5.292508,4.558431593597027,0.0964701966484404
5.294908,4.556943245387676,0.0963418457141536
5.297295999999999,4.556525832364965,0.09619210266624638
5.299676,4.557319124155752,0.09601190192424915
5.302071999999999,4.552385652961011,0.09590148866270398
5.304459999999999,4.554017562512959,0.09565749280955352
5.306839999999999,4.550714105012296,0.09548486253799998
5.309244,4.542754819712741,0.09536023778403403
5.311632,4.540150210346378,0.09513539605147818
5.314012,4.5368939746739585,0.09489884663546841
5.316407999999999,4.535360300494234,0.09465384098138929
5.318795999999999,4.537179201501287,0.09433881757011699
5.321176,4.537834619523083,0.09399091745257265
5.323572,4.532623504932489,0.09371849102750003
5.32596,4.529414491088311,0.0934149184351481
5.328339999999999,4.521270110191523,0.09317811923098737
5.330743999999999,4.5123343333618156,0.09293950929995475
5.333131999999999,4.498323419852635,0.092778836445012
5.335516,4.485523211156955,0.09258652748818917
5.337911999999999,4.472862772088134,0.09238277886316867
5.340299999999999,4.4583400018997565,0.09219720920454341
5.342684,4.445167706151739,0.09196921110236071
5.345079999999999,4.434277050403859,0.09168886072000237
5.347467999999999,4.418962884282563,0.09149890527839348
5.349848,4.406581984467463,0.09126844953213166
5.352243999999999,4.3921989839059465,0.09106602712828941
5.354635999999999,4.379957853717706,0.09082279569290147
5.357016,4.37158115539544,0.09053111537177329
5.35942,4.357058385207062,0.09033597389332527
5.361808,4.343327010951603,0.09014100071297511
5.364188,4.324008643337474,0.08999924389080466
5.366591999999999,4.298404434230374,0.0899659002060219
5.368979999999999,4.271589520309775,0.08996113817983438
5.371359999999999,4.251712074188205,0.08985760372121562
5.373756,4.233976498439913,0.089712639651192
5.376144,4.223318160117509,0.0894609336080061
5.378523999999999,4.213870526608605,0.08917739195684572
5.38092,4.209777569032893,0.08879552736143788
