Time,Force,Position
8.795571999999996,0.1155195716981059,0.0
8.797968000000001,0.10928095203337806,0.0
8.800355999999997,0.1083970083018429,0.0
8.802739999999996,0.11179680531686186,0.0
8.805136000000001,0.10946983934635067,0.0
8.807523999999997,0.1046160292589956,0.0
8.809907999999997,0.10162455029119717,0.0
8.812304000000001,0.09663097057698188,0.0
8.814691999999997,0.0885643549297112,0.0
8.817072,0.07821609928230325,0.0
8.819467999999997,0.0646550380749797,0.0
8.821856,0.05188537280057426,0.0
8.824235999999996,0.03818454196639051,0.0
8.826632,0.029419078184818783,0.0
8.829019999999996,0.023586880709442228,0.0
8.831403999999996,0.02121269291068789,0.0
8.833808000000001,0.026952342587447387,0.0
8.836195999999997,0.03562525857040205,0.0
8.838576,0.0473712104864121,0.0
8.840971999999997,0.05818599684264383,0.0
8.84336,0.06316858572349901,0.0
8.845739999999996,0.06428674273838068,0.0
8.848139999999997,0.06391465568604321,0.0
8.850528,0.05897928863343118,0.0
8.852907999999996,0.06177278531276614,0.0
8.855304,0.07081778834805828,0.0
8.857691999999997,0.07865208656985169,0.0
8.860067999999995,0.08755731997828363,0.0
8.862464,0.09525184857321684,0.0
8.864851999999996,0.10695057866098373,0.0
8.867231999999998,0.11850953912189041,0.0
8.869627999999995,0.1302082692096573,0.0
8.872012000000002,0.14339724336464335,0.0
8.874391999999997,0.15165085046701737,0.0
8.876808,0.15911306163647332,0.0
8.879195999999997,0.16390865906222515,0.0
8.881575999999999,0.16241841499500598,0.0
8.883971999999996,0.1550616383153965,0.0
8.88636,0.14331568639938638,0.0
8.888739999999995,0.1325009000431547,0.0
8.891136,0.1265871456025212,0.0
8.893523999999996,0.12267549190830457,0.0
8.895903999999998,0.12146478709480585,0.0
8.898304,0.12453782302786123,0.0
8.900691999999996,0.1298924989610539,0.0
8.903071999999998,0.12844947672207788,0.0
8.905483999999998,0.13021926004301748,0.0
8.907872000000001,0.13091810817731853,0.0
8.910256,0.13482976187153514,0.0
8.912648,0.13366627888627955,0.0
8.915035999999997,0.1337135007145227,0.0
8.917416,0.13147908254262858,0.0
8.919823999999995,0.12375021881068163,0.0
8.922208000000001,0.1228190532509033,0.0
8.924587999999996,0.12160834843740456,0.0
8.926991999999995,0.12053741325076603,0.0
8.929379999999998,0.1236104491838214,0.0
8.93176,0.13161885216948882,0.0
8.934155999999998,0.1409433944585014,0.0
8.936544000000001,0.15026793674751399,0.0
8.938928,0.15762471342712348,0.0
8.941323999999998,0.16498149010673296,0.0
8.943712000000001,0.16963731790562456,0.0
8.946091999999997,0.17443291533137642,0.0
8.948488000000001,0.17401360645079575,0.0
8.950875999999997,0.17652756387641028,0.0
8.953256,0.17610825499582966,0.0
8.955651999999997,0.17461801092861046,0.0
8.95804,0.16912356536855763,0.0
8.960424,0.1649795942488637,0.0
8.962819999999997,0.16069585350230958,0.0
8.965203999999996,0.1626979542487264,0.0
8.967600000000001,0.1672140124207578,0.0
8.969995999999998,0.17308054503314815,0.0
8.972383999999995,0.17894707764553847,0.0
8.974768000000001,0.187746876564124,0.0
8.977163999999998,0.19268224361673603,0.0
8.979551999999995,0.19454457473629264,0.0
8.981936000000001,0.19347363954965419,0.0
8.98434,0.19040060361659877,0.0
8.986723999999999,0.18839850287018195,0.0
8.989104000000001,0.18439430137734825,0.0
8.991508,0.17628046390183438,0.0
8.993895999999996,0.16602475605304348,0.0
8.996275999999998,0.15683998339089117,0.0
8.998679999999997,0.14672404516896048,0.0
9.001068,0.13753927250680809,0.0
9.003447999999995,0.12942543503129428,0.0
9.005852,0.13667828876507127,0.0
9.008239999999995,0.15486902007497233,0.0
9.01062,0.18362554190866004,0.0
9.01302,0.21773294795980191,0.012616546079717544
9.015407999999995,0.2672489637887253,0.02377004265818897
9.017788,0.3222556334619631,0.03473522222363695
9.020183999999997,0.3909011295920429,0.045126450206742566
9.022572,0.46797054587263226,0.05532102313685901
9.024951999999995,0.56040135010276,0.06509597724871678
9.027348,0.6632581752298142,0.0748572213814964
9.029735999999996,0.7846891938663224,0.08417170053669623
9.032115999999998,0.9220406789598098,0.09320010880104111
9.034516,1.0720998249503608,0.10204983788834252
9.0369,1.2383589766516117,0.11066221726248872
9.039284,1.4249277700462422,0.11902914214971727
9.041679999999996,1.6261137772857361,0.12718589851907205
9.044068,1.840054667250537,0.13520950470515009
9.046448000000002,2.0637246258358326,0.14314375841123342
9.048844,2.296519248563808,0.1509312520220297
9.051231999999995,2.534761095023593,0.15860409900067401
9.053611999999998,2.7541911272886948,0.1663915926114703
9.056007999999997,2.9600295549251974,0.17420800688572152
9.058399999999995,3.1526484649854383,0.18205629546531277
9.060779999999998,3.3337704189621142,0.17734518859652956
9.063183999999996,3.4989719064818114,0.17415530032534773
9.065567999999995,3.656540869783917,0.17111827518391687
9.067947999999998,3.798748445136484,0.16872448561553738
9.070348,3.9298783732860665,0.16652537623581964
9.072731999999998,4.042713647179916,0.1648786840637814
9.075112,4.147823849057557,0.16315645078784485
9.077507999999998,4.236361958172161,0.1619050527059919
9.079896000000002,4.311633327882259,0.16094153603466033
9.082275999999997,4.372706792628075,0.16022006888717844
9.084675999999998,4.421165144275445,0.15971321379249084
9.087064000000002,4.4517009287194185,0.1595138607861712
9.08946,4.463335758571974,0.15967922251431574
9.091855999999996,4.461284540139445,0.16000376820145756
9.094244,4.4516461234597,0.16033902325656602
9.096628,4.432743273010413,0.16083443084077678
9.099023999999996,4.408532968456176,0.16143109262332422
9.101407999999996,4.392982693193664,0.1617980507190461
9.103791999999997,4.381808706476325,0.16207419991518576
9.106188,4.369284245318626,0.16241833539427708
9.108575999999996,4.361323064161202,0.16259075295081138
9.110952,4.357645623750332,0.16261862353008816
9.113356,4.353037017779684,0.16266917116877902
9.115743999999996,4.352292843675008,0.16261434379830061
9.118127999999995,4.352340065503251,0.16254881474950078
9.120524,4.357043115130386,0.162363163853929
9.122911999999996,4.3599763814365815,0.16227945653984033
9.125291999999998,4.363840813302554,0.162171679009248
9.127687999999996,4.364120352556275,0.16214579827307782
9.130076,4.365890135877215,0.16204363156514393
9.132456,4.364075026585901,0.16202546487306219
9.134852,4.366264118787422,0.16188398822403888
9.137239999999997,4.377812088414968,0.16143333273052818
9.139619999999995,4.394295425095128,0.16084277533506458
9.142028,4.408497121775148,0.1603430984511981
9.144412,4.423769753641809,0.15980820192916728
9.146792,4.435829579948552,0.15937749459590964
9.149188,4.44439706144166,0.1590866820914454
9.151571999999998,4.456828974800741,0.15870171469218314
9.153952,4.477548830399211,0.15806549234536246
9.156347999999998,4.495567737116963,0.15755551539700308
9.158736,4.511305003834577,0.15713191632954593
9.161115999999996,4.52783366648511,0.15670084049701005
9.163532,4.544222559508782,0.15628576016770546
9.165919999999996,4.562334014025151,0.15584363222671002
9.1683,4.584868978914934,0.15526634660269178
9.170695999999996,4.608754418245076,0.15463530023264568
9.173084,4.633850562388718,0.15396358791994924
9.175464000000002,4.665092778398469,0.15312099468300577
9.177863999999996,4.6983370951546375,0.1522344335849558
9.180247999999995,4.731860951164526,0.1513110249702391
9.182631999999996,4.763662245681719,0.15042729319073414
9.185036,4.791459338706077,0.14966993989364688
9.187423999999996,4.813529668744905,0.14905073096187296
9.189804,4.838021408410731,0.14835222604880952
9.192207999999995,4.862652917703417,0.14764777540850554
9.194596,4.894361664421993,0.1467645168275385
9.196975999999996,4.928352051140704,0.14581343223385917
9.199372,4.951540538194415,0.14512185066419336
9.201759999999997,4.967512018195376,0.14462630989057018
9.20414,4.981481397449921,0.1441752265645329
9.20654,4.997452877450882,0.14367867370968557
9.208924,5.0063471200259535,0.14335201342071902
9.211308,5.014589736294967,0.14302342811648563
9.213703999999996,5.020178625511507,0.1427417013200163
9.216087999999996,5.019481673235075,0.14263027096813813
9.218471999999997,5.017574016145144,0.14255990886378103
9.220876,5.014315884614854,0.14254137423719931
9.22326,5.0069137819648715,0.142628663840427
9.225644,4.994436542635415,0.1428410480541641
9.228047999999998,4.981819533679101,0.1430677487662844
9.230431999999997,4.9701336902825615,0.14327371278460763
9.232815999999996,4.9505792135272175,0.1436701682591874
9.235212,4.931676363077931,0.14407482152048948
9.237596,4.909420937441868,0.1445793091868977
9.239975999999997,4.888376216619304,0.14503446842140913
9.242375999999997,4.866540099863823,0.14548220445803628
9.244759999999996,4.843912587175422,0.1459301433342166
9.247139999999998,4.828222542286052,0.146224537227864
9.249535999999996,4.814814137396818,0.14645147903866648
9.251924,4.8047583076943585,0.1465807026818606
9.254324,4.792700377245485,0.14675539585386474
9.256719999999998,4.79400552571547,0.14659807755340576
9.259108,4.79689346605129,0.14642798893894737
9.261487999999996,4.79936209750653,0.14628977163673282
9.263887999999998,4.8029016641484095,0.14612130078003163
9.266276,4.803647734110954,0.14600631674901626
9.268655999999996,4.804673343327218,0.14586912199133045
9.271052,4.804767786983706,0.14574951229496008
9.273439999999995,4.809937367319663,0.14550339519516986
9.27582,4.820973480268013,0.14512651077805921
9.278215999999995,4.829727953216224,0.14482010343682278
9.280604,4.84849292989652,0.14426771388588347
9.282988,4.870610481763591,0.14361765937900386
9.285383999999995,4.893147342511244,0.1429302491562456
9.287772,4.910469296952564,0.14238078363529444
9.290151999999996,4.917640978034939,0.14208183227617707
9.292548,4.922950327997757,0.14182145562530762
9.294935999999996,4.924674785348324,0.14162508941036914
9.297316,4.929192739378224,0.1413753725690393
9.299716,4.933850463034985,0.14111670280288613
9.302103999999996,4.937856560385687,0.14085354847934867
9.3045,4.933854254750724,0.14077926375408134
9.306895999999998,4.9292003228097006,0.14070041132066632
9.309283999999996,4.929109670868954,0.1404882213344188
9.311663999999997,4.9310211196746225,0.14023114587758034
9.31406,4.938659331465821,0.13986101072242318
9.316447999999998,4.94657708251074,0.1394704288534653
9.318828,4.958499035048493,0.13899113568994015
9.321223999999996,4.968558656466691,0.13854943264073585
9.323612,4.973543141205415,0.13822577676892853
9.325991999999996,4.978527625944139,0.13790019731175313
9.328396,4.983232571429142,0.13760091781808945
9.330783999999998,4.985516107287149,0.1373771418292861
9.333164,4.989382435010992,0.13714246275294725
9.335559999999996,4.996042259414169,0.13685721830898168
9.337951999999998,5.015645853855627,0.13629603570181853
9.340332,5.033619434603005,0.1357989171042281
9.342732000000002,5.053175807216219,0.1352878731601515
9.345116,5.0685882087097385,0.13487822620775972
9.3475,5.085443632442233,0.13447404266693874
9.349895999999998,5.1009485817343725,0.13411440434023675
9.352284,5.114451430280093,0.1337941264305397
9.354663999999996,5.127814509198953,0.13348760157996342
9.357063999999998,5.1348917466248425,0.1333321428312937
9.359452,5.140106652931174,0.1332093500498668
9.361831999999996,5.141596896998394,0.13315150568540615
9.364228,5.142388292931312,0.13314602524108976
9.36662,5.146112955170425,0.133084314580958
9.368999999999996,5.152491344462013,0.1329881369673936
9.371396,5.164084640059934,0.13277787299283017
9.373783999999995,5.177959575657992,0.1325075618964486
9.376167999999996,5.1890410145767145,0.1322849276668946
9.378564,5.201193388682076,0.1320379550202441
9.380951999999995,5.2117629709216,0.13180098568851367
9.383335999999996,5.221820696481927,0.13154823195322649
9.385732,5.225080723870088,0.13142059281712656
9.388116,5.231972865698742,0.13118987193336018
9.390516000000002,5.239935942714036,0.1309356803580132
9.392912,5.250040890102606,0.13063296391263043
9.395295999999998,5.254558844132507,0.13041645741686617
9.397679999999998,5.26415193484188,0.13009953006779065
9.400075999999997,5.277609457417227,0.1297137452224948
9.40246,5.287342317753459,0.12938438940320665
9.404844,5.3030814803289426,0.12893886594796103
9.407239999999998,5.325897880330315,0.1283638353486799
9.409628,5.353789417011161,0.1276976881933328
9.412012,5.383310967386085,0.1269716292950179
9.414407999999998,5.40603481958884,0.12636909398032276
9.416796,5.421029808059648,0.12589191084184065
9.41918,5.433231299851123,0.1254628101783401
9.421575999999998,5.4475746620158745,0.12499494578170606
9.423964000000002,5.463128728994122,0.12449805978330988
9.426348,5.480312809666452,0.12394758359522672
9.428743999999998,5.496146415898421,0.12343435325921394
9.431132000000002,5.511980022130391,0.12292024809504425
9.433511999999997,5.527953397989221,0.12239547596200005
9.435908,5.5437870042211905,0.12188456482653007
9.438295999999998,5.558037818587326,0.1213817039476602
9.440679999999997,5.5728477114609,0.1208464134291417
9.443076,5.593012280267666,0.1202040741687709
9.445463999999998,5.60945218683532,0.1196153858126725
9.447847999999995,5.629384438216611,0.11895542719682785
9.450244,5.6542520566505114,0.11821861086707212
9.452631999999998,5.674743386539243,0.11752740754509701
9.455015999999995,5.686155378255667,0.11699097079636556
9.457412,5.691421298105982,0.1165610070196986
9.459799999999998,5.695895822023378,0.11613541379848061
9.462183999999995,5.702372446687191,0.11567771672983591
9.464580000000002,5.715926308776892,0.11510383161388711
9.466967999999998,5.723473868627344,0.11462078852611012
9.469359999999998,5.725015126238545,0.11423283240021888
9.471755999999996,5.722552182356912,0.11390659957331672
9.474144,5.718226907355723,0.11360361140177301
9.476524,5.718464912354808,0.11320416821351338
9.478928,5.7239178236602255,0.11271933583945516
9.481312,5.733654475712196,0.11216134383555892
9.483692,5.74273950145811,0.11159913286777338
9.486088,5.754757793510219,0.111000761715245
9.488475999999997,5.762632114442633,0.11046863165682545
9.490855999999996,5.766642003509075,0.10998712008639436
9.493251999999996,5.773073302202515,0.10945320850862823
9.495639999999998,5.773358529029842,0.10901467121887815
9.498035999999995,5.772992129551113,0.10857173295331363
9.500432,5.774488061191939,0.1081095191770828
9.502816,5.7784054024597635,0.10759222350122907
9.505196000000002,5.783021591861889,0.10702984753557014
9.5076,5.786706615704236,0.10647747312924974
9.509987999999996,5.790671178800304,0.10590934015317954
9.512368,5.794123885217172,0.10532980872649252
9.514763999999996,5.802000102007457,0.10466661184253008
9.517152,5.814299829171156,0.10392434001327429
9.519531999999996,5.832233771521768,0.1030798124157606
9.521928,5.846023742752685,0.1022934958194291
9.524315999999995,5.857951382864047,0.10153163764244262
9.526699999999996,5.862801785549519,0.10086771319177154
9.529096,5.86150611636888,0.10028962910957621
9.531479999999998,5.860350216815102,0.0997043694852121
9.53386,5.856121281328267,0.09916181254264385
9.536255999999998,5.855896547334267,0.09856894950093505
9.538644,5.857254605206103,0.09797522203649191
9.54104,5.857262188637581,0.09741642646602407
9.543435999999996,5.857409541695918,0.0968465056590332
9.545824,5.852481758074783,0.09633935487758542
9.548208,5.8463432696401485,0.09585612175046383
9.550603999999996,5.841275716392154,0.09535647077658008
9.552992,5.8428660916894675,0.09479853638252381
9.555371999999997,5.84417692773306,0.09425597364085081
9.557768,5.843625432657094,0.09372773083916418
9.560155999999996,5.840932067207853,0.09323144366117513
9.562539999999997,5.842103133624586,0.09270115979738154
9.564936,5.84206349522782,0.0921960025445542
9.567323999999996,5.840254073510114,0.09174843085087725
9.569707999999997,5.84324024921816,0.09125770228213147
9.572104,5.847157590485984,0.09076275541573592
9.574491999999996,5.853077032500226,0.09024429492344387
9.576871999999998,5.863140445634161,0.08967561638940569
9.579267999999995,5.871993153954598,0.08913030952308822
9.581656,5.880473775222697,0.08855892139852824
9.584036,5.888023230931019,0.08799677508551618
9.586435999999996,5.89613176514678,0.08740519331571926
9.588824,5.905590773802901,0.08678747549813198
9.591219999999996,5.918914214324993,0.08614013783467331
9.593616,5.940246057832755,0.0854176192167656
9.596003999999995,5.9638595413406525,0.08466348616682985
9.598384,5.988264420781469,0.0839170687992191
9.600779999999997,6.00372973167684,0.08325602950988698
9.603168,6.02054551701257,0.0825680261646874
9.605552,6.039223633467856,0.0818698540413408
9.607947999999997,6.059764081042698,0.08116433441052522
9.610336,6.076020787870989,0.08051528151935228
9.612715999999995,6.092277494699277,0.0798690350805966
9.615112,6.107742805594649,0.07922311672741411
9.617504,6.118272749437407,0.07861473695275983
9.619883999999995,6.12652105328003,0.07804023972751944
9.622283999999995,6.13570052268243,0.0774614513844312
9.624667999999996,6.142458582457833,0.07692318639157261
9.627051999999996,6.150287577419873,0.07637348013354325
9.629448,6.15941982499403,0.07584435654591207
9.631832,6.16641020219491,0.07533866307383888
9.634212000000002,6.172841500888348,0.07486414388638236
9.636611999999996,6.178713721074345,0.07442200731334625
9.638995999999995,6.181652674954149,0.07400151224472112
9.641375999999998,6.176303686594563,0.07365795285724569
9.643787999999995,6.168812827861702,0.07333692857090328
9.646176,6.160251033942202,0.07302731281686395
9.648555999999996,6.1566246070753134,0.07268267350345194
9.65096,6.15458097207426,0.07234625742338856
9.653347999999998,6.152257797819488,0.07202448464404272
9.655728,6.146721818004799,0.07173473404783647
9.658123999999995,6.143048169309668,0.07143789339564885
9.660512,6.139094981360818,0.07115545578884627
9.662891999999996,6.135281563038824,0.07086604126135965
9.665288,6.138405612515862,0.07053151601509672
9.667675999999997,6.140458726806261,0.07020624543213845
9.670056,6.140509740350242,0.06989422569001785
9.672451999999996,6.138838192401527,0.06957999532355354
9.67484,6.134605465198955,0.06930749902551736
9.677235999999995,6.132235069115939,0.06902936320588245
9.679632000000002,6.13158723452562,0.06875122724259153
9.682016,6.129728695121801,0.06849032258197499
9.684395999999996,6.123726184598288,0.068263092571105
9.686800000000002,6.118515070007696,0.0680394688893911
9.689187999999998,6.115306056163517,0.06780025874889459
9.691568,6.110746567878983,0.06758506692008007
9.693963999999998,6.106978475527364,0.06737426462703146
9.696352,6.100788973548749,0.06719858102220178
9.698731999999996,6.091666205263939,0.06703923373218439
9.701131999999998,6.080401566605852,0.06689981207115768
9.703515999999995,6.072209963880819,0.06673645440108793
9.705899999999996,6.064018361155786,0.06657328050403213
9.708296,6.054895592870975,0.06641253061857005
9.710683999999995,6.043351414959167,0.06628553855637755
9.713064,6.031527697793639,0.06617296077773037
9.715464,6.025570513240502,0.066030067926102
9.717851999999995,6.022406825366698,0.06587895683013524
9.720232,6.022967799732008,0.06571700357249362
9.722635999999998,6.02995438521715,0.0654982225439627
9.725024,6.035218409209594,0.06527875587889082
9.727403999999996,6.041832907642398,0.06503685019062613
9.729803999999998,6.0476560101422825,0.06478931940524402
9.732192,6.054829587082527,0.06451628583882782
9.734576,6.059861293649494,0.06426168622796774
9.736971999999998,6.0678262665226566,0.06399270061912626
9.73936,6.080074980142375,0.06368655965507009
9.741739999999997,6.0891108882021765,0.06340846010700024
9.744136,6.097495169955921,0.06311748445075176
9.746523999999996,6.105739682082803,0.06283315707882373
9.748907999999997,6.114263733463407,0.06253296318306689
9.751311999999997,6.118643813724317,0.0622631113657742
9.753699999999998,6.120230397305891,0.06200014840355747
9.75608,6.121537441633746,0.06175087022142359
9.758475999999998,6.122053090028682,0.06149475272522689
9.760864000000002,6.115910809878309,0.061261530797575445
9.763248,6.102970831555767,0.06105842750724723
9.765643999999998,6.088959918046588,0.0608646171542629
