Time,Force,Position
10.200063999999998,7.1662211158910765,0.05108747436593739
10.20246,7.113613105550405,0.05093576473932823
10.204847999999998,7.049831108492395,0.050786244130831056
10.207228,6.978180478075576,0.05065452765226937
10.209628,6.907088926166199,0.050493956040241456
10.212015999999998,6.829339445711513,0.05033860145185651
10.214396,6.738785964845408,0.050216148103719015
10.2168,6.637989662821741,0.05009362012082924
10.219183999999998,6.529883805946708,0.049963822430041216
10.221564,6.408042783100478,0.04987358818656556
10.223959999999998,6.281965241335936,0.04975533794219299
10.226347999999998,6.145225569533252,0.0496597165534319
10.228728,5.995030271013092,0.04958932026842993
10.231132,5.836174943201206,0.04953361783795051
10.23352,5.667588650910956,0.049499165323971465
10.235899999999996,5.492856286754595,0.04949640971841079
10.238295999999998,5.314119721105399,0.04950225412674923
10.240683999999998,5.135802464336786,0.04947343564999526
10.243064,4.956134733127812,0.04947025248087508
10.245468,4.775955145239641,0.04943644092684633
10.247851999999998,4.594704622164833,0.049417629927138614
10.250235999999996,4.420531336515914,0.049356030271404464
10.25264,4.249803173852388,0.04930640413673756
10.255024,4.079586867868058,0.04929514420423518
10.257403999999998,3.9037363466968165,0.049366874764733594
10.259799999999998,3.72946861739141,0.04946851373965222
10.262187999999998,3.557575075884758,0.04964894322378557
10.264568,3.3952255074013666,0.049918005267383984
10.266963999999998,3.2447015519413727,0.0502094003079494
10.269351999999998,3.1082848495049147,0.050511981606601926
10.271732,2.9731241778523287,0.05101272853699381
10.274127999999996,2.8468558529169448,0.05160582848481296
10.276515999999996,2.730411040258543,0.052297090319796756
10.278911999999998,2.6199253080111475,0.05310507065978339
10.281308,2.514187951361261,0.0541131111753283
10.283696,2.4126871136296857,0.05526741218922668
10.286075999999998,2.313932550749202,0.056651182311414305
10.28848,2.2187156586527284,0.0582587217297513
10.290868,2.1257331847281487,0.06010625070013621
10.293243999999998,2.039221647893774,0.06214612554670905
10.29564,1.9606712922168241,0.06430707310274081
10.298028,1.8848672113909657,0.06670435241686176
10.300407999999996,1.8135319669088952,0.06939360287041633
10.302812,1.7485278898901697,0.07238569581837939
10.3052,1.6955817433203197,0.07547553453456321
10.307579999999998,1.6460334979076194,0.07896806557115064
10.309976,1.6083108655183165,0.0823483344242848
10.312364,1.57217102499485,0.0858684358695255
10.314743999999996,1.5350527970833618,0.08962183181307792
10.317148,1.4984464258510715,0.09347077485524563
10.319536,1.4697086879775882,0.09713575759537758
10.321915999999998,1.4502826057018883,0.10047524056595954
10.324312,1.4401681790239715,0.10351358579972474
10.3267,1.4375030768242814,0.10634610056465459
10.329079999999998,1.4413561335430392,0.10907060176529876
10.33148,1.44851454362033,0.11184156043296219
10.333868,1.4584664503769555,0.11457314520845997
10.336247999999998,1.469069983439639,0.11737996993206991
10.338644,1.482047704301077,0.1202431523887512
10.341027999999998,1.4978189218418496,0.12293934561481004
10.343424,1.51410199606182,0.1256705632523259
10.34582,1.531967862147627,0.12836538848713747
10.348208,1.5513239723006529,0.13084087629278152
10.350587999999998,1.5731487139089193,0.13283528570233905
10.352988,1.5871992658148648,0.1349300835270219
10.355372,1.6054410106687478,0.13647946036685943
10.357755999999998,1.6170720488055652,0.13823248609552455
10.360152,1.6284707695169056,0.13985958656080705
10.362536,1.6394048553772913,0.14122990116794096
10.364919999999998,1.649175458252421,0.1425299490116898
10.367316,1.65470954220924,0.14402039240197353
10.369704,1.6505598835159383,0.1460251948362954
10.372083999999996,1.6377974173591547,0.14841795943444655
10.374479999999998,1.6178651659778647,0.15124278569334088
10.376867999999998,1.5971887404918998,0.15388298586520308
10.37926,1.5788411768343154,0.15609808148235513
10.381664,1.5625429357513911,0.1579638918079056
10.384048,1.5504358876164037,0.15928572874471672
10.386428,1.5438705068697123,0.15989218055129678
10.388832,1.5324169808986519,0.16070372313791395
10.39122,1.5184967193302203,0.16148474414011776
10.3936,1.5038322836571136,0.16212862476283255
10.396003999999998,1.486281803506055,0.16285447268322636
10.398391999999998,1.4637959563023843,0.16402938701905892
10.400772,1.4467573328305234,0.16486013664470145
10.403167999999996,1.4269252126793273,0.1658989091094291
10.405556,1.4089554236476882,0.166850444001009
10.407936,1.3921963394295476,0.16765774502398334
10.410332,1.37301584558441,0.16886172183357925
10.41272,1.3536955821124117,0.17015662041460697
10.4151,1.3325129875208566,0.171795980870001
10.4175,1.315055055168415,0.17314213896275074
10.419884,1.2982487491220311,0.17460543361295158
10.422268,1.284795018262423,0.17560537280773272
10.424664,1.271061748149095,0.17669356556626445
10.427052,1.2578403347149643,0.1777442296476368
10.429436,1.2404749501611398,0.1794105840510742
10.431832,1.2168237241143445,0.18208205122041687
10.434216,1.1907510884405519,0.18493222110992602
10.4366,1.167471949446094,0.1875749444479473
10.438996,1.1496400341834456,0.18957338340843063
10.441388,1.134461845973272,0.19126938353865425
10.443763999999998,1.1236599463082697,0.19256046978138266
10.446172,1.1160708522031828,0.19343836229820865
10.448556,1.1079699014188984,0.19424508104921787
10.450936,1.1012194250749727,0.19480364016047122
10.45334,1.0956796535445459,0.19516550044584557
10.455728,1.0930731483203144,0.19516594736360612
10.458108,1.0958213190292754,0.1944499352229399
10.460504,1.099919964178595,0.19348657626415638
10.462888,1.1090937460073877,0.19183229736288343
10.465267999999998,1.1194782326496784,0.19001020407906552
10.467672,1.1338669207848031,0.18767791673902268
10.47006,1.1459739689197905,0.18565681454395955
10.47244,1.1571498514949996,0.18371547234939115
10.474836,1.164321532577375,0.18228685418828647
10.477224,1.1722846095926687,0.18068622301790588
10.479603999999998,1.1882560895936294,0.1779120555468522
10.482008,1.2002233681017567,0.17566900649143677
10.484396,1.2123304162367439,0.17337903152206358
10.486776,1.2174999965727027,0.17207706027133646
10.489176,1.2202953891099066,0.17099160527432242
10.49156,1.2213682201544145,0.17010331182667768
10.493944,1.2250947782513972,0.16897964968571455
10.49634,1.2291934234007171,0.16797243653838073
10.498728,1.2328727596694566,0.16712370869705606
10.501108,1.2362725566844754,0.16637935064802895
10.503504,1.233666051460244,0.16637983784891786
10.505892,1.2298488414225137,0.16655771805512615
10.508288,1.2277541928774798,0.16659167846629178
10.510683999999998,1.227242336198282,0.16654115991699334
10.513068,1.2213758035858917,0.16715394014858737
10.515452,1.2107136735477495,0.16826308063099757
10.517855999999998,1.2072685505623566,0.16850419219584908
10.520239999999998,1.2058255283233805,0.16853520009288275
10.52262,1.2098769516444572,0.16790051853209959
10.525016,1.2232872523915606,0.1663381520236715
10.527404,1.230691250899413,0.16537869097528962
10.529784,1.2418199116463793,0.1640899215602208
10.53218,1.2498755364602898,0.16307631436286668
10.534568,1.2650083987000893,0.16131101119842753
10.536948,1.2786510168726701,0.1597571172243874
10.539348,1.2909431606048916,0.15839805725060144
10.541736,1.2973687717247226,0.15763355959137224
10.544116,1.2999299509785804,0.15723166370974223
10.546519999999996,1.3032825261653564,0.15679319839175967
10.548908,1.30728672765819,0.15636242055889904
10.551288,1.3142241954572191,0.15559466123175153
10.553684,1.3180886273231924,0.15518437170506752
10.556068,1.319811188815889,0.15505472787380958
10.558464,1.3200907280696093,0.15496618976808496
10.560859999999998,1.3265163391894403,0.15418270010076957
10.563247999999998,1.3377375477350233,0.15290947557693974
10.565628,1.3366666125483846,0.15304440284056067
10.568027999999998,1.333593576615329,0.15340127753124544
10.570411999999996,1.324234699189303,0.15450971483685988
10.572792,1.3055169443372505,0.156591042118448
10.575195999999998,1.29173455653781,0.15814291376085096
10.577583999999998,1.2773005424323112,0.15966787807112437
10.579964,1.2699437657527017,0.16045002323815735
10.582363999999998,1.2596537227668971,0.16145198066018482
10.584747999999998,1.2521571764604273,0.16225358012110475
10.587132,1.2473615790346753,0.16265504024732205
10.589527999999998,1.2476411182883957,0.1625718245165444
10.591915999999998,1.2543462686619473,0.16180741956164774
10.594296,1.2605395623563012,0.1610024407509082
10.596691999999996,1.2683628697447344,0.15995746770204985
10.59908,1.276325946760028,0.15887580171581311
10.601464,1.2872222900815167,0.15752955699630516
10.603868,1.2974670070969474,0.15615740947315263
10.606251999999998,1.3042193792987422,0.1551938794223708
10.608636,1.3080384851943418,0.15449103994955776
10.611031999999998,1.3107866559033028,0.15391469604647082
10.613419999999998,1.325547431090765,0.15225052464067024
10.615796,1.3433812422112823,0.15032560949537352
10.618204,1.3640085500111347,0.1480903877302914
10.620587999999998,1.3869174978111245,0.1454999006956378
10.622968,1.4067534096780592,0.14331603618858815
10.625372,1.4275204871047718,0.14110085014287133
10.627755999999998,1.443072658225152,0.1394819738770891
10.630136,1.4594162252784502,0.1378601885964949
10.632531999999998,1.4772500363989678,0.13608709292169469
10.634919999999996,1.4935936034522663,0.13457078275739312
10.6373,1.5047222641992322,0.1334935810021032
10.639692,1.5123585801325623,0.1328129988258671
10.64208,1.518504651998673,0.13232795274239315
10.644472,1.5203669831182296,0.13221610717410467
10.646864,1.5230207101707043,0.1320871039303146
10.649252,1.524743271663401,0.13201416043650752
10.651647999999998,1.5292593298354324,0.13178390393331496
10.654044,1.538198898380878,0.13116634004731875
10.656427999999998,1.5502115028593793,0.1303336075068862
10.658808,1.5595703802854055,0.1296186926709787
10.661212,1.5619917899124032,0.12938264782465567
10.663595999999998,1.563482033979622,0.12920312613774318
10.665976,1.5641808821139231,0.12903616066577903
10.66838,1.564739960621364,0.1289028282204147
10.670768,1.5669290528228839,0.1285600859081502
10.673147999999998,1.5660451090913488,0.12842195400517323
10.675552,1.564229999800035,0.12833146525630573
10.677936,1.5596213938293868,0.12839048384237778
10.680315999999998,1.5528709174854614,0.1286042917083763
10.682716,1.5451892755817578,0.128869944451795
10.685099999999998,1.5407204392379694,0.1288948082558228
10.68748,1.5374623077076799,0.1287996837386076
10.689884,1.5366255858043878,0.12846798659373906
10.692272,1.5376511950206524,0.12802967056357478
10.694651999999998,1.537885408303999,0.1276109302693976
10.697052,1.5382593912142057,0.12715804155983104
10.69944,1.5336980070718005,0.1270262087305497
10.701815999999996,1.5259238173694794,0.12714297844706232
10.70422,1.5152163613609633,0.12743045498793512
10.706608,1.5093045027781993,0.12743615888085003
10.708987999999998,1.505674284195572,0.12724688725931657
10.711392,1.4976205552395307,0.12742813573192627
10.713776,1.4937107974031831,0.12730529168918953
10.71616,1.4920826795669733,0.1269892483743052
10.71856,1.4869622169171273,0.12697323501970362
10.720948,1.4839836246405582,0.1268000581616005
10.723328,1.4852887731105433,0.12630841419211292
10.725732,1.4893874182598632,0.12567388695091497
10.728116,1.491204423409046,0.12522654274598147
10.7305,1.496606321170482,0.12463085975020877
10.7329,1.5030791541185562,0.12396612032539821
10.735288,1.5076896559470738,0.12339619322971675
10.737668,1.5101582874023145,0.12298541105043401
10.740071999999998,1.5121150621783572,0.12251682152717905
10.742459999999998,1.5120697362079836,0.12216759185099402
10.74484,1.5120244102376097,0.12181898638234784
10.747243999999998,1.5159832857600695,0.12121163786352838
10.749631999999998,1.5208733268423076,0.12055201397904051
10.752012,1.525483828670825,0.11995112112831365
10.754416,1.5258105897527885,0.11968721712914951
10.756799999999998,1.5250664156481137,0.11950387669020483
10.759183999999998,1.5278145863570747,0.1189936860537437
10.761575999999998,1.5284208866927587,0.11866340389764496
10.763963999999998,1.5226015759086116,0.11881614046736236
10.766344,1.5169220347513248,0.11894629731891931
10.768739999999998,1.5132445943404547,0.11893684792682743
10.771127999999996,1.5051436435561703,0.11929038182987337
10.773504,1.4961115272121075,0.11968586953814889
10.7759,1.492294317174377,0.11970787027479501
10.778288,1.4850319841512538,0.11983820945594102
10.780668,1.475488011127993,0.12015823694366295
10.783072,1.4678063692242893,0.12038490923856351
10.78546,1.462266597693863,0.12045316206868585
10.787836,1.4564472869097158,0.12059103357899083
10.79024,1.4535612424317637,0.1205628013735331
10.792628,1.4525375290733682,0.12044665317125267
10.795008,1.4515138157149727,0.1203311266823278
10.797411999999998,1.4504901023565773,0.12021560019340294
10.799799999999998,1.4505373241848205,0.12002458108606784
10.80218,1.4551478260133384,0.11947800997283736
10.804583999999998,1.4601304148941938,0.11901460976840297
10.806967999999998,1.4676269612006636,0.11851169510424032
10.809352,1.4729816371338558,0.11815287981792252
10.811747999999998,1.4835512193733809,0.11743814049352723
10.814132,1.4998475645984362,0.1164594441294268
10.816516,1.5109290035171585,0.11581236878902837
10.818911999999996,1.5269458094884936,0.11489122670102582
10.821296,1.546966816952662,0.11379155571750962
10.82368,1.5629836229239973,0.11294279499482458
10.826076,1.57979182482825,0.11208218974105867
10.82846,1.5996730626655582,0.11105179667288324
10.830839999999998,1.6174124301295896,0.11016190619205403
10.833236,1.6319389920337053,0.10947668219134103
10.835624,1.6504697554306544,0.10860255544386385
10.838003999999998,1.667789814014105,0.1078363725464749
10.840408,1.6780326351716663,0.10742775727549156
10.842796,1.6850626507693125,0.10722046977173187
10.845171999999998,1.6900905656205416,0.10711545393566542
10.847576,1.697400120471908,0.10684850861288339
10.849964,1.6972131290168044,0.10706293707403985
10.852344,1.6966540505093637,0.10719020244667286
10.85474,1.691299374576171,0.10753932164180101
10.857128,1.6859446986429785,0.10789813692811881
10.859507999999998,1.6816609578964241,0.10817355826367137
10.861904,1.673652554910757,0.10857881966246968
10.864287999999998,1.6748632597242559,0.10848561971416397
10.866684,1.6743514030450581,0.10843097288160941
10.86908,1.6689041793132482,0.10858710078860943
10.871464,1.6654590563278553,0.10865278927850176
10.873848,1.6612225374095446,0.10872116257298738
10.876244,1.6539129825581782,0.10893619862671455
10.878628,1.6487452980800887,0.10903385714826348
10.881007999999998,1.647442045467973,0.10898199162252191
10.883412,1.641063656176385,0.10916444049018392
10.8858,1.6341734102055991,0.10929351426418409
10.888184,1.6365022720339795,0.10897978127338684
10.89058,1.6431148746089141,0.10843000310636668
10.892964,1.6548026138633207,0.10764880430807702
10.89536,1.665279648304229,0.10697990093579525
10.897764,1.6819027546112477,0.10600215729014847
10.900147999999998,1.7033214583440182,0.10488348392114916
10.902532,1.7278131980098441,0.10360798506072964
10.904923999999998,1.7536554121160293,0.10221027772185017
10.907311999999996,1.7772159862220769,0.1009852406350841
10.909692,1.8004970210744042,0.09981588320887763
10.912095999999998,1.816561048873982,0.09903068543675858
10.914483999999998,1.8299713496210852,0.09830049171194456
10.916864,1.8433816503681884,0.09755883562712712
10.919259999999998,1.8527877496224578,0.09696820991277649
10.921647999999998,1.8639164103694237,0.09635259392309793
10.924028,1.8793288118629439,0.09553908470141326
10.926424,1.8946014437296035,0.09476746233526626
10.928812,1.907220348543789,0.09405425696889835
10.931192,1.9266369515301425,0.09313241002188517
10.933588,1.950569612688528,0.0921465443140492
10.935976,1.9714292379138578,0.09132976672832566
10.938356,1.9912179279525488,0.09058572357919858
10.940756,2.0099356828046018,0.08991981707385432
10.94314,2.028373898402934,0.08930934794614097
10.945536,2.046812114001266,0.08872111863512942
10.94794,2.059104257733488,0.08833616326844797
10.950323999999998,2.0703254662790704,0.08799464095413796
10.952704,2.079125265197656,0.08777168803971772
10.955099999999998,2.087133668183324,0.08754148421775454
10.957487999999998,2.09649254560935,0.08723023117489039
10.959868,2.1069223582220147,0.08687554507965481
10.962272,2.1209370634469327,0.08647673138188533
10.96466,2.135882934231629,0.08605713420007832
10.96704,2.1560437113226576,0.08545871717462564
10.969444,2.1775549628540456,0.08479714426054855
10.971828,2.193851308079101,0.08431737246054567
10.974207999999996,2.2081455525577396,0.08389096036720646
10.976612,2.224022588902214,0.08347475013181815
10.979,2.2323105311416014,0.08321773851600303
10.981379999999998,2.236734041515016,0.08305119565017005
10.983784,2.2402263863286525,0.08290177845301765
10.986172,2.2446498967020667,0.08274127343481985
10.988552,2.2461401407692856,0.08264543067361263
10.990956,2.2451164274108906,0.0825512205758055
10.99334,2.24129921737316,0.08249944470583817
10.99572,2.2431162225223424,0.08223711227372732
10.998124,2.2461439324850243,0.0819231206813733
11.000512,2.258390750246872,0.08138441014904019
11.002892,2.272639668755136,0.08080166507159582
11.005295999999998,2.2848864865169833,0.08026838374159427
11.007683999999998,2.297133304278831,0.0797351024115927
11.010064,2.303373819801428,0.07933065528953595
11.012476,2.309754104950886,0.07890733225750954
11.01486,2.3115711101000684,0.07865218432435375
11.017239999999996,2.309895770435615,0.078533079391904
11.019648,2.308220430771162,0.07841253988730311
11.022036,2.3068246303604285,0.07825100949821165
11.02442,2.306919074016915,0.07799942483137144
11.02682,2.3108779495393748,0.07767484416634973
11.029204,2.3149765946886953,0.07733089148012513
11.031588,2.3149312687183214,0.07709343773509113
11.033984,2.308088244575778,0.07698874655717385
11.036372,2.3032473211796525,0.07683609009322993
11.038756,2.2999891896493634,0.07669693693587726
11.041152,2.293518252559158,0.07666295948069927
11.04354,2.279550769162484,0.07687665390766726
11.045924,2.2653037465120884,0.07712591565607678
11.04834,2.2382527234502736,0.07765323824282375
11.050724,2.210270534828681,0.07818445174492847
11.053103999999998,2.183871138072925,0.07873027730846265
11.055519999999998,2.154818014264693,0.07930629934854111
11.057904,2.1339130630689898,0.07966201164612656
11.060284,2.1171520829929795,0.07988369108891237
11.062683999999996,2.1069564836636614,0.07988560168009856
11.065072,2.100253229147979,0.07975019125190895
11.067452,2.098764880938629,0.07947688603020227
11.069848,2.0991388638488355,0.07918107118198789
11.072236,2.093506544519792,0.07901060983543143
11.074616,2.0890849300042467,0.0787900391622961
11.077012,2.0826612147422847,0.07860889068269167
11.0794,2.0811728665329348,0.07833159892937133
11.081779999999998,2.087413382055532,0.07792064350674409
11.084196,2.088718530525517,0.07760295611843669
11.086579999999998,2.093376254182278,0.07717558715852821
11.08896,2.1069735463844848,0.07656817425104065
11.091376,2.1297899463858574,0.0757438341880981
11.09376,2.1508837848945337,0.07492474197720969
11.096139999999998,2.179706487135157,0.07394900108127232
11.098536,2.2085291893757804,0.07297999762831796
11.100924,2.234837934190789,0.07200005924646521
11.103303999999998,2.266873441991328,0.07093640496036516
11.105704,2.2898296116195604,0.07008166580328648
11.108088,2.3046376086352662,0.06942606300001568
11.110467999999996,2.3112974330384435,0.0689603995847009
11.112883999999998,2.3147444518817055,0.06858947864987733
11.115268,2.3131163340454957,0.06832861967495538
11.117648,2.3085549499030904,0.06811476793543933
11.120044,2.307718227999798,0.0678593100569245
11.122432,2.3013870605364533,0.06777418873203678
11.124812,2.2987805553122214,0.06764996440062389
11.127208,2.295382654155072,0.06751528906239006
11.129596,2.2891912563185874,0.0674089494362058
11.131975999999998,2.286864290348076,0.06724365712453118
