Time,Force,Position
10.877836,0.02020808792468526,0.0
10.88022,0.012727583369705905,0.0
10.882624,0.008971741053839832,0.0
10.885012,0.0070168621356661316,0.0
10.887396,0.004922213590632221,0.0
10.889792,0.00375873060537663,0.0
10.89218,0.0024554779932608297,0.0
10.89456,0.0024554779932608292,0.0
10.89696,0.004768298070150893,0.0
10.899348,0.009315536318935076,0.0
10.901728,0.013163926433418207,0.0
10.904124,0.018967195466075035,0.0
10.906516,0.02593394748398746,0.0
10.908892,0.03699744879335064,0.0
10.911288,0.04787395864761046,0.0
10.913672,0.06056557779318378,0.0
10.916052,0.0754916151106512,0.0
10.918456,0.09344346653293086,0.0
10.920844,0.11213949205988549,0.0
10.92322,0.1317194613183753,0.0
10.925624,0.15553594949517607,0.0
10.928012,0.18130731659015054,0.0
10.930404,0.20703146185688182,0.0
10.932796,0.23169881783059573,0.0
10.935184,0.25203521122951233,0.0
10.93756,0.27111367798668706,0.0
10.939956,0.2932179588486741,0.0
10.94234,0.3205683260937463,0.0
10.94472,0.3429049243812105,0.0
10.947116,0.36458989636261685,0.0
10.9495,0.3856232420379653,0.0
10.951876,0.40442216954141963,0.0
10.954272,0.4236404059254546,0.0
10.95666,0.4352695482044028,0.0
10.959036,0.44387287637853867,0.0
10.961432,0.452663196007778,0.0
10.963816,0.4606621197040992,0.0
10.966196,0.4633535892954709,0.0
10.968592,0.46702344627486403,0.0
10.970984,0.47246308657519676,0.0
10.97336,0.4720361942631392,0.0
10.975776,0.4701662797121056,0.0
10.97816,0.46685334292209596,0.0
10.98054,0.4682434557592211,0.0
10.98294,0.47554732303697966,0.0
10.985324,0.48504028251625847,0.0
10.987704,0.49658256457019734,0.0
10.990096,0.5003959828921892,0.0
10.992484,0.5126371130804291,0.0
10.994864,0.5228761425222521,0.0
10.99728,0.5388419349496054,0.0
10.999664,0.5578807633100139,0.010089013966139504
11.00204,0.5739863253642272,0.0205686137603404
11.004436,0.5955863329784934,0.030636769303992277
11.006824,0.6250549739515668,0.03997536815172526
11.0092,0.6539645364171994,0.04923689592931195
11.011616,0.6831536381365526,0.058310779869341335
11.014,0.716067402095019,0.06731928053785964
11.01638,0.7499123316132635,0.07605206108410652
11.018772,0.781615390758231,0.08483577656229695
11.02116,0.8185333562095309,0.09327379666268673
11.02354,0.8546599257279129,0.10180804129527514
11.025952,0.8961411711794876,0.1099391587306112
11.028336,0.9314763447649513,0.11842910566275607
11.030716,0.9658803527906367,0.12678533990098323
11.033132,1.0040090230554355,0.13473272356613553
11.035516,1.0366432477601812,0.1429279309449869
11.037896,1.0747719180249802,0.1508482384666155
11.040308,1.1059631204907499,0.15892679079260155
11.042692,1.1383650277700184,0.16696974656546726
11.045072,1.1642487761308387,0.17525514361732347
11.047472,1.190132524491659,0.17321497383607035
11.049856,1.2190893087855348,0.17067628491683878
11.052236,1.245624683452413,0.16866842533754697
11.054652,1.2681558566264577,0.16739569174800156
11.05704,1.2898956338675842,0.1662054978976125
11.05942,1.3085623751756552,0.16539782083846524
11.061816,1.326717259804529,0.16457933020925225
11.0642,1.3391453814478724,0.1643554262662478
11.066584,1.3509218767851576,0.16412289429822946
11.06898,1.3597651058162479,0.1642371888006152
11.071368,1.371401831526673,0.1640964108023975
11.073764,1.3788945861174042,0.1644395010123319
11.076156,1.3928129518279662,0.16404681330369883
11.078544,1.403937820859194,0.16389746598944877
11.080924,1.4090563876511708,0.1643485097198696
11.083328,1.4145942633237283,0.1646695355895338
11.085716,1.4171988726900906,0.1652654613164207
11.088096,1.4218055828028695,0.1656646488454668
11.090492,1.428554163288926,0.1658365821586654
11.092876,1.4413090460142328,0.16545755937290904
11.095256,1.450059727246706,0.1654525107489689
11.097664,1.457367386240203,0.1654832680393699
11.100048,1.4681673900473364,0.16513473333596548
11.102428,1.4795264723619104,0.16465362238391532
11.104824,1.4903736979972864,0.1641336748013732
11.107212,1.503921872513381,0.16326361595144828
11.109592,1.517609816656335,0.16238314356462263
11.111988,1.539306163784957,0.16087022000221124
11.114372,1.5630046116599956,0.15922211491562485
11.116752,1.5869825987887545,0.1575278343642489
11.119164,1.6085863981187594,0.15596380425088596
11.121548,1.6335427726355398,0.1541352540245804
11.123928,1.6530047015922673,0.15283658090958613
11.126332,1.676051523161248,0.15135664265165377
11.12872,1.6973757832375325,0.14986959709483383
11.1311,1.7213537703662916,0.14823287185303047
11.133504,1.7469145493608869,0.14656530809127416
11.135888,1.7715441627957036,0.1449636318246679
11.138268,1.7940319058572436,0.1436095172633937
11.140664,1.815448713732145,0.14244036708061103
11.143052,1.84072995347302,0.14104233745131972
11.145432,1.8663832802662326,0.13972910058020563
11.147836,1.889475427805587,0.13871349910953004
11.150224,1.9120084968375008,0.1378371184702384
11.1526,1.9350534225486122,0.13700616953457073
11.155004,1.9552576297521456,0.13647028944872125
11.157392,1.97425113214218,0.13604657271623652
11.159772,1.987098562666104,0.1360287150214188
11.162176,1.9991545972571096,0.1360370790088753
11.16456,2.0093483007285586,0.13613116308141598
11.16694,2.0194022345731475,0.13625384468434837
11.169336,2.0231703269247654,0.13676770766807025
11.171724,2.029499598530241,0.1370580443847238
11.1741,2.0314525815905453,0.1375079777643299
11.176496,2.0406225717035995,0.13752280701394393
11.17888,2.050351640324094,0.13743896127265248
11.181264,2.058637686705613,0.13736081281228188
11.183676,2.069065603460408,0.13715505299689762
11.186064,2.078841893909146,0.13694010254461955
11.188444,2.0868956228651876,0.13678819252610702
11.190844,2.090433293649198,0.13680055562176782
11.193232,2.092388172567371,0.1368376188345089
11.195612,2.094902129992986,0.13677497548462378
11.198016,2.0959730651796242,0.13671240703547333
11.2004,2.0934591077540103,0.1367778941658632
11.20278,2.093646099209113,0.1366137860110355
11.205188,2.0930416947312986,0.1364626863026598
11.207572,2.092856599134065,0.13623278960796992
11.209952,2.0906694027904136,0.1361092328227422
11.212348,2.0907638464469,0.13582838498078045
11.214732,2.090998059730247,0.13552203278849517
11.217112,2.0965869489467854,0.13488352906883438
11.219516,2.101104902976686,0.13431562292668914
11.221904,2.1117689288726975,0.13342483577815317
11.224284,2.120430854022292,0.13267399014160178
11.226688,2.1270906784254695,0.13203078451460276
11.229076,2.13160863245537,0.13149942809140047
11.231456,2.1342642553657147,0.13104491289596373
11.233852,2.1366403390223376,0.13063825342663815
11.236236,2.135291760439848,0.13036783607627545
11.23862,2.1348743474171363,0.13005879327383774
11.241012,2.13739020070062,0.12962079188221087
11.243396,2.140185593237824,0.12914167151602582
11.245776,2.144843316894585,0.12859565699234127
11.248192,2.155786882044317,0.12772966000263414
11.250576,2.16565951200741,0.1269312960822352
11.252956,2.1786051779035587,0.12599513920242297
11.25536,2.1934131749192645,0.12499724223970898
11.257744,2.2080814023081095,0.1240079209457016
11.260124,2.2213991552565955,0.12313521499553023
11.262516,2.233506203391583,0.12233716977034231
11.264904,2.2416090500337367,0.12172032677655865
11.267284,2.245987234436777,0.12122212033980259
11.269692,2.243148411787069,0.12107714682261299
11.272076,2.234163517271249,0.12122785431710194
11.274456,2.2250388531285687,0.12140147062498508
11.27686,2.2191269945458045,0.12140363112832701
11.279248,2.2150774670825975,0.12133759913180714
11.281628,2.2123784140597484,0.12116795919403041
11.284032,2.211262152902736,0.12097870215146012
11.286416,2.211216826932362,0.12073120191272352
11.288796,2.206236133909376,0.12069976480559563
11.2912,2.1989738008862525,0.12080611000457872
11.293588,2.190640532676491,0.12096706058376099
11.295968,2.180025624466592,0.12124835309053544
11.298372,2.17127304737625,0.12146052455207822
11.300756,2.1594474343528525,0.12180487427174531
11.30314,2.1446885550232593,0.12226516638175802
11.305536,2.1323510853206638,0.12256914331923603
11.30792,2.1181512844985115,0.12294040457589328
11.3103,2.1082352244229137,0.12308993242738497
11.312696,2.1043254665865665,0.12299148579618509
11.315084,2.1081445724821664,0.12261870962698415
11.317464,2.1170388150572377,0.12203236806151485
11.31986,2.13193935987156,0.12119021773507913
11.322244,2.1459087391261047,0.12037260409358316
11.324624,2.15880718319401,0.11961859838790312
11.327036,2.167841195395942,0.11900602200193248
11.329424,2.1745935675977366,0.11852096508830229
11.331804,2.183348040545948,0.11795404759794827
11.334208,2.191822974240439,0.1174327780949982
11.336592,2.204302109427765,0.11674011140080486
11.338972,2.2157103094284505,0.11608563981178037
11.341372,2.2252561783095803,0.11548436566207998
11.343756,2.230658076071016,0.11507177977526147
11.34614,2.2331267075262566,0.11477959653860666
11.34854,2.2374576701010542,0.11442531665675904
11.350928,2.245513294914965,0.1139465230368964
11.353308,2.2534291501020145,0.11350344889110393
11.355704,2.2632073364086223,0.11299309042613227
11.358092,2.267118990102839,0.11271559597942675
11.360472,2.2670264423042217,0.11260677992172233
11.362876,2.265071563386048,0.1125540195839125
11.36526,2.2569706126017635,0.11275306901224671
11.36764,2.2479384962577007,0.11297125725772424
11.370036,2.241188019913775,0.11306891512967653
11.37242,2.2353687091296277,0.11313853804125804
11.3748,2.231831038345618,0.11309163680772062
11.377196,2.231645942748384,0.1128819044722541
11.379584,2.2318801560317305,0.1126100104565989
11.381964,2.233744383009156,0.1122098245262096
11.384376,2.238681645919637,0.11171074950612299
11.386764,2.248694045509591,0.11104064361219945
11.389144,2.2636418121521564,0.11022392996159842
11.39154,2.2847356506608327,0.10918904383890797
11.393928,2.3048983236097307,0.10815915613217168
11.396324,2.3265512406258475,0.10705174861096972
11.398728,2.3456902002163504,0.10598121227861812
11.401112,2.365480786112911,0.10495110334555482
11.403492,2.3854111416363315,0.10390318067973617
11.405884,2.409997324958644,0.10274673463999638
11.408268,2.432301868280819,0.10167918183008776
11.410652,2.452604310856577,0.1006934525485026
11.413052,2.4787732860447256,0.09952042889036021
11.41544,2.5020089949266793,0.09842986248268755
11.41782,2.5226835245547745,0.09748693830088886
11.420224,2.5412161838095932,0.09662758141163616
11.422612,2.5581188293703323,0.09588826077346224
11.424992,2.570877503811378,0.09529901703868485
11.427396,2.5792126678790086,0.09488995038011666
11.42978,2.587128523066059,0.09454995128836198
11.43216,2.589177845640719,0.09437332841023488
11.434564,2.5852208659761287,0.09437186344166236
11.436952,2.576188749632066,0.094524052246555
11.439332,2.562361035862251,0.09478609882550902
11.441732,2.5534686891450487,0.09491253975183904
11.44412,2.5449484294801836,0.09508820916535872
11.4465,2.5380109616811546,0.09526527267627309
11.448904,2.5264176660832343,0.09553080882272968
11.451288,2.5168264712317305,0.0957372283680761
11.453672,2.5035106141411134,0.09600945294928084
11.456068,2.4904742963042175,0.09625375205714401
11.458456,2.473433776974487,0.09661664964894862
11.460836,2.455881400965559,0.09692782611524343
11.463232,2.4404708953299084,0.09716730854106842
11.465616,2.425339928947978,0.09737484987703154
11.467996,2.4103487321929076,0.09756802545989132
11.470404,2.398849880251473,0.09760702742106082
11.472788,2.388142424242957,0.09765113632095425
11.475168,2.382649874540774,0.09752441236486552
11.477564,2.3740842889055354,0.09749338874903836
11.479948,2.366170329576354,0.0974849436741112
11.482328,2.3633315069266456,0.09731994654711383
11.484732,2.3635657202099916,0.09705601229683966
11.48712,2.3664536605458135,0.09675303074318178
11.4895,2.3670599608814973,0.09655327032234098
11.491904,2.359937397485234,0.09654562060130513
11.494292,2.3518836685291924,0.09655653958489127
11.496672,2.3466234362524863,0.09651089158891374
11.499076,2.3381503984158645,0.09658306537456324
11.50146,2.3311203828182183,0.09667967587321888
11.50384,2.330096669459823,0.09659725746935072
11.506244,2.336941589460235,0.09630204436412089
11.508632,2.341504869460509,0.09610682935152225
11.511012,2.3487218765132583,0.09588173811009258
11.513416,2.3600828546857016,0.09553251447879771
11.515804,2.3735857032314214,0.09511143521694497
11.518184,2.383875746217226,0.09480628132669427
11.52058,2.392303458083474,0.09452701123594995
11.522968,2.398589299576445,0.09432630417542917
11.525348,2.411021212935527,0.09395063143857954
11.527752,2.4255949966678862,0.0935022865571625
11.53014,2.438958075586746,0.09311922311753532
11.53252,2.4533920896922448,0.09271204484225848
11.534916,2.4668949382379646,0.0923230615222595
11.537304,2.4786752252909894,0.0919459029025306
11.539684,2.4964618145832644,0.09140309979463845
11.542088,2.5153193390621773,0.09082981635692995
11.544472,2.5331059283544515,0.09028701324903782
11.546852,2.5559676543261975,0.08961772855477414
11.549248,2.5811110202980814,0.08886549206595414
11.551636,2.599037379217216,0.08832449498743215
11.554016,2.6146820981362136,0.08788718035992807
11.556412,2.6311182129881288,0.08744906009712224
11.5588,2.6446210615338486,0.08708177123059105
11.56118,2.654911104519653,0.08681890730649841
11.563576,2.6649216082517375,0.08659536169068241
11.565964,2.6775858390362965,0.0863485636829181
11.568344,2.694394040940549,0.08599158360178898
11.570748,2.7082689765386068,0.08568738923947242
11.573132,2.715997840270554,0.0855421759662657
11.575512,2.7257288047489174,0.08535858283223192
11.577916,2.7326662725479465,0.08521385889392866
11.5803,2.735459769227282,0.0851742123319016
11.58268,2.741186532212812,0.08507991125887261
11.585084,2.748124000011841,0.08493890703216667
11.587468,2.7550614678108696,0.08480051682142167
11.589852,2.7629301011696765,0.08465325104090772
11.592256,2.775082475275038,0.08439497634157984
11.59464,2.777364115275175,0.08432111450279298
11.597024,2.776712488969117,0.08429996683594004
11.599416,2.7804843730364737,0.0841475900798586
11.601804,2.777877867812242,0.08406212605219274
11.604184,2.775411132214871,0.08395992956573346
11.60658,2.772013231057722,0.08386993809144887
11.608968,2.767684164340794,0.08379232224292861
11.611348,2.7656367376240034,0.08364029008430261
11.613748,2.759213022362041,0.08351475114391482
11.616136,2.754372098965915,0.0833988038781277
11.618528,2.7576793481823167,0.08311064747014733
11.620924,2.762988698145136,0.08278040535537115
11.623316,2.7613605803089247,0.08257960145156461
11.625692,2.7625259591520503,0.08234333838331279
11.6281,2.7647622731818133,0.08207565961475763
11.630484,2.763273924972464,0.08185707120816345
11.632864,2.762437203069172,0.08166071957667917
11.635268,2.758527445232824,0.08153132296868183
11.637656,2.7518241907171417,0.08143577110560071
11.640036,2.7439102313879604,0.08138201171498843
11.64244,2.744796070977365,0.0811814551108908
11.644828,2.7476840113131864,0.08094292665392294
11.647208,2.7498731035147066,0.08078710461744087
11.649608,2.757788958701757,0.0805468417751829
11.651996,2.7669155187023065,0.08026548837487045
11.654376,2.774039977956438,0.08001706361234996
11.656776,2.781164437210571,0.07976636240942479
11.659164,2.7821428245985924,0.07965017008203643
11.661544,2.7887082053452836,0.07946803035995936
11.66394,2.791688693479722,0.07931500065531802
11.666328,2.786381239374773,0.07934571124488976
11.668708,2.7821447204564618,0.07934917919243416
11.671104,2.785776834896957,0.07922102268039664
11.673492,2.789548718964314,0.07907819948348895
11.675872,2.796253869337866,0.07889011498511976
11.678268,2.802679480457697,0.07873250191643083
11.680656,2.8061718252713335,0.07862078741044137
11.683036,2.8118060404582463,0.0784545847641156
11.68544,2.8171607163914394,0.07831965541370155
11.687828,2.8194423563915763,0.0782496197097526
11.690208,2.819861665272157,0.07820140096742159
11.692604,2.820280974152737,0.07815362419663674
11.694992,2.819257260794342,0.07807781068576454
11.697376,2.816091677062669,0.07805371302367589
11.699772,2.8098530573979414,0.07809087201850216
11.702156,2.8104121359053824,0.07802723243068857
11.70454,2.8149754159056566,0.07789435472206142
11.706944,2.820469861465709,0.07774780207153138
11.709332,2.8239622062793455,0.07763955267355147
11.711712,2.8311792133320948,0.07749487501263119
11.714108,2.839327385944623,0.07733460462595354
11.716496,2.8485464937437888,0.07715285273622828
11.718876,2.849896968184148,0.07709586381843847
11.72128,2.846312075571895,0.07711892969152807
11.723668,2.8410046214669453,0.07714407863825865
11.726048,2.835045541055938,0.07714768756163429
11.728448,2.8343013669512627,0.07703944603423733
11.730836,2.833417423219728,0.07694709864850577
11.733216,2.8346753498614703,0.07680415240840607
11.735612,2.8391460820631274,0.07658648327178112
11.738,2.8434770446379245,0.07638656531122685
11.74038,2.8458059064663046,0.0762208158457809
11.742776,2.85092826497402,0.07602935233275321
11.745164,2.8572613282952344,0.07579682477421058
11.747544,2.86852975866906,0.07549076537212322
11.74994,2.8742111956842167,0.07524062325386634
11.752328,2.874677726393041,0.07509554169993829
11.75472,2.880359163408196,0.07484816718132563
11.757116,2.883247103744018,0.07462512364262937
11.759504,2.8813394466540867,0.07445990397708759
11.761884,2.884786465497349,0.07417815996948786
11.764284,2.8828788084074186,0.07401294030394606
11.766672,2.886697914303018,0.07378061809953879
11.769052,2.8965233224378686,0.07344902324841697
11.771448,2.9060691913189984,0.07314975345195744
11.773836,2.9164064561330463,0.07285439411549376
11.776216,2.920457879454123,0.07268876384594228
11.778616,2.9226469716556434,0.072538975032759
11.781004,2.9229737327376077,0.07240650833938031
11.783384,2.918365126766959,0.07234714703967955
11.78578,2.9089609233705587,0.07234688528032761
11.788168,2.8984857847875194,0.07237300938768343
11.790564,2.8838666750847866,0.07248393426002922
11.79296,2.8681766301954146,0.07261996580335016
11.795348,2.8523468156791836,0.07276331610362503
11.797728,2.8374481667227305,0.07289906748373785
11.800132,2.8220376610870797,0.07300061653691986
11.80252,2.801132709891376,0.0732428011444936
11.8049,2.7803675283225324,0.07347323712432194
11.8073,2.7616044475001056,0.07367043920922464
11.809684,2.7377662299982073,0.07395663135656587
11.812068,2.719282688429501,0.07411836237885386
11.814464,2.6980056501814595,0.07430576212501488
11.816852,2.6755179071199198,0.07452767018641507
11.819232,2.6518194592448805,0.07479556542643505
11.821628,2.62891240730276,0.07507412179799436
11.824012,2.6102890961071936,0.07525356871570936
11.826392,2.597392547897158,0.07536000490449668
11.8288,2.5842164604334013,0.07550090581418116
11.831188,2.5729027040892016,0.07562719330795047
11.833568,2.567455480357392,0.07566591087648653
11.835972,2.5640103573719992,0.0756698362244491
11.83836,2.5628468743867434,0.07560377019514625
11.84074,2.563825261774765,0.07548453414729298
11.843136,2.557866181363757,0.07548357818132398
11.845524,2.5544210583783644,0.07548778177093318
11.847904,2.5554919935650027,0.07546110311688765
11.8503,2.5601950431921376,0.0753023006992714
11.852688,2.568482985431525,0.07512258664978212
11.855068,2.5777020932306915,0.07493565737732782
11.857472,2.590925402522691,0.07467868771066624
11.85986,2.5992133447620795,0.07450281131025535
11.86224,2.606570121441689,0.07433356474946977
11.86464,2.612204336628602,0.07416637394971196
11.867024,2.6213308966291513,0.07388696564588794
11.869404,2.634741197376254,0.07351106313456332
11.871804,2.644938692563442,0.07321199573122324
11.874192,2.6503405903248782,0.07297763441806608
11.876572,2.6580241280864505,0.07267664481221085
11.878972,2.6677097665944403,0.07234262061660506
11.881356,2.676604009169512,0.07200699316012235
11.883736,2.684706855811666,0.07166232114425089
11.88614,2.69294947208068,0.07130325488374056
11.888528,2.700772779469113,0.07099666126573125
11.890908,2.7158130939102954,0.07055289442015421
11.893312,2.728199681299004,0.07011727913194477
11.895696,2.738723937568155,0.06970082678544592
11.898076,2.744684913837032,0.06940976436090907
11.90048,2.748131932680294,0.06911125288926875
11.902868,2.748505915590501,0.0688668771467871
