Time,Force,Position
10.474924,6.905854668773297,0.04795992365684317
10.477323999999998,6.8190220584305665,0.04805563575977638
10.479712,6.731909908834115,0.0481650386495025
10.482092,6.64731171666328,0.04828803606243025
10.484488,6.562713524492444,0.04841214554529352
10.48688,6.477835793067888,0.048550860066598985
10.48926,6.399523442390022,0.04864650771078099
10.491656,6.325866919511047,0.04874420817995974
10.494044,6.240849418459631,0.04890122159117971
10.496428,6.1579265659532485,0.049097469019815536
10.498824,6.081382102738454,0.049307799423709324
10.501212,6.005581813628333,0.04958553072213248
10.503596,5.92824405862275,0.04994891142394398
10.505992,5.852581643281622,0.050380175183337976
10.508383999999998,5.779805272418444,0.050869839291516075
10.510764,5.707633306033082,0.05143817047707881
10.51316,5.640069945618368,0.0520647010367792
10.515548,5.575392629681607,0.05274815288104846
10.517932,5.5159755460215525,0.05350498781696446
10.520328,5.453577974227059,0.05435104838548886
10.522716,5.39220411579096,0.05526143961570351
10.5251,5.328641165153343,0.05627158454746047
10.527496,5.267684719739955,0.0573619367168179
10.529887999999998,5.2073326788043826,0.058544001513369845
10.532268,5.14465177604043,0.0598435701340871
10.534664,5.086439709620265,0.0612173447683577
10.537052,5.0245483069313615,0.06273168675465071
10.539436,4.960887120921518,0.06432399468678408
10.541831999999998,4.906537590509458,0.06593061379165004
10.54422,4.853398764910897,0.06753718028352891
10.546604,4.800120169685474,0.06917307986508288
10.548999999999998,4.752615559273828,0.07073838724610221
10.551388,4.7054377099441425,0.07225409628064458
10.553772,4.659797326509919,0.07368254306241712
10.556167999999998,4.616765344157798,0.07500979013843162
10.558559999999998,4.569544064715609,0.07630962788140261
10.56094,4.515572308929494,0.07764076938437746
10.563335999999998,4.4596456742252055,0.0789630718776517
10.565727999999998,4.397387872057573,0.08029401038034159
10.568108,4.337458931718319,0.08156475193819751
10.570503999999998,4.2767858172743916,0.08280146092861922
10.572891999999998,4.218301795031983,0.08397870336056418
10.575272,4.157211267565343,0.08514167877703828
10.577671999999998,4.09579587487461,0.08622938085005502
10.580059999999998,4.038711444758674,0.08719767857299295
10.582444,3.9791602790453653,0.08812234539587582
10.584856,3.9219379751604375,0.08895468121454113
10.587244,3.8638317275439746,0.08975722870853915
10.589624,3.8059124713826162,0.09048221095241399
10.59202,3.7445480922358647,0.09125675006345815
10.594408,3.6793665030513827,0.09204910978315639
10.596792,3.6098086253217287,0.09288879194766846
10.599188,3.539179812405437,0.09379071125426526
10.601576,3.463475862809672,0.09483558270009822
10.60396,3.382277467653855,0.09608282403199644
10.60636,3.3045241954834306,0.0973773163212205
10.608748,3.23119443368642,0.09860655358539668
10.611128,3.158144211143131,0.09987177108977632
10.613524,3.0908207515853716,0.10107955117251081
10.615916,3.0253596231471684,0.10229635344881685
10.618296,2.962831761015161,0.1034740420751834
10.620692,2.9016543733235123,0.10461487931084935
10.62308,2.8438295608186395,0.10567116237580829
10.62546,2.7866563746198243,0.1067805371777164
10.627856,2.727620857301452,0.10795512649594899
10.630244,2.670727210356358,0.10907436479496596
10.632623999999998,2.6129023978514847,0.1102575439244483
10.635024,2.5598731827723635,0.11133096373303102
10.637412,2.503631162133327,0.11256943112331873
10.639791999999998,2.4492514726138466,0.11384548658580745
10.642192,2.401389942012815,0.11498375789622427
10.64458,2.353388641784923,0.1162127593357053
10.646959999999998,2.307529211930308,0.11740339875394974
10.649356,2.2684674802478613,0.11840111634881915
10.651744,2.234620654871748,0.11923132319060471
10.654123999999998,2.2002619728164365,0.12008287849749608
10.656524,2.167625852253821,0.12091576580298162
10.658907999999998,2.137783228370541,0.12169177268951412
10.661291999999998,2.107288978181203,0.12246851881165077
10.663688,2.0757237928052263,0.1233528897440817
10.666076,2.042947902615751,0.12435439327219437
10.668459999999998,2.0109634083591934,0.12536173324416522
10.670856,1.9793510011549735,0.12645952088529525
10.673248,1.9470869676446958,0.12760036960754842
10.675627999999998,1.9164057260002547,0.12876330643550293
10.678024,1.8815805132361192,0.13026503936388548
10.680416,1.8506197323379572,0.1315798170014627
10.682795999999998,1.815794519573822,0.13313352291134647
10.685192,1.7831111771829642,0.1346304110026731
10.687584,1.752709474792243,0.13599157563762174
10.689963999999998,1.719374506095327,0.1375498974607126
10.69236,1.6908351348241624,0.13885866054343807
10.694748,1.6641580946725545,0.14008069860841407
10.697131999999998,1.6365498889611685,0.1413274260675847
10.699528,1.610943783996199,0.1424217701640982
10.70192,1.5930665427631772,0.1430405417669282
10.704299999999998,1.5778430285826295,0.14353707818478612
10.706696,1.5638302192155809,0.14392532554874238
10.709084,1.55032926652773,0.14437525207729393
10.711467999999998,1.5420432201462113,0.14445967831485695
10.713864,1.5360388137648302,0.14435574020819558
10.716256,1.5308258033163669,0.14423508589052028
10.718635999999998,1.5246816273081256,0.14416991975253834
10.721032,1.5213309479792192,0.14395051213301732
10.72342,1.5190512038369508,0.14364483436445194
10.725803999999998,1.5254314889864078,0.14278602110844346
10.7282,1.5278075726430314,0.14220236193740615
10.730592,1.5340480881656284,0.14135089306951956
10.732971999999998,1.546806762606674,0.14014365516351096
10.735368,1.5590063585402782,0.13905205372845036
10.737756,1.5702747889141044,0.13796329977409372
10.740135999999998,1.579680888168374,0.13699961437525052
10.742551999999998,1.5910890881690605,0.13591528323187516
10.744936,1.6003554177964698,0.13499649414231207
10.747316,1.6126947833569347,0.1339107158790496
10.749732,1.6188880770512888,0.133293247216361
10.75212,1.6214964781333896,0.13284609897749197
10.754499999999998,1.6228941744019916,0.13251416347352504
10.756911999999998,1.6297863162306467,0.13175811993469336
10.759296,1.636398918805581,0.13109696320449926
10.76168,1.6438029173134339,0.1304334541209465
10.764076,1.6493445847017298,0.12984841843274084
10.76646,1.6587506839559993,0.12904948164179048
10.768855999999998,1.669087948770047,0.12821778956832275
10.771252,1.681706853584232,0.12722992676474937
10.77364,1.6865968946664702,0.1266463489199382
10.77602,1.695491137241542,0.12581732118375666
10.778424,1.7013123438835582,0.1251761861406464
10.780812,1.6956800245545145,0.1251251009090097
10.783188,1.6924691148524684,0.12485870893414357
10.785588,1.6959161336957305,0.12425309717564241
10.787971999999998,1.7018771099646073,0.1235825274671675
10.790356,1.7054166766064862,0.12313042472581893
10.792751999999998,1.7121690488082812,0.12245437504953195
10.795135999999998,1.7112851050767461,0.12232553169061137
10.79752,1.7165472332113216,0.121830670713735
10.799924,1.7255340235850105,0.12117444216055077
10.802307999999998,1.737593849891755,0.12034696325175481
10.804688,1.7446710873176439,0.11996501068864222
10.807092,1.7486752888104773,0.11975718486831
10.80948,1.7516085551166725,0.11961761082562843
10.81186,1.7574750877290628,0.1193367065370713
10.814256,1.7626899940353953,0.11904587269223213
10.816643999999998,1.7646920947818119,0.11894508710572328
10.819024,1.761339519595036,0.11916786668773989
10.821428,1.764924412207289,0.11904939614815643
10.823816,1.768509304819542,0.1189348898545341
10.826195999999998,1.7742360678050721,0.1186881438078214
10.8286,1.792347522321441,0.11789629438103189
10.830988,1.8081773368376726,0.11726976002943611
10.833367999999998,1.8181406187415134,0.11693105572679825
10.835764,1.8274522743392967,0.11658293456108994
10.838148,1.8351811380712437,0.11623995858836986
10.840531999999998,1.8384864914297765,0.11617836849501374
10.842928,1.8462153551617235,0.11581551880027824
10.845311999999998,1.845935815908003,0.11587318131250679
10.847696,1.8413725359077286,0.11619908948125852
10.850096,1.8326652847877603,0.11676320112542779
10.852484,1.8207924499361197,0.11739868240133818
10.854867999999998,1.8102700895248376,0.11790628696711226
10.857264,1.798676793926917,0.11849365276933511
10.859652,1.783870692769081,0.11931004473543333
10.862035999999998,1.7629185197451342,0.12056140807212502
10.86444,1.7501145193337153,0.1212585407688298
10.866824,1.7413147204151296,0.12173936604623209
10.869208,1.7303730511232671,0.12233981086735232
10.871608,1.716358345898349,0.12313301493036134
10.873996,1.7042059717929876,0.12382321570967501
10.876376,1.6853956691423178,0.12477907567043398
10.87878,1.6727314383577587,0.12535858497582453
10.881168,1.664211178692894,0.12570756249677395
10.883548,1.6516867175351948,0.12626736303900435
10.885951999999998,1.64316645787033,0.12662016726372688
10.888336,1.6410718093252963,0.12658729735388266
10.890716,1.6371148296607052,0.12662511829555242
10.893112,1.6379534474218669,0.12645321881259386
10.8955,1.6424241796235244,0.1259949363460146
10.89788,1.6490367821984588,0.12539456202901617
10.900276,1.664449183691979,0.12437518603614253
10.902664,1.6783713411182801,0.1235032521378649
10.905043999999998,1.6924332681714407,0.12258271054451945
10.90744,1.7095682311576574,0.12146484609644617
10.909828,1.7385760289955148,0.11972575845971488
10.912207999999998,1.7607861286612037,0.11841954765604663
10.914604,1.7842069331403911,0.11706285864353581
10.916992,1.802971909820687,0.115857607144535
10.919372,1.824809922434038,0.11447097232948818
10.92178,1.8426437335545556,0.11329286928788287
10.924168,1.8595463791152946,0.11212286806286816
10.926548,1.8684406216903666,0.11138777517869236
10.928944,1.874122058705523,0.1108517033574717
10.931332,1.8848786324001514,0.11004877432013349
10.933716,1.8905600694153073,0.10950743932759768
10.936112,1.8891642690045747,0.10932863604977479
10.9385,1.8876286989669817,0.1091772810260993
10.940879999999998,1.8862328985562486,0.10899830992081967
10.943284,1.8825554581453785,0.10897346270276757
10.945672,1.878598478480788,0.10900529946944292
10.948052,1.8677040310171684,0.10934855582339116
10.950456,1.8592309931805464,0.10951397984302844
10.95284,1.8528998257172016,0.10955549634072576
10.955224,1.8469879671344374,0.10950990775777651
10.95762,1.8322763096330876,0.10980523012584407
10.960008,1.8186355873183764,0.11004121738891998
10.962388,1.8000594979510534,0.11047925583787446
10.964784,1.78721017156926,0.1107155993971525
10.967172,1.7703566436946334,0.11113679227675852
10.969551999999998,1.7547138206335051,0.11148594433522357
10.971948,1.7420042638785724,0.11171316066857011
10.974336,1.7343698438031117,0.11169872494386889
10.976719999999998,1.7259440277947329,0.11169422256926947
10.979116,1.7143054062264385,0.11186892575907413
10.9815,1.7077419213376164,0.11179644145170321
10.983896,1.7091868394344614,0.11135185763518897
10.986292,1.712773627904584,0.11078850965527888
10.98868,1.7152894811880677,0.11028903606492481
10.99106,1.7158032337251345,0.10987063725018247
10.99346,1.7156653599561436,0.10942584806553504
10.995848,1.7165984213737906,0.10891077698975131
10.998228,1.7145982164852431,0.10852568444812229
11.000631999999998,1.7093852060367798,0.10832940414751238
11.00302,1.7049635915212347,0.1081261313465418
11.0054,1.701473142565468,0.10788884287321045
11.007796,1.693559183236287,0.10793930128404891
11.010184,1.6875075550266625,0.10792458113902044
11.012564,1.681595696443898,0.10787191319027734
11.01496,1.6836922408468014,0.10743232987147958
11.017348,1.6885822819290393,0.10689913642849076
11.019728,1.6903992870782223,0.10651944266437466
11.022128,1.6903539611078484,0.10620991875416909
11.024512,1.6933816710705296,0.10574741355111636
11.026908,1.6986910210333483,0.10513687770773437
11.029303999999998,1.7018585006228901,0.10465482179530897
11.031691999999998,1.6970175772267646,0.10452585798185345
11.034072,1.6906864097634196,0.10453825166790462
11.036468,1.6834240767402966,0.10458169174496869
11.038856,1.6810971107697856,0.10441911245283549
11.041236,1.6795615407321927,0.10425396684605649
11.043636,1.6768152658811006,0.10417623430000354
11.04602,1.675651782895845,0.10409339673942705
11.048404,1.6787720406571434,0.10376648736279373
11.0508,1.6777483272987481,0.10365401519317505
11.053188,1.67886648431363,0.10342095107509404
11.055568,1.6822662813286486,0.10301790605296425
11.057964,1.6878079487169446,0.10248874206244891
11.060352,1.6892056449855468,0.10218565368856788
11.062736,1.6847368086417587,0.10213717981546898
11.065136,1.6782658715515535,0.10217614660741679
11.067524,1.6748679703944038,0.10206681254682261
11.069904,1.66704655886384,0.10223637734166326
11.072304,1.6589456080795555,0.10245690543139115
11.074692,1.6497737221086322,0.10272932652856996
11.077072,1.6427437065109862,0.1028760890911488
11.079472,1.6426511587123696,0.10273283928340841
11.081856,1.6431176894211934,0.10247463509516878
11.08424,1.645726090503294,0.10210202160518662
11.086636,1.6484742612122552,0.10171354066299614
11.089024,1.65536640304091,0.10115362740809475
11.091408,1.6671939119221768,0.10041570295044878
11.093804,1.6802321256169424,0.0996039691313077
11.096192,1.693782195990906,0.09888327592968896
11.098572,1.7093343671112862,0.0980733966434438
11.100972,1.7247467686048061,0.09731033548887921
11.103356,1.7460257027107164,0.09637341653099042
11.105752,1.7670250975629067,0.0955091249959536
11.108147999999998,1.7890954276017352,0.0945707480241126
11.11054,1.8138194846930382,0.09359914716896633
11.11292,1.8365414410379246,0.09268148372762798
11.115315999999998,1.8624762029427266,0.09167640071115817
11.117703999999998,1.8974903030198345,0.09033990376565501
11.120084,1.931433467910304,0.08905787848291388
11.122483999999998,1.9641659279872747,0.08784047290636514
11.124871999999998,1.9958274528776068,0.08671518071222993
11.127252,2.02627827295444,0.08571202924233813
11.129651999999998,2.055378618590915,0.08479870657471751
11.132039999999998,2.0843391946005294,0.08393599680481077
11.13442,2.110086965050228,0.08321193138870851
11.136815999999998,2.1286177284471774,0.08274067805174934
11.139203999999998,2.1442152255379314,0.08235740902895435
11.141588,2.1568794563224905,0.08204717861718452
11.143983999999998,2.163677154494659,0.08188233185481544
11.146371999999998,2.1746188237865214,0.08159376888666496
11.148752,2.184210018638025,0.08138846635395137
11.151156,2.187794911250278,0.08134744084947405
11.153539999999998,2.190448638302753,0.08132242545024387
11.155924,2.196035631661423,0.08123046424622961
11.158319999999998,2.19789796278098,0.08119982932864393
11.160707999999998,2.206977300953286,0.08096216906024807
11.163088,2.2117728983790377,0.08087278855447895
11.165492,2.2117728983790377,0.08087278855447896
11.167879999999998,2.2141943080060353,0.08076830716787142
11.17026,2.21875758800631,0.08059902080286009
11.172664,2.2202478320735293,0.08050660018611083
11.175048,2.216662939461276,0.08053847083503238
11.177431999999998,2.2152199172222997,0.08050411345495428
11.179832,2.2107038590502683,0.08054943810094915
11.18222,2.207398505691735,0.08054138738929385
11.184599999999998,2.2083768930797567,0.08039797697974599
11.187004,2.209634819721499,0.08021405473564137
11.189388,2.2154088045352727,0.07998481793225865
11.191767999999998,2.2254665300956002,0.07961629753145687
11.194164,2.228447018230038,0.07942668332170097
11.196552,2.231195188938999,0.07914725871573998
11.198932,2.2360852300212377,0.07879686955052391
11.201336,2.2403236447974177,0.07841798385557248
11.20372,2.242839498080902,0.0780499641332471
11.2061,2.2462865169241635,0.07766359304123845
11.208504,2.240514427968259,0.077519188064378
11.210896,2.233811173452577,0.07738742679492829
11.213276,2.2249660485636173,0.07732343515719801
11.215672,2.211045786995186,0.07738521153073946
11.21806,2.1971255254267543,0.07744207428454018
11.220444,2.1864180694182376,0.07739841118922583
11.22284,2.1794824974770783,0.07716965531585558
11.225228,2.170824364043222,0.0769433222911069
11.227612,2.167241367288838,0.07659318955864383
11.230008,2.167662572027288,0.07616119331244017
11.232396,2.165941906392461,0.07579293943533948
11.234775999999998,2.1659438022503306,0.07542606650967251
11.237172,2.163571510309445,0.07503642513859607
11.23956,2.158917578368423,0.07472656961227354
11.241943999999998,2.1561259775469575,0.07439100226419905
11.24434,2.1507731974716338,0.07417470934394194
11.246732,2.14528064776945,0.07397844528340304
11.249111999999998,2.1402999547464643,0.07383148305315479
11.251508,2.1339687872831195,0.07375650374639182
11.253892,2.13057088612597,0.07362770776062927
11.256275999999998,2.1302460209018754,0.07342069941754024
11.258672,2.1307125516106993,0.07322190742378622
11.26106,2.1323897871330217,0.07296545488445591
11.26344,2.140073324894595,0.07257449480758023
11.265835999999998,2.1468256970963893,0.07219944496912944
11.268219999999998,2.1512964292980468,0.07191177677732542
11.27062,2.1569306444849596,0.07171112749457349
11.273012,2.1630767163510707,0.07156171496443087
11.2754,2.1662895219109863,0.07146898854369846
11.277784,2.1602832196717356,0.0715937809427745
11.28018,2.1572101837386803,0.07166564730676123
11.282568,2.1481308455663743,0.0718646604221844
11.284952,2.1379805722074297,0.07209320062958648
11.287348,2.131182874035261,0.07220506030390857
11.289736,2.1265270462363697,0.07225551358161543
11.292115999999998,2.1290882254902277,0.07213343331059349
11.294512,2.1357933758637797,0.0719174304938456
11.2969,2.144640396610608,0.07164563925428036
11.299279999999998,2.1576313884771303,0.07128250588016387
11.30168,2.169830984410735,0.07091864435950068
11.304068,2.1851036162773947,0.0704954627686384
11.306447999999998,2.19772252109158,0.07007036111992813
11.308848,2.2129951529582397,0.06964254121158649
11.311232,2.222773339264847,0.06937525280748814
11.313612,2.2314805903848156,0.06913519719568492
11.316007999999998,2.2383255103852275,0.06890550350818048
11.318395999999998,2.2435876385198026,0.06865638707166596
11.320796,2.2499207018410163,0.06837977721352374
11.323192,2.2511786284827586,0.0682004365645731
11.32558,2.2596535621772498,0.06785127590844126
11.32796,2.265986625498464,0.06756456115286744
11.33036,2.2764636599393717,0.06717054822586893
11.332748,2.2857299895667813,0.06682151315972519
11.335128,2.287499772887721,0.06668496263578103
11.337524,2.289269556208661,0.06655031257084523
11.339912,2.28503303729035,0.06653570808619667
11.342296,2.2737192809461497,0.06666593177358164
11.344688,2.2585410927359755,0.06685203454511375
11.347076,2.2394984726598284,0.06708608638702658
11.349455999999998,2.2183139822104043,0.06737416565358842
11.35186,2.1971294917609807,0.06764584004829524
11.354248,2.1836738650435037,0.06780932438262109
11.356628,2.169706381646829,0.06791557876157656
11.359024,2.1601624086235685,0.06789879686905388
11.361412,2.1516893707869467,0.06785518994847126
11.363796,2.148151700002936,0.06773743529479083
11.3662,2.142611928472509,0.0676524359931677
11.368588,2.134418429889608,0.06756891763851895
11.370968,2.133162399105735,0.06737468513875979
11.373364,2.1288333323888073,0.06724196639232446
11.375752,2.1258547401122385,0.06704398530069491
11.378132,2.1236675437685872,0.0668590233570836
11.380532,2.1285575848508254,0.06655359340006105
11.382916,2.1428065033590897,0.06604972780912471
11.385296,2.1541221555611587,0.06558502584798151
11.3877,2.171955966681676,0.06507930124580119
11.390088,2.1927230441083894,0.0645226710173133
11.392472,2.2172147837742155,0.06393668440250537
11.394868,2.2403560489996823,0.06340533435297063
11.397256,2.2624263790385113,0.0628902295113711
11.39964,2.281423673144284,0.062445074472318986
11.402036,2.290550233144833,0.06215211879650235
11.404424,2.298326318705023,0.06192911715654878
11.406808,2.3028895987052977,0.06178630772065974
11.409204,2.3091754401982687,0.06165172795143447
11.411592,2.3125280153850447,0.061556523156687436
11.413972,2.3186740872511558,0.06144174797967514
11.416372,2.327194346916021,0.06136407937536812
11.41876,2.336925311394385,0.06124864453634361
11.421144,2.3495895421789434,0.06109857889244228
11.42354,2.3610430681500034,0.060994493290623925
