Time,Force,Position
9.721068,1.1840884835108365,0.032659991887341006
9.723464,1.154058868172453,0.032117327987560194
9.725848,1.1210959865278745,0.031533765433092394
9.728228,1.0937200982419657,0.03099062694756057
9.730624,1.0654130443962784,0.029113151286052855
9.733012,1.0317513146173987,0.027307962385764318
9.735392,0.9999519159580756,0.025506604241992716
9.737804,0.9672213517389743,0.02371398266269565
9.740192,0.9422196512518198,0.021959024854670908
9.742572,0.9181491163244436,0.020247275942305378
9.744976,0.8910055454640123,0.018557864532376858
9.74736,0.8615803346034434,0.01690235985296492
9.749744,0.8289423181829592,0.015306582206923314
9.75214,0.7888077554560049,0.013785067936246898
9.754524,0.753608559781663,0.012288407664865771
9.756908,0.7171986592938222,0.010845968218133118
9.759312,0.679717823619343,0.00941803621110335
9.761696,0.6430283838777815,0.008063511135402523
9.76408,0.6086205841363577,0.006690452909831535
9.766476,0.5744923236486542,0.005336861102674722
9.76886,0.5452994302135626,0.004005597707136878
9.771244,0.5163860760321914,0.002632720823518632
9.77364,0.48840388741059876,0.00132685071384578
9.776024,0.4645656699086999,0.0
9.77842,0.44473165389963476,0.0
9.780820000000002,0.42811044345048516,0.0
9.783204,0.41470203856125115,0.0
9.785588,0.4002226984853787,0.0
9.787984000000002,0.3789456602373375,0.0
9.790372,0.35766862198929644,0.0
9.792752,0.340395785234089,0.0
9.795156,0.3235422573594622,0.0
9.79754,0.3105531613508088,0.0
9.799924,0.3047810723949047,0.0
9.802320000000002,0.2957961778790851,0.0
9.804708000000002,0.2838780170570703,0.0
9.807084,0.27731453216824814,0.0
9.809484,0.27061127765256576,0.0
9.811872,0.26469941906980154,0.0
9.814252,0.2522221797403459,0.0
9.816648,0.23574258025478503,0.0
9.819036,0.219123211142364,0.0
9.821432,0.20436617314949956,0.0
9.823828,0.18653609922357972,0.0
9.826216,0.16856625567079972,0.0
9.828596,0.15045664249115948,0.0
9.830992000000002,0.13113632449802046,0.0
9.833380000000002,0.11474927281107664,0.0
9.83576,0.10115571780346778,0.0
9.838160000000002,0.08742239316899873,0.0
9.840548000000002,0.074620234094308,0.0
9.842924,0.0635406365123137,0.0
9.84532,0.053531974116957926,0.0
9.847708,0.0415212109751853,0.0
9.850104000000002,0.03285738996772151,0.0
9.852508,0.03159567161024112,0.0
9.854892,0.0330330062756094,0.0
9.857272000000002,0.04080150840432256,0.0
9.859668,0.053690473182881865,0.0
9.862056,0.07770620285053786,0.0
9.864436,0.10870288495086818,0.0
9.86684,0.14174699376798922,0.0
9.869228,0.1789803996751781,0.0
9.871608000000002,0.21919239785893607,0.0
9.874004,0.26080019645342684,0.008546303350394096
9.876388,0.3084596232575421,0.01674077398892858
9.878772,0.36044811677858546,0.024806405090545408
9.881168,0.4110389140310267,0.0334326194708406
9.883552000000002,0.46688994356017427,0.041801601832573504
9.885932,0.5290721405526667,0.049825599049001405
9.888336,0.5928371294109953,0.057774054122779694
9.890724,0.6559032701350229,0.06594605687344242
9.893104,0.7184103323516097,0.07430049680314196
9.895508,0.7807776249413364,0.08270105709629114
9.897896,0.8435226376358673,0.09101697379740632
9.900276000000002,0.9005881091731115,0.09951224434888281
9.90268,0.9546749884337864,0.1078731540551576
9.905064,1.0027102394848368,0.11627651296816713
9.907444000000002,1.0439024663933447,0.12481528994569575
9.909844,1.0805333091594473,0.13312381530769943
9.912232,1.1096695014769498,0.14161145939506087
9.914612000000002,1.1391796767046585,0.14973268699612674
9.917016,1.1658510292826583,0.15763701925469345
9.919404,1.1908942640244482,0.16533343358462174
9.921784,1.2176147342885606,0.16418542749021334
9.92418,1.2356298492905737,0.16356017896377872
9.926568,1.2505266023891575,0.16290904941781675
9.928948000000002,1.2689629221296206,0.16148245946633707
9.931344,1.2814873832873195,0.16029907710171976
9.933732,1.2828850795559217,0.15985393380220955
9.936112,1.282979523212408,0.15939764227792796
9.938516,1.2861942246301925,0.15840835536695938
9.940904,1.2865228815700254,0.15743390764811316
9.943284000000002,1.2843375810842435,0.15659905683147052
9.94568,1.2812683368669266,0.155621671267203
9.948068,1.274893739291077,0.15482451135710099
9.950452000000002,1.2647944794761143,0.154385521608495
9.952848,1.2525533492878744,0.15426342995627193
9.955236,1.2412433846594129,0.15405817594881324
9.95762,1.2249980529783393,0.15449768932317207
9.960016,1.2104752827899623,0.15482345272119713
9.962404,1.1946020381612263,0.15532467045083634
9.964784000000002,1.1764471535323526,0.15616947114140622
9.967188,1.1569417944631204,0.15722218976061453
9.969576,1.129428032408221,0.1498238925046288
9.971956,1.1076410333388513,0.15127330622748464
9.97436,1.0843637902022625,0.15301361902349286
9.976748,1.058525367811816,0.15517638203439643
9.979128,1.0363643858322398,0.15711832133642964
9.981524,1.0242139075847476,0.15782567544184406
9.983912,1.0140183082554293,0.1585268997083393
9.986292,0.9992594289258362,0.1598578355309262
9.988688,0.9949756881792821,0.16036194946288918
9.991076,0.9939973007912607,0.16068900947175538
9.993456000000002,0.9926921523212755,0.16134615900865423
9.995856,1.000139580941633,0.16136818884822046
9.998244,1.0066086221739685,0.16169139557926548
10.000624000000002,1.0231807149370058,0.16109349419016128
10.00302,1.0379830243791033,0.16081000658145822
10.005408,1.0603272060980447,0.15993533186087952
10.007788,1.0858369715486582,0.15889872206810418
10.010184,1.1095769536783326,0.15825157093718278
10.012572,1.133689022860344,0.15763938867899635
10.014952,1.1563108479751365,0.1572718673283722
10.017348000000002,1.1906657383147095,0.16505799450037864
10.019736000000002,1.2233906149602034,0.1638040340181725
10.022132,1.2591885275387524,0.16222509737236177
10.024528,1.300341116050494,0.16008713175856926
10.026916,1.3400979041515029,0.15797363649812113
10.029296,1.373940937811878,0.15685914686358438
10.031696,1.4038269918076627,0.1559114339390826
10.03408,1.4385086432291994,0.15451793582435186
10.036464,1.4635065520006152,0.1538795045730257
10.038864,1.4906463311453084,0.15307557313268716
10.041252,1.5183451887974424,0.15211868269158543
10.043632,1.5420870667849857,0.15137582727830762
10.046036,1.5733254910789987,0.1498920554321301
10.048424,1.5908759712300575,0.14930503372258253
10.050804,1.6162025369413062,0.1479887326812974
10.0532,1.6379914318685453,0.1467612953144255
10.055588,1.6586168438105287,0.1455298121831051
10.057968,1.6834334487004488,0.14384044896036696
10.060368,1.7098800672844483,0.14192497445408545
10.062752,1.7388878651223056,0.13970180193654402
10.065136,1.7577453896012185,0.13829514103625068
10.06754,1.771295459975182,0.13710324728804218
10.069928,1.7780478321769766,0.13634161636146697
10.072308,1.7787939021395207,0.13601104586332935
10.074708,1.7729745913553734,0.13621868270049345
10.077096,1.7678541287055274,0.13626864518856277
10.079476,1.7647357668020982,0.1361770638212878
10.081872,1.7589636778461941,0.1362110037979527
10.08426,1.755845315942765,0.13611942243067773
10.08664,1.747931356613584,0.13633214753828737
10.08904,1.7360131957915692,0.13684913157535278
10.091428,1.7247466612756126,0.1373646656170232
10.093808,1.712968270080458,0.13777900187409894
10.096204,1.710781073736807,0.13763142456900063
10.098592,1.7025875751539052,0.13786546962266807
10.100976,1.6899705661975897,0.1384746243951009
10.103372,1.6781449531741917,0.13903714157001362
10.10576,1.6608248945907413,0.14000629201431283
10.108144,1.6427134400743728,0.1409702592458535
10.110548,1.621808488878669,0.14207837161116527
10.112936,1.607608688056517,0.14265857441148827
10.11532,1.5994151894736155,0.14287639603891875
10.117716,1.598438697943463,0.14261509539076087
10.120104,1.597601976040171,0.1423201114664646
10.122484,1.6077069234287413,0.14134981202041155
10.12488,1.617160244511254,0.1403619150956746
10.127268,1.625402860780268,0.13948188449557136
10.129652,1.6339250163030024,0.13854371962467601
10.132044,1.6425869414525969,0.13757662441977628
10.134432,1.6564637729085239,0.13626375456972037
10.136816,1.6736931795512267,0.13464168152370168
10.139212,1.689851651007291,0.13311001810610307
10.1416,1.7017263817168011,0.13193173737100797
10.14398,1.708525975746839,0.1310837199102382
10.146376,1.7179792968293517,0.1301412245922589
10.148764,1.7326475242181967,0.1288198443946057
10.151148,1.7423803845544297,0.12778419169812533
10.153544,1.7521132448906627,0.1267085318764185
10.155932,1.7626375011598139,0.12563382892746025
10.158328,1.7768864196680787,0.12437355698839843
10.160724000000002,1.7851290359370922,0.12350568347826664
10.163112000000002,1.7902986162730508,0.12284634729131262
10.165492,1.7922553910490937,0.1224246682052108
10.167896,1.7943519354519968,0.121967613333329
10.170280000000002,1.7895110120558708,0.12189885719063802
10.172664,1.785181945338943,0.12187786928073135
10.175060000000002,1.7828549793684318,0.12174561888823035
10.177448000000002,1.7811796397039785,0.12163156086698435
10.179828,1.7785731344797466,0.1215566926331053
10.182224,1.7699603270162647,0.12180409694947571
10.184612,1.761067980299062,0.12210649334474251
10.186992,1.7527347120893002,0.12228940444215282
10.189392000000002,1.7453326094393167,0.12243606086678081
10.19178,1.7431454130956656,0.12227134223490198
10.19416,1.740446360072817,0.12205906143436202
10.196560000000002,1.7376075374231084,0.12187483961388806
10.198948,1.7395643121991513,0.12148400856474452
10.201328,1.7445941229082498,0.12092594288816272
10.203728000000002,1.7476218328709312,0.12046927182384273
10.206116000000002,1.7487872117140562,0.12008986611734405
10.208496,1.7533977135425738,0.11961942647849587
10.210892,1.7600103161175085,0.11905089388765501
10.21328,1.7636896523862478,0.11860708055494287
10.21566,1.7672292190281271,0.11818679772252381
10.21806,1.7689064545504494,0.11783230201436848
10.220448,1.7730050996997697,0.11729146364657193
10.222828,1.7781746800357283,0.11670031902732163
10.225232000000002,1.7805507636923519,0.11621460352098169
10.227616,1.7858601136551706,0.11559901018654589
10.23,1.795965061043741,0.11477152284222991
10.232396,1.8054183821262537,0.11392121131039293
10.234784,1.8156630991416844,0.11308127278404839
10.237164,1.8251164202241972,0.11224407006450865
10.23956,1.8294946046272376,0.11167397592802772
10.241948,1.8305202138435022,0.11131593651634146
10.244344000000002,1.8326167582464052,0.11090562320468023
10.24674,1.8342014459701106,0.11045502721840375
10.249124000000002,1.8356463640669558,0.11003639981866274
10.251508,1.8381622173504395,0.10955921805886289
10.253904,1.8437511065669785,0.10895474016142442
10.256292000000002,1.8498990742909585,0.10825787538544014
10.258672,1.8543244805222423,0.10759476398772345
10.261076,1.8648959586196365,0.10666718786332535
10.263464,1.8797511774635849,0.1055518845923884
10.265844,1.898470828173507,0.10428831644813448
10.268244,1.9119755725770964,0.10326255769977595
10.270632,1.9202654106743533,0.10246826582198104
10.273012,1.9305573495180275,0.10158473897184292
10.275412,1.9367053172420075,0.10088941992182772
10.2778,1.9411307234732909,0.10023357127938483
10.28018,1.9479303175033291,0.09958041346785924
10.28258,1.9544503722796467,0.09898736379655579
10.284968,1.963763923735299,0.09832669865201657
10.287348,1.9740086407507296,0.09762749484210835
10.289744,1.985324292952799,0.09686017626750772
10.292132,1.9927755132888947,0.0962277912912799
10.294512,1.999155798438352,0.09565628663411949
10.296916,2.00609516209525,0.09499856897741178
10.299304,2.01196359056551,0.09438665733653487
10.301684000000002,2.0108945512367407,0.09401295465245701
10.30408,2.010477138214029,0.09367060005907439
10.306468,2.0117822866840145,0.09330905627062708
10.308848,2.0089434640343056,0.09310747824665028
10.311248,2.000749965451404,0.09312551739467381
10.313636,1.9926962364953629,0.09311583623244446
10.316016,1.9907885794054323,0.0928951637073619
10.318416,1.9954463030621932,0.09239870684827249
10.320804,2.002385666719091,0.09180733020028022
10.323184,2.010535735189488,0.09114110255649356
10.325588,2.0206879044063015,0.090430185691105
10.327976,2.0287454250780814,0.08966936873385838
10.330356000000002,2.036291089070663,0.08886746235824494
10.33276,2.0401120908241324,0.08813567574115237
10.335148,2.048077063697295,0.08728324539069554
10.337528,2.057112971757096,0.08638953217987022
10.339928,2.067871441309594,0.08547668312265945
10.342316,2.0755568749290365,0.0846477225085324
10.344696,2.0820316037349795,0.08389126360351949
10.347092,2.088646102167784,0.08310600151904501
10.34948,2.1000561980263397,0.08220434189954552
10.351864,2.1086727972055606,0.08136011698487602
10.354256,2.1164980004518625,0.08051836487065409
10.356644,2.1253941388848037,0.07963568135926416
10.359028,2.1385740180642987,0.07860458654306454
10.361424,2.150822731684016,0.07760268133980619
10.363808,2.161069344557316,0.07668080342471592
10.366192000000002,2.1667526774303414,0.07595383798129565
10.368588,2.1689436654897305,0.07537542078148854
10.370976,2.177280725415231,0.07465945459471683
10.373356,2.1794717134746207,0.07409080326032805
10.375764,2.184036889332764,0.07355490670061574
10.378152,2.186460194817631,0.07307933889582612
10.380536,2.1899544354891365,0.07256755891251057
10.382932,2.1886530787348897,0.07213289211157703
10.38532,2.185629160487947,0.07169491889449044
10.3877,2.183955716681363,0.0711884340788697
10.3901,2.185215539180974,0.07062561486239384
10.392488,2.1854044264939465,0.0700919447887582
10.394868,2.189597515299752,0.06948702984745267
10.397264,2.1937906041055584,0.06888912180745843
10.399652,2.1969127577247263,0.0683130343858734
10.402036,2.1988242065303956,0.06778504317621835
10.404432,2.199013093843368,0.06725111242829855
10.40682,2.1939870748500088,0.0668399809982267
10.409200000000002,2.1848170847369546,0.06651935921453732
10.4116,2.1717826627579275,0.06624979681391709
10.413988,2.1570256792862037,0.06597541231628917
10.416372,2.143619170254839,0.06562590515388554
10.418768,2.1229956541707247,0.0654363939300801
10.421156,2.1053054043928054,0.06520104924257335
10.42354,2.0837507227489134,0.0650201671437696
10.425936,2.066851868903912,0.06479308286009672
10.428324,2.052746511738247,0.0645364084068346
10.430704,2.0430174431177526,0.06428160182402316
10.433104,2.037944202296149,0.06398847301932854
10.435492,2.0304495518475494,0.06379117219379357
10.437872,2.0257483980782838,0.06357460965213159
10.440272,2.020767705055298,0.06339732970656647
10.44266,2.010432336099119,0.06335523172509322
10.445044,2.001028132702719,0.06330455314245137
10.44744,1.9936260300527353,0.06322033086741041
10.449828,1.9882260281491688,0.06310289989815265
10.452212,1.9864109188578556,0.06298045309660462
10.454608,1.9907418814326525,0.06274311175417893
10.457,2.002941477366257,0.06239992931671899
10.45938,2.0197969010987533,0.062028700067348674
10.46178,2.041587691883861,0.061589607804749924
10.464168,2.064030108975027,0.06119243510354895
10.466552,2.08833485718575,0.060779077021119135
10.468948,2.1166438068893063,0.060313049129740795
10.471336,2.1457441525257805,0.059850185904183735
10.47372,2.1680467999900865,0.05946651838124118
10.476116,2.187136641894477,0.05916510811178687
10.478508,2.202501821559754,0.05888846575265051
10.480888,2.2137230301053368,0.05869614094508183
10.483292,2.226154943464419,0.0584578801833826
10.48568,2.234862194584387,0.05824388902036528
10.48806,2.2445006112641344,0.0580219329583229
10.490456000000002,2.256420667944018,0.057726145775182376
10.492844000000002,2.2655472279445674,0.05744942868016593
10.495224,2.2725319175718393,0.05721991288870428
10.497628,2.2795166071991106,0.05699429831202547
10.500012000000002,2.2812863905200502,0.05687009889563459
10.502396,2.278632663467575,0.05686452239897507
10.5048,2.26997263417585,0.05694443314543285
10.507184,2.256237468204653,0.057108331204305605
10.509564,2.237147626300263,0.057398710479109924
10.511968,2.2171266188360947,0.0576924121615519
10.514356,2.1940325754388703,0.058052155304302674
10.516736000000002,2.1678654961085906,0.058456232157708225
10.519136,2.144911222338227,0.05878074077317051
10.52152,2.1256816108069767,0.05909666792047184
10.523904000000002,2.1075229344623647,0.05939090007031018
10.5263,2.089364258117753,0.059688671217045575
10.528688,2.0752097832659744,0.05992132873012392
10.531064,2.061986473973975,0.06014464192504741
10.533472,2.048623395055115,0.060389285590505305
10.535856,2.0344689202033366,0.06062167636537461
10.538236,2.0204542149784186,0.06082934577481862
10.540636,2.0041578697533633,0.0611158486718985
10.543020000000002,1.9927968915809202,0.06133404158905045
10.5454,1.9772919422887834,0.061639472785107514
10.547804,1.9682126041164776,0.06178901691973024
10.550192,1.9624858411309476,0.06184010807899815
10.552572,1.9587611788918342,0.06186123913465559
10.554968,1.9601116533321934,0.06179323761133648
10.557356,1.9678877388923834,0.06156720092433551
10.559736,1.9758035940794336,0.06132124322977561
10.56214,1.9917278522521513,0.060951674850005834
10.564528,2.003508139305175,0.0606553613405023
10.566908000000002,2.017290527104616,0.06034501261793677
10.569304,2.0342857204639717,0.059965705414028486
10.571692,2.05034974826355,0.059589374246698336
10.574072,2.0682761071826845,0.05920288892317408
10.576476,2.079404767929651,0.05889043365944037
10.578864,2.0905334286766166,0.058583784961026376
10.581244000000002,2.099659988677166,0.0582996877944289
10.583648,2.1126509805436884,0.05798020129098051
10.586032,2.1262935987162686,0.05770109210836272
10.588416,2.1442199576354035,0.05731835073011762
10.590812,2.1574904887556468,0.05696430778253224
10.5932,2.17676732211514,0.05651993993835446
10.595580000000002,2.1946936810342743,0.0561570992547367
10.59798,2.2096867736472143,0.05583289692107534
10.600368,2.2278926718200687,0.05544986385650721
10.602748000000002,2.245167404433146,0.05507938028213411
10.605144,2.260440036299805,0.054748185415836106
10.607532,2.2757126681664652,0.054419880860389305
10.609916000000002,2.283908062607236,0.05418592936423579
10.612308,2.2983892985409775,0.053841939163423835
10.614696,2.3017890955559968,0.05363317412459011
10.617076,2.298903051078044,0.053532209358336635
10.61948,2.2977395680927892,0.05344468862743662
10.621868,2.2916407180549214,0.05340829606078932
10.624248,2.2903374654428057,0.05333788802409235
10.626644,2.2858214072707743,0.05333441419453768
10.629032,2.2871718817111333,0.05327356908287566
10.631416000000002,2.284797693912379,0.05322531837251887
10.633812,2.2794902398074295,0.05320531133803505
10.6362,2.272972080888981,0.05322528694134926
10.63858,2.270038814582786,0.05325256607358569
10.640976000000002,2.2632411164106174,0.05330867774123617
10.643364000000002,2.2527187559993354,0.053375456571943904
10.645744,2.2408459211476943,0.05350459267443618
10.64814,2.2206851440566657,0.053775103884852384
10.650528,2.1965201654728026,0.05410055899541652
10.652912,2.171004712448582,0.054483786875558236
10.655308000000002,2.1441387849840012,0.05493423791286016
10.657692,2.1196942671464187,0.055303001108046125
10.660076,2.09203694374892,0.05573659147391808
10.662472,2.074110584829785,0.05609166390688522
10.664856,2.0615389018438437,0.05633226492773442
10.667256000000002,2.0483155925518437,0.05653502787022245
10.669652,2.0433802254992317,0.056590298896461166
10.67204,2.03872439770034,0.05660469858834803
10.67442,2.040074872140699,0.056543366960315686
10.676816,2.0363502099015856,0.056555273129651265
10.679204,2.0312750732221136,0.05663012010725631
10.681584,2.0289934332219763,0.056696340701518466
10.683984,2.0236387572887837,0.056815362637827944
10.686368000000002,2.0153508150493957,0.05696566388561908
10.688752,2.007994038369786,0.05711301496841657
10.691156,2.0024995928097336,0.057254310100548336
10.693544,2.002080283929153,0.05731524785874883
10.695924000000002,2.0107403132208783,0.05723848164543883
10.69832,2.0232647743785774,0.057122217049512425
10.700708,2.0348580699764978,0.05700687705692919
10.703088,2.0447288040817218,0.056872826388449926
10.705484000000002,2.0513867326270305,0.056816983770970296
10.707872000000002,2.062188632292033,0.05667961341566648
10.710256,2.071128200837479,0.05655495696926255
