Time,Force,Position
18.540444,0.022499296219582122,0.0
18.542824,0.024082088085418344,0.0
18.54522,0.024003686180422402,0.0
18.547608,0.024003686180422402,0.0
18.549988,0.024873484018336455,0.0
18.552392,0.029747483349084215,0.0
18.55478,0.03555264823961029,0.0
18.55716,0.03949548201057972,0.0
18.559564,0.04157598466199251,0.0
18.561952,0.044587652873183635,0.0
18.564332,0.04509950955238131,0.0
18.566736,0.04890257369649055,0.0
18.569124,0.05192838780130279,0.0
18.571504,0.056025137092753544,0.0
18.573908,0.06133259119770305,0.0
18.576296,0.0687819156759296,0.0
18.578676,0.07693008828845722,0.0
18.581072,0.08614919608762336,0.0
18.583464,0.09522853425992929,0.0
18.585844,0.10752067799215081,0.0
18.58824,0.11995259135123254,0.0
18.590628,0.13452637508359136,0.0
18.593012,0.15290322296005937,0.0
18.595408,0.17141984046338757,0.0
18.597796,0.18720432900924514,0.0
18.600176,0.19898461606226897,0.0
18.602572,0.2067607016224591,0.0
18.60496,0.21639911830220587,0.0
18.607336,0.23069336278084424,0.0
18.609732,0.24405644169970428,0.0
18.61212,0.2606323261784799,0.0
18.6145,0.27134167804486525,0.0
18.616904,0.27911776360505536,0.0
18.619292,0.28316918692613224,0.0
18.621672,0.28722061024720913,0.0
18.624076,0.2891301631950089,0.0
18.626464,0.29034086800850767,0.0
18.628844,0.29155157282200644,0.0
18.63124,0.2890376153963919,0.0
18.633624,0.2853129531572786,0.0
18.636004,0.27744431979847134,0.0
18.638412,0.2686445208798859,0.0
18.640796,0.2586340171478016,0.0
18.643176,0.25006653565469333,0.0
18.645572,0.2432216156542815,0.0
18.64796,0.23730786121364805,0.0
18.65034,0.23567784751956863,0.0
18.652736,0.23390806419862908,0.0
18.655124,0.22641151789215938,0.0
18.657504,0.21798380602591133,0.0
18.659908,0.2074142237863863,0.0
18.662296,0.20271117415925152,0.0
18.664676,0.20280372195786858,0.0
18.667072,0.20047486012948815,0.0
18.66946,0.19600412792783067,0.0
18.67184,0.19060223016639488,0.0
18.674236,0.18655080684531802,0.0
18.676624,0.1824993835242412,0.0
18.679004,0.17937912576294268,0.0
18.681408,0.1753277024418658,0.0
18.683796,0.17621164617340096,0.0
18.686176,0.17909769065135303,0.0
18.688572,0.17611720251691468,0.0
18.69096,0.16890019546416538,0.0
18.69334,0.16275412359805458,0.0
18.695736,0.15367478542574864,0.0
18.69812,0.14417613837286206,0.0
18.7005,0.1348172609468357,0.0
18.702904,0.12932281538678286,0.0
18.705292,0.12275743464009146,0.0
18.707672,0.11726298908003858,0.0
18.710076,0.10745362269667881,0.0
18.71246,0.09485075963398407,0.0
18.71484,0.08546070213120495,0.0
18.71724,0.07714157981506432,0.0
18.719628,0.07082455824534055,0.0
18.722008,0.06343660148897827,0.0
18.724404,0.056048644732615976,0.0
18.726792,0.049591853536032,0.0
18.729172,0.04313506233944803,0.0
18.731588,0.034815940023307415,0.0
18.733972,0.02449471696074994,0.0
18.736356,0.019108860950804496,0.0
18.738752,0.016376731993333803,0.0
18.741136,0.012713437476084787,0.0
18.743516,0.011052243705252623,0.0
18.745912,0.00859965400150235,0.0
18.7483,0.006147064297752079,0.0
18.75068,0.0027633090342234845,0.0
18.753088,0.0013816545171117423,0.0
18.755476,0.0,0.0
18.757856,0.0,0.0
18.760252,0.0,0.0
18.76264,0.0,0.0
18.765024,0.0,0.0
18.76742,0.0019407330245525829,0.0
18.769808,0.0037416964222449557,0.0
18.772188,0.00754476056635418,0.0
18.774584,0.014281091016658573,0.0
18.776968,0.01794438553390759,0.0
18.779364,0.02239907598407471,0.0
18.78176,0.030997737553935742,0.0
18.784144,0.04173826949707385,0.0
18.786524,0.05555183737326731,0.0
18.788932,0.0733696067422945,0.0
18.79132,0.09104760648446146,0.0
18.793696,0.11100724622676571,0.0
18.7961,0.13497108746190364,0.0
18.798484,0.15614143201770664,0.0
18.800864,0.17931387731992646,0.0
18.80326,0.20155515706236798,0.0
18.805644,0.22179433605839266,0.0
18.808024,0.24003141430800043,0.0
18.810428,0.2550556869976927,0.0
18.812812,0.26672738450060907,0.0
18.815196,0.2740369393519755,0.0
18.817596,0.28469906939011763,0.0
18.819984,0.29042583237564773,0.0
18.822364,0.2933590986818429,0.0
18.824768,0.30150727129437055,0.0
18.827152,0.30886404797398004,0.0
18.829536,0.3099349831606185,0.0
18.83194,0.30378891129450786,0.0
18.834324,0.29256770274892485,0.0
18.836708,0.27720252308364796,0.0
18.839104,0.26118571711231314,0.0
18.841488,0.2412260773700088,0.0
18.843868,0.21726223613487086,0.0
18.846272,0.1960918915790679,0.0
18.84866,0.17291944627684808,0.0
18.85104,0.15067816653440658,0.0
18.853444,0.13043898753838193,0.0
18.855828,0.1122019092887741,0.0
18.858208,0.09717763659908188,0.0
18.860612,0.08550593909616547,0.0
18.863,0.07625565122024654,0.0
18.86538,0.06379255778441201,0.0
18.867784,0.05426273065477265,0.0
18.870168,0.04459313389827308,0.0
18.872548,0.03278166676849645,0.0
18.874952,0.020970199638719825,0.0
18.87734,0.011300602882220255,0.0
18.87972,0.006706142805192919,0.0
18.882116,0.004113783474582436,0.0
18.884504,0.001661193770832163,0.0
18.886884,0.0,0.0
18.889288,0.0,0.0
18.891676,0.0,0.0
18.894056,0.0,0.0
18.89646,0.0,0.0
18.898844,0.0,0.0
18.901224,0.0,0.0
18.90362,0.0,0.0
18.906008,0.0,0.0
18.908392,0.0,0.0
18.910784,0.0,0.0
18.913172,0.0,0.0
18.915552,0.0,0.0
18.917948,0.0,0.0
18.920336,0.0,0.0
18.922712,0.0,0.0
18.925108,0.0,0.0
18.927492,0.0,0.0
18.929872,0.0,0.0
18.932272,0.0,0.0
18.93466,0.001566750114345862,0.0
18.937036,0.006810940639561851,0.0
18.939452,0.016803506762286508,0.0
18.94184,0.030193974042160867,0.0
18.94422,0.046330716173127034,0.0
18.946624,0.06521373315518503,0.0
18.949008,0.08470115461505776,0.0
18.951388,0.1070746205528825,0.0
18.953796,0.1331255269015774,0.0
18.95618,0.16471620478069904,0.0
18.95856,0.20091548863046915,0.0
18.960964,0.24079221289110936,0.0
18.963352,0.28141311125642454,0.0
18.965732,0.32370934928619305,0.007579134922006954
18.968128,0.3676809269804149,0.01533272256454629
18.970516,0.4150504058317863,0.02309047598398118
18.972896,0.46502638990738937,0.03089587115596078
18.975292,0.5189593536475829,0.038494020979431616
18.97768,0.5728450955595334,0.046362236989805614
18.98006,0.628965255643378,0.05415833775467761
18.982464,0.6821681911725178,0.0621994932216011
18.984848,0.7335560174103442,0.07005507643588939
18.987228,0.7779138280505244,0.07825258488789895
18.989628,0.8190135071604152,0.08639770831001503
18.992016,0.858437846605853,0.09439527119660833
18.994396,0.8941847456404204,0.10248827764108562
18.9968,0.9311895713167297,0.11039354337513405
18.999184,0.9662395180748653,0.11820950529770462
19.001564,0.9976120244221308,0.1260254672202752
19.003968,1.0214426584925527,0.13407403073336088
19.006356,1.0385228162190492,0.14242647181377627
19.008736,1.0536480950273717,0.1506295924235611
19.01114,1.0680291997310194,0.15883271303334595
19.013524,1.0827370655166306,0.15921695780617479
19.015904,1.0959093612646487,0.15937737021917614
19.018308,1.1056837558555173,0.15953361685528195
19.020696,1.1119204796623758,0.15973359365303574
19.023076,1.1174130293645597,0.1597344772889023
19.025472,1.1241635057084853,0.15929403380479223
19.02786,1.1268172327609598,0.15908507921390072
19.03024,1.1328235350002103,0.15842649943909498
19.032636,1.1381782109334029,0.15779018994975125
19.035024,1.1450231309338146,0.15684090543843177
19.037404,1.1518680509342265,0.15589963025211487
19.039808,1.1588527405614988,0.15494753298849903
19.042196,1.1718437324280213,0.15346051405535693
19.044576,1.181389601309151,0.15220019105748403
19.046976,1.1870710383243073,0.15125896636769479
19.04936,1.1941029497798226,0.1501288156076893
19.05174,1.20620999791481,0.1485104046907425
19.054136,1.219527750863296,0.1466444932820743
19.056524,1.2324734167594444,0.14475640232225212
19.058904,1.2475609530288703,0.14269029018565857
19.061308,1.257713122245684,0.14105766468762115
19.063696,1.2686566873954161,0.13942063506522748
19.066076,1.2769465254926733,0.13790968290489494
19.06848,1.291382435456041,0.1358960102593504
19.070864,1.3026055398594931,0.13428867612420195
19.073248,1.3096846731432514,0.13303845457904787
19.075644,1.317555202359928,0.13172026209814694
19.078028,1.3255655012034646,0.13042668077677064
19.080408,1.3303629944870854,0.1294376552560153
19.082812,1.337022818890263,0.12832907595714432
19.0852,1.3414010032933033,0.12744903263789498
19.08758,1.3413556773229294,0.12702727902115102
19.089984,1.3322310131802495,0.12740414045164777
19.092372,1.3234784360899075,0.12791030199601167
19.094752,1.3207321612388156,0.1278769522181719
19.097152,1.3154247071338663,0.12819259056594698
19.099536,1.3042507204165263,0.12899207884272446
19.101912,1.2952186040724638,0.12956256125143542
19.104308,1.2839048477282637,0.13038114557702993
19.106692,1.2684471202643695,0.13158870794826819
19.109072,1.2568538246664491,0.13251962713316878
19.111468,1.2433981979489719,0.1335872275444513
19.113856,1.2353897949633044,0.13428812332246262
19.116236,1.2170913489918325,0.13597371236028977
19.118652,1.1946489319006663,0.13824031899084982
19.12104,1.1750000114888355,0.14038063664731404
19.12342,1.1556306303307247,0.14248541703069822
19.12582,1.1330484436126984,0.14495289918014118
19.128208,1.11274789689481,0.14715415273828222
19.130588,1.0927268894306412,0.14914748521397336
19.132992,1.0791314930863039,0.15032841857945553
19.13538,1.0719617078617976,0.15080210404434036
19.13776,1.069867059316764,0.1507911849101637
19.140164,1.0711249859585057,0.15037484618464317
19.142552,1.0674475455476358,0.15041071261727185
19.144932,1.0659119755100428,0.15021412133602824
19.147336,1.0650280317785072,0.15003319062706563
19.14972,1.0617226784199745,0.15020399644259813
19.152104,1.0593484906212203,0.15029820036303163
19.154496,1.0546926628223288,0.15075902469058164
19.156884,1.0504561439040179,0.15104100777446236
19.159268,1.0472905601723452,0.1511864061642169
19.161664,1.0394691486417813,0.15176360298827088
19.164048,1.0396561400968847,0.151433584963049
19.166432,1.0462687426718191,0.1502047025946597
19.168828,1.0562339204335296,0.14855419034211367
19.171216,1.068992594874575,0.14667138741612082
19.173596,1.0809598733827022,0.1447368738378067
19.176,1.0915766774504705,0.14304235018037306
19.178388,1.1014946333839375,0.14166817549236113
19.180768,1.1069890789439902,0.14096829543942574
19.183172,1.1092707189441275,0.14067575619740394
19.18556,1.1124835245040432,0.14032640057823081
19.18794,1.1116921285711252,0.14035043745271025
19.190336,1.1156963300639589,0.13998752614705698
19.19272,1.117838200437236,0.13976115581160603
19.1951,1.125055207489985,0.13906271847655716
19.1975,1.1336226889830934,0.13814384926558482
19.199884,1.1411192352895632,0.13732589610253707
19.202264,1.1561123279025025,0.13563759838004907
19.20466,1.1685442412615843,0.1343457734859828
19.207048,1.1779031186876108,0.13332708546197738
19.209444,1.1921973631662492,0.13185736031509976
19.211848,1.2007648446593575,0.13089583943168737
19.214232,1.2058399813388296,0.13040102320535324
19.216612,1.2086334780181647,0.13020494803050395
19.219008,1.210356039510861,0.13012388161297597
19.221396,1.2158032632426707,0.12979434405205048
19.223776,1.223112818094037,0.12933367406271515
19.226172,1.2297707466393453,0.12885117974877805
19.22856,1.2336351785053188,0.12854092106439866
19.23094,1.2373598407444326,0.12827331941599043
19.233336,1.2370803014907117,0.12836211510562437
19.235724,1.2403856548492442,0.12822646921899333
19.238104,1.2379642452222468,0.12853785828676925
19.240508,1.2355428355952491,0.12885701388881085
19.242896,1.2304676989157772,0.12931159928900246
19.245276,1.2263237277960835,0.1296922581013433
19.24768,1.2253925622363049,0.129753674578579
19.250064,1.2201776559299726,0.130215065022733
19.252444,1.2160336848102786,0.1305858076397017
19.25484,1.2177562463029752,0.13050630808898447
19.257228,1.2134725055564208,0.13091746692707087
19.259612,1.2147757581685368,0.1309651938912578
19.262008,1.2194315859674285,0.13066683342610766
19.264396,1.22408741376632,0.13037721838667077
19.266776,1.2278120760054334,0.13014901982446958
19.26918,1.2256702056321562,0.13035119398824188
19.271564,1.2228767089528214,0.1305270219061433
19.273944,1.2151478452208744,0.13112796767815224
19.276348,1.211283413354901,0.13143822636253166
19.278736,1.2066275855560091,0.13177822366941355
19.281116,1.203834088876674,0.1319913286199979
19.28352,1.2003889658912814,0.1321730303062271
19.285904,1.2005287355181418,0.1321274384104953
19.288284,1.2003889658912814,0.1321741711701374
19.290688,1.1988987218240623,0.13243686181441625
19.293076,1.195406377010426,0.1328935856942519
19.295456,1.1887012266368746,0.13370036142129246
19.297856,1.18399817700974,0.13431738728810438
19.300244,1.1814369977558823,0.1346861510874791
19.302624,1.1768737177556075,0.13521194425656213
19.305028,1.1771060351810847,0.13536630474141362
19.307416,1.1746846255540873,0.13566548777824813
19.309796,1.1690504103671744,0.13627538421921828
19.3122,1.163416195180261,0.1368706527218102
19.314588,1.1579217496202086,0.1374216460054716
19.316968,1.161786181486182,0.13714808619445068
19.319364,1.1665817789119337,0.1368245661627619
19.321748,1.179385779323353,0.13585211172954587
19.324128,1.1903274486152156,0.13499968497891493
19.326532,1.2052733193999117,0.1338652977337334
19.32892,1.221569664624967,0.13257197069723647
19.3313,1.2367950746633836,0.13139826026034349
19.333696,1.2521602543286605,0.13020845773599138
19.336084,1.2688759084342962,0.12882072759618382
19.338464,1.2888043680998478,0.1271671162325867
19.34086,1.3115263244447342,0.12536263436686826
19.343248,1.3353192159762595,0.12342642694112535
19.345628,1.3575293156419483,0.1215446825971865
19.348024,1.374012652322107,0.12001479662453246
19.350412,1.3875627226960703,0.11867298402696785
19.352792,1.3992504619504769,0.117471811584614
19.355192,1.4087963308316067,0.11643580742786552
19.357576,1.417411034152958,0.1154143808017275
19.359972,1.4232322407949745,0.11455934252007013
19.362368,1.4298448433699091,0.11369931024992576
19.364756,1.4280297340785955,0.11358332611548656
19.367136,1.4220706536675882,0.11381582440776793
19.369532,1.4150406380699423,0.11411237117877124
19.37192,1.4078708528454362,0.11446093640809106
19.3743,1.3936238301950405,0.11536266965622642
19.376704,1.3801682034775633,0.11619852777471584
19.379092,1.3668523463869466,0.11699049283337484
19.381472,1.3548869637366887,0.11757546071623112
19.383868,1.3427818114595704,0.11819411971317466
19.386256,1.3265326880627584,0.11911612446373886
19.388636,1.3074900679866113,0.12017250387021727
19.391036,1.2915204838435195,0.12096444042241784
19.39342,1.2762025260064858,0.12178445706957607
19.395804,1.2687532015282592,0.12212976242341954
19.3982,1.2675897185430036,0.12203707953879714
19.400584,1.2665660051846082,0.12190929458233163
19.402968,1.270617428505685,0.12147769179352447
19.405364,1.2789525925733163,0.12075098037913694
19.407748,1.2874275262678074,0.1199622505818207
19.410144,1.2961819992160188,0.11912459717785176
19.41254,1.3112223136572017,0.11786863986279554
19.414928,1.3284044984716614,0.11638602200802635
19.417308,1.3409308554872297,0.11512370114509309
19.419704,1.3546679173162963,0.1137297943472104
19.422092,1.372548950265057,0.1119604675307578
19.424472,1.3864257817209837,0.11046433438995239
19.426876,1.3983005124304941,0.10907920463363754
19.42926,1.403749632020173,0.10819572325129395
19.43164,1.4113406219831288,0.10716401902191515
19.434036,1.4238669789986969,0.10583207269622574
19.43642,1.4382556671338216,0.10440471654815853
19.4388,1.4435650170966403,0.10356275421460331
19.441216,1.4498055326192374,0.1026812724746714
19.4436,1.4508311418355018,0.10220281980379492
19.44598,1.4446397439990173,0.10221381591540038
19.448384,1.437377410975894,0.10230549488468403
19.450772,1.4250399412732986,0.10271616709408693
19.453152,1.4093498963839273,0.10338618435444169
19.455548,1.397104974479949,0.1039602773023518
19.457936,1.3817870166429154,0.10473521621259325
19.460316,1.3589725124994119,0.10610482509686997
19.46272,1.3382998787291855,0.10729206787361131
19.465104,1.3232142383176289,0.10820504084160253
19.467484,1.3102704682793493,0.10892458942103488
19.469888,1.29732669824107,0.10963591554392665
19.472276,1.2863850289492074,0.11025164197100235
19.474656,1.2793077915233182,0.11066922943237059
19.477052,1.2785163955904,0.11067293446471355
19.47944,1.2746519637244265,0.11086603478925856
19.48182,1.2639898336862845,0.11141604262645229
19.484224,1.2506739765956678,0.11205576808266286
19.486612,1.2435041913711615,0.11233305158060138
19.488992,1.2326097439075425,0.11280447905003518
19.491388,1.2239969364440602,0.11306120232205859
19.493776,1.2172464601001345,0.11324717507011732
19.496156,1.2112873796891273,0.11343125061949814
19.49856,1.2076099392782569,0.11339210263609373
19.500948,1.206214138867524,0.11312440779418174
19.503328,1.2033753162178151,0.1128335775176314
19.505732,1.2022590550608028,0.11248194380406748
19.50812,1.20863934021026,0.11146458646863666
19.5105,1.2156712516657755,0.11051861704260185
19.512904,1.2177677960686788,0.1099072587929174
19.515292,1.2175827004714446,0.10952126038431333
19.517672,1.2189803967400468,0.10913052909486744
19.520068,1.2205178626355089,0.10870166546223692
19.522456,1.2183306662918578,0.1084474447393677
19.52484,1.2109285636418745,0.1085683452426229
19.527236,1.205668331365168,0.10851961554075021
19.529624,1.207485336514351,0.10801073894594217
19.532004,1.2140979390892854,0.10726162727427598
19.534408,1.223643807970415,0.10638657579562516
19.536796,1.238125043904157,0.10523142343574857
19.539176,1.250184870210901,0.1043101512480219
19.541572,1.2631758620774234,0.1033273798918766
19.543956,1.2777968676380256,0.10213958613416196
19.54634,1.2921383339449068,0.10103894743478009
19.548736,1.3063400306249282,0.10001518061432658
19.55112,1.3213331232378678,0.09901765251167227
19.553504,1.337536920664306,0.09792225893055911
19.5559,1.3506676821576886,0.09705298909305732
19.558288,1.35914261585218,0.09633985083723944
19.560664,1.3697594199199483,0.09547382680233336
19.563068,1.3783741232412996,0.09469279656485041
19.565456,1.3835437035772582,0.09397841981370122
19.567836,1.3885735142863567,0.09330217540573668
19.57024,1.3971882176077082,0.09252747249041325
19.572624,1.4131596976086689,0.09131290846872317
19.575008,1.427920472796131,0.09022680220699413
19.577408,1.4394684424236777,0.0893835402739851
19.579796,1.4459412753717518,0.08880135859571761
19.582176,1.447338971640354,0.08846841311048785
19.584572,1.4475259630954571,0.08823554099329724
19.58696,1.4519966952971146,0.08777365045486037
19.589344,1.4567469667524926,0.08724769491816682
19.591748,1.4607983900735695,0.08689151033466805
19.594132,1.466851914141063,0.08646335612838145
19.596516,1.4706237982084196,0.0861748069395404
19.598912,1.4733247470891375,0.08594391748094302
19.601296,1.4750945304100769,0.08573920928812889
19.603676,1.4765847744772962,0.08559514099705212
19.60608,1.482079220037349,0.08529629329205499
19.608468,1.4885048311571802,0.08498043337945771
19.610848,1.4989346437698452,0.0845133286030205
19.613252,1.510016082688568,0.08407125544729824
19.615636,1.5223082264207894,0.08355434586309823
19.618016,1.531806873473676,0.08311045848694185
19.620412,1.535159448660452,0.08292900441207546
19.6228,1.5383722542203673,0.08277657050546279
19.62518,1.5415850597802832,0.08262413659885014
19.627584,1.545729030899977,0.08244366412843984
19.629968,1.554016973139365,0.08208391820094686
19.632352,1.5593716490725575,0.08181753182249546
19.634744,1.559651188326278,0.08175655733502174
19.637132,1.5619328283264151,0.08162515200399868
19.639512,1.5644940075802727,0.0814368928638518
19.641916,1.5621198197815185,0.08140947628501277
19.6443,1.558954236049846,0.08137537751664774
19.64668,1.5537865515717566,0.08141893828202093
19.649084,1.5484790974668072,0.08149233354882217
19.651472,1.5423802474289394,0.08156005863039463
19.653852,1.5358620885104912,0.08171604165800696
19.656256,1.5282729944054048,0.0819210523815692
19.658644,1.5197527347405395,0.08213657604266018
19.661024,1.5147248198893102,0.08213760541740275
19.66342,1.5075550346648043,0.08223413610825117
19.665808,1.5023873501867149,0.0822615428657255
19.668188,1.4990819968281823,0.08225129799560336
19.670584,1.4960561827233703,0.0821818644177216
19.672972,1.4920992030587796,0.0821322602416851
