Time,Force,Position
22.399204,0.0,0.0
22.4016,0.0,0.0
22.403988,0.0,0.0
22.406368,0.0,0.0
22.408772,0.0,0.0
22.41116,0.0,0.0
22.41354,0.0,0.0
22.415936,0.0,0.0
22.418324,0.0,0.0
22.420704,0.0,0.0
22.4231,0.0,0.0
22.425488,0.0,0.0
22.427868,0.0,0.0
22.430264,0.0,0.0
22.432652,0.0,0.0
22.435036,0.0,0.0
22.437432,0.0,0.0
22.439816,0.0,0.0
22.442196,0.0,0.0
22.4446,0.0,0.0
22.446988,0.0,0.0
22.449372,0.0,0.0
22.451768,0.0,0.0
22.454156,0.0,0.0
22.456536,0.0,0.0
22.45894,0.0008697978379140523,0.0
22.461324,0.005743797168661807,0.0
22.463704,0.014761767619103472,0.0
22.4661,0.022848572509766817,0.0
22.468488,0.03186654296020848,0.0
22.470872,0.04060497415692973,0.0
22.473268,0.05013480128656909,0.0
22.475656,0.06459999546882046,0.0
22.478048,0.08092752077062848,0.0
22.480452,0.0940422405125209,0.0
22.48284,0.10608602506777481,0.0
22.48522,0.11785027036930829,0.0
22.487616,0.1305456812306201,0.0
22.490004,0.14030782578573672,0.0
22.492384,0.14993020071399313,0.0
22.494784,0.1623460723215845,0.0
22.497168,0.17462217430231564,0.0
22.499552,0.18503594516349017,0.0
22.501948,0.19223691046474914,0.0
22.504336,0.19836694057936957,0.0
22.506716,0.20548950397563256,0.0
22.50912,0.20860786587906185,0.0
22.511504,0.20544038628952016,0.0
22.513884,0.20520617300617364,0.0
22.516292,0.20003659267021512,0.0
22.518676,0.1946346949087793,0.0
22.52106,0.19072304121456266,0.0
22.523456,0.18294695565437252,0.0
22.525844,0.17251714304170762,0.0
22.528224,0.16651084080245704,0.0
22.530624,0.16478827930976062,0.0
22.533012,0.16348502669764484,0.0
22.535392,0.162181774085529,0.0
22.537788,0.16395155740646858,0.0
22.540176,0.167723441473825,0.0
22.542556,0.16977276404848501,0.0
22.544952,0.16781788513031132,0.0
22.54734,0.16558346695841725,0.0
22.54972,0.1694951206526339,0.0
22.552128,0.17340677434685053,0.0
22.554516,0.17466470098859244,0.0
22.556896,0.174991462070556,0.0
22.559296,0.1796019638990737,0.0
22.561684,0.1809996601676758,0.0
22.564064,0.189474593862167,0.0
22.566464,0.20311721203474747,0.0
22.568852,0.21340725502055216,0.0
22.571232,0.21755122614024608,0.0
22.573632,0.22155542763307975,0.0
22.576016,0.22621125543197138,0.0
22.5784,0.22751450804408715,0.0
22.580796,0.2277468254695644,0.0
22.583184,0.22718774696212354,0.0
22.585564,0.22527819401432375,0.0
22.58796,0.2215063099469673,0.0
22.590348,0.21866559143938918,0.0
22.592732,0.22318164961142056,0.0
22.595128,0.2329126140897844,0.0
22.59752,0.23971031226195305,0.0
22.5999,0.2486498808073988,0.0
22.602296,0.25931201084554095,0.0
22.604684,0.2687634360701844,0.0
22.607064,0.2751418253617724,0.0
22.60946,0.28287068909371943,0.0
22.611848,0.287526516892611,0.0
22.614228,0.28566418577305436,0.0
22.616628,0.2859437250267748,0.0
22.619016,0.29236933614660593,0.0
22.621412,0.29944657357249505,0.0
22.623804,0.30279914875927083,0.0
22.626192,0.3044291624533502,0.0
22.628576,0.30792150726698625,0.0
22.630972,0.3122052480135404,0.0
22.63336,0.3218436646932872,0.0
22.63574,0.32854881506683875,0.0
22.638136,0.3271057928278628,0.0
22.640524,0.3233811305887495,0.0
22.642904,0.31644366278972064,0.0
22.645308,0.31071689980419054,0.0
22.647696,0.30191710088560497,0.0
22.650076,0.29218613640724117,0.0
22.652472,0.28874101342184827,0.0
22.65486,0.2880893871157904,0.0
22.657244,0.28543566006331567,0.0
22.65964,0.2818507674510625,0.0
22.662028,0.27905727077172765,0.0
22.664408,0.2730509685324771,0.0
22.666804,0.26611350073344825,0.0
22.669192,0.26066627700163847,0.0
22.671576,0.2560104492027469,0.0
22.673972,0.25307718289655173,0.0
22.67636,0.2480020462170795,0.0
22.678756,0.2389227080447735,0.0
22.681152,0.22369729800635682,0.0
22.68354,0.21447819020719067,0.0
22.68592,0.2163405213267473,0.0
22.688316,0.21419865095347024,0.0
22.690704,0.20740095278130158,0.0
22.693088,0.19818184498213545,0.0
22.695484,0.19203577311602468,0.0
22.697868,0.18602947087677413,0.0
22.700252,0.17173522639813577,0.0
22.702648,0.15557865079994074,0.0
22.705036,0.14314673744085898,0.0
22.707416,0.13243738557447368,0.0
22.709816,0.12480106964114376,0.0
22.7122,0.11837545852131258,0.0
22.714584,0.11367240889417782,0.0
22.71698,0.10454584889362874,0.0
22.719368,0.09649022407971818,0.0
22.721748,0.08685180739997138,0.0
22.724148,0.07774128915091265,0.0
22.726532,0.07266615247144041,0.0
22.728928,0.07066405172502355,0.0
22.731328,0.06465774948577302,0.0
22.733712,0.05261396493051912,0.0
22.736096,0.046095806012070875,0.0
22.738492,0.04744628045242982,0.0
22.74088,0.0490762941465092,0.0
22.743264,0.051637473400366896,0.0
22.74566,0.04884397672103194,0.0
22.748048,0.05033422078825109,0.0
22.750428,0.05182446485547025,0.0
22.752828,0.04993095365916083,0.0
22.755216,0.047246046529933285,0.0
22.7576,0.0425590386542889,0.0
22.760004,0.03880319633842282,0.0
22.762388,0.0331850229030001,0.0
22.764768,0.03108847850009695,0.0
22.767172,0.033553318239599096,0.0
22.76956,0.04588699622645605,0.0
22.77194,0.06677021809706164,0.0
22.77434,0.0925557310856572,0.0
22.776724,0.1217844712017764,0.0
22.779108,0.15939180549803122,0.0
22.781504,0.20419820923767576,0.009204741173904398
22.783892,0.25250920782670816,0.018577011871540972
22.786272,0.3064978517151583,0.0277480523940166
22.788668,0.36844578090316343,0.03691019403399372
22.791056,0.4354197290845284,0.046065136994790076
22.793436,0.5197118399914749,0.05474265478551849
22.795832,0.6158276680639497,0.06309035118770015
22.798216,0.7172490543835048,0.07156820879380418
22.800596,0.8282909197734472,0.0800075643444225
22.803,0.9485027752764431,0.0883431261698778
22.805388,1.0740201890265195,0.09678595232182342
22.807772,1.2101978369568687,0.10501073408002712
22.810176,1.354941070522457,0.1130601514251333
22.812564,1.5075689791983427,0.12091371371643266
22.814944,1.66117527526225,0.12866685018636492
22.81734,1.8095213390494507,0.13640020673245637
22.819728,1.9511641483209692,0.14415824769742402
22.822108,2.086383242330526,0.1519852667766406
22.824504,2.2185311962648964,0.15980186737493984
22.826892,2.342952182325189,0.16765281139405203
22.829272,2.4612762142054834,0.1662990142392598
22.831668,2.5739226007863603,0.1647433441399225
22.834056,2.675164579082289,0.16346563824426072
22.836436,2.7715203080117186,0.16209948236594135
22.838836,2.8581941901488963,0.16081716290911005
22.841224,2.92997131918749,0.16010939860662715
22.84362,2.9869914647543596,0.15983209449442784
22.846016,3.0396372176339277,0.15939068137603704
22.848404,3.084323685213941,0.15896958507963382
22.850784,3.1189089971211224,0.15868609026717775
22.853184,3.149259685967861,0.15824337074997666
22.855572,3.164014773581716,0.1582289612473913
22.857952,3.1683419444407748,0.158462529287621
22.860348,3.1638239904108745,0.15889024787428946
22.862736,3.152974868917629,0.15943608605394693
22.865116,3.1376569110805956,0.16003766698165792
22.867512,3.1226657143255254,0.16049918104118097
22.8699,3.1114464016378114,0.16072697143468662
22.87228,3.100274310778341,0.16085610449288787
22.874684,3.088730132866533,0.16094777549006256
22.877072,3.077605263835305,0.16098381349332017
22.879456,3.0663406251772174,0.16103571872972533
22.881852,3.060011353571742,0.16089035885736896
22.88424,3.0499574197271535,0.1608710048631616
22.886624,3.043628148121677,0.16072430990596148
22.889028,3.040371912449257,0.1604443156779179
22.891416,3.037255446403697,0.1601428617324702
22.893796,3.0326959581191613,0.15985295914451822
22.896192,3.0270655346479862,0.15961442234181525
22.89858,3.0226458159903102,0.15930489036722426
22.90096,3.0175744710265766,0.15899179616164058
22.903356,3.018649197928953,0.15839941911912053
22.905744,3.0235883566973043,0.15765329933550007
22.908128,3.0251749402788786,0.1570733089333431
22.910524,3.0276926894202316,0.1564570752953122
22.912912,3.0307222952407824,0.1558565540495577
22.915292,3.0310509521806153,0.1554427548636681
22.917692,3.026444242067836,0.1552434561205686
22.92008,3.0203472878878377,0.15515323319369084
22.92246,3.0147621903870374,0.15508535250120575
22.92486,3.011691050311851,0.1549515180491631
22.927244,3.0075489750500264,0.15486985149126992
22.929624,2.9991231590416474,0.1549966110606141
22.932024,2.990138264525828,0.15520466902910873
22.934412,2.9791512692635913,0.15549982673957113
22.936792,2.9680245043744953,0.15581137425004632
22.939188,2.963415898403847,0.15588246241537604
22.941576,2.958108444298897,0.15604921265821758
22.94396,2.9548030909403646,0.1561286219280575
22.946356,2.9492160975816946,0.156334848245489
22.948744,2.946003292021779,0.1564915322682764
22.95114,2.940508846461726,0.1567709885547696
22.953536,2.930079033849061,0.15725815977441449
22.955924,2.9235136531023693,0.15760063717307504
22.958308,2.913875236422623,0.1580940724683238
22.960704,2.906099150862433,0.15851793488486415
22.963092,2.897391899742464,0.1589884935235249
22.965472,2.8910588364212493,0.159411137853146
22.967868,2.8816527371669802,0.1599958296556065
22.970256,2.8705240764200144,0.1606447284278253
22.97264,2.854320278993576,0.16154485972313615
22.975036,2.840118582313555,0.16234595759085643
22.977424,2.830992022313006,0.16289032335058884
22.979804,2.8240073326857345,0.16332473369817804
22.982204,2.8200956789915175,0.16360057445875764
22.984592,2.816835651603359,0.16387742274732445
22.986976,2.8087800267894476,0.1643549772859553
22.989372,2.801935106789036,0.16475926619184766
22.99176,2.796021352348403,0.1651190819618716
22.994144,2.7950429649603814,0.1652563298638363
22.99654,2.789268980146608,0.165593359194482
22.998928,2.7856368657061115,0.1658189858098733
23.001308,2.7860089527584497,0.16586123717992857
23.003708,2.7868003486913677,0.1658444300301052
23.006096,2.7953206083562327,0.16550036469192897
23.008476,2.804120407274818,0.16512180849885277
23.010872,2.8190662780595144,0.16445885236357383
23.01326,2.8335002921650125,0.16377607854765786
23.01564,2.856873874815957,0.16271529063887286
23.018044,2.8870451556390697,0.16139734479274082
23.020432,2.917356206089043,0.16002132539069347
23.022816,2.9484586524719343,0.15865554472234378
23.025212,2.9744859621753537,0.15753043714801843
23.0276,3.0005132718787726,0.15640532957369302
23.029984,3.0213256752758593,0.1555221053926988
23.03238,3.041486452366888,0.154640494084166
23.034768,3.0645804957641114,0.1536450521899142
23.037148,3.085951977668639,0.1526897865176026
23.039548,3.104250423640111,0.1518793939647758
23.041932,3.1177532721858316,0.15126125518581582
23.044316,3.1361914877841643,0.15044284477940542
23.04672,3.1544899337556362,0.14965340247964953
23.049108,3.1715776749136095,0.14893772558745041
23.051488,3.1931814742436146,0.14810583395071236
23.053892,3.210269215401588,0.14743611155322894
23.05628,3.225354855813144,0.14684563499609699
23.05866,3.2364362947318663,0.14642152254849425
23.06106,3.2464467984639507,0.14604254903725525
23.063448,3.24779727290431,0.14596290743190024
23.065832,3.2431414451054192,0.14610246611326172
23.068228,3.2414188836127225,0.14614189639660438
23.070616,3.238904926187108,0.146191405824863
23.073,3.2393242350676883,0.14614129260843825
23.075396,3.241745644694685,0.14602013243819795
23.077784,3.2512442917475717,0.1456422083176709
23.080168,3.2635364354797938,0.14519060674739534
23.082564,3.2716846080923214,0.14489468593914265
23.084952,3.2844886085037404,0.14446832983346555
23.087332,3.3005054144750754,0.1439169222837212
23.089732,3.3183845515659667,0.14330619919368157
23.09212,3.3281155160443308,0.1429859320885626
23.0945,3.3378464805226944,0.14266904278714296
23.096896,3.348648380187697,0.14231015045213766
23.099284,3.3498590850011953,0.1422509120342457
23.101668,3.3466462794412797,0.1423825159723065
23.104064,3.3463667401875594,0.1424154265541082
23.106452,3.3472979057473373,0.14238856923087603
23.108836,3.3510225679864507,0.14228172871031916
23.111232,3.358471892464678,0.14206554901841204
23.11362,3.366060986569764,0.1418298702986941
23.116,3.375931720674988,0.14149850658990018
23.1184,3.38100685735446,0.14131419421867913
23.120788,3.384219662914376,0.14118388843408067
23.123168,3.3834282669814577,0.14119443267061496
23.125564,3.3786326695557056,0.14134203052983202
23.127952,3.370112409890841,0.14159111108691327
23.130336,3.3640135598529737,0.1417258193923988
23.132736,3.354841673882051,0.14196732070295448
23.135124,3.3424569823512122,0.14233162595238516
23.137508,3.329141125260596,0.14272367667040486
23.139904,3.3245325192899475,0.1427665815280369
23.142296,3.320343222199879,0.14276004542239637
23.144676,3.3184355651099486,0.14265525585115854
23.147072,3.3262588724983817,0.1422562879597263
23.14946,3.337294985446731,0.14172238577281882
23.151844,3.344326896902246,0.14132300066811337
23.15424,3.348146002797845,0.14104754148993862
23.156628,3.3501027775738885,0.14082490367137987
23.159012,3.350988617163293,0.1406439722611829
23.161408,3.3546679534320325,0.14038819561673685
23.163796,3.354063548954217,0.1402966148384929
23.16618,3.3601170730217107,0.14001522957049628
23.168576,3.3649598922757056,0.1397865670181733
23.170968,3.3708736467163396,0.13951261366802292
23.173352,3.3758562355971944,0.1392634418856166
23.175748,3.378417414851052,0.13912812911395628
23.178136,3.3785571844779123,0.13911162333913965
23.180516,3.3777657885449943,0.13912228333057589
23.182916,3.378976493358493,0.13906175734381665
23.185304,3.3821892989184086,0.1389302090780548
23.187684,3.381769990037828,0.13897929570440742
23.190084,3.379720667463168,0.13913598834760377
23.192472,3.3723166689553157,0.13950395831597015
23.194852,3.357835433021574,0.14011234146863435
23.197256,3.3472186289538053,0.14059613043911703
23.199644,3.3386039256324542,0.14101723836042462
23.202028,3.3321310926843797,0.14135754098811182
23.204424,3.3247270941765272,0.14172551095647817
23.206812,3.318813339735893,0.14200030962170132
23.209192,3.3119684197354813,0.14229697652283618
23.211592,3.306334204548568,0.14253727101798988
23.21398,3.296695787868822,0.14290876333382938
23.21636,3.293343212682046,0.14304694609838212
23.21876,3.2929239038014644,0.14309413465100213
23.221148,3.2942271564135805,0.1431073871580259
23.223528,3.3036785816382244,0.14284512293317458
23.225924,3.320067474661897,0.14236900059232452
23.228312,3.3406003388052627,0.14175545117667626
23.230696,3.356337605522877,0.14127025295270312
23.233092,3.3730060378002698,0.1407699674547043
23.23548,3.3898142397045232,0.14025329204271883
23.23786,3.4058310456758583,0.13974007270187314
23.24026,3.422127390900913,0.13918317606306968
23.242648,3.442427937618802,0.1384916138423372
23.245032,3.4588640524707177,0.1379234629770564
23.247428,3.4765108721361315,0.13730410547026456
23.249816,3.4958802532942417,0.13665834390910586
23.252196,3.517251735198769,0.13594943917427854
23.254596,3.537132973036077,0.13533225061719617
23.256984,3.552358383074494,0.13482817459573135
23.259364,3.567444023486051,0.13434051628743804
23.261764,3.5845317646440242,0.13378757749236794
23.264152,3.5965443691225256,0.1334108652187086
23.266532,3.6096279087876653,0.13300701333031703
23.268932,3.6251328580798026,0.13250776659250954
23.27132,3.6330487132668536,0.13220692178153026
23.2737,3.635517344722094,0.13202647798367478
23.2761,3.6358441058040576,0.13191905857036615
23.278488,3.6440395002448285,0.13160204364721964
23.280868,3.6502327939391823,0.13134339280851245
23.283268,3.6564260876335357,0.1310847419698053
23.285656,3.665040790954887,0.1307291261216927
23.288036,3.679522026888629,0.1302272592271711
23.290432,3.6904183702101174,0.1297931920988361
23.292824,3.7002437783449675,0.12938821909146792
23.295208,3.708858481666319,0.12903445272561076
23.297604,3.7126775875619185,0.12879554906472535
23.299992,3.71556552789774,0.12857822748484468
23.302376,3.715659971554226,0.12842045501038163
23.304772,3.7214811781962425,0.12812243938239065
23.30716,3.7282335503980373,0.12780473098226636
23.309544,3.737127792973109,0.12742373259980042
23.31194,3.748024136294598,0.12698860079769894
23.314332,3.755987213309891,0.12663360434861987
23.316716,3.759666549578631,0.12641533123022153
23.319112,3.7689328792060404,0.12608081655428613
23.3215,3.7760573384601734,0.12580933327419427
23.323884,3.7805280706618296,0.12558261323445483
23.32628,3.7782011046913184,0.12552215573807085
23.328668,3.7718699372279736,0.12557019290641505
23.331052,3.765678539391489,0.1256039026355983
23.333452,3.7581366671146452,0.12569825800673345
23.33584,3.7436573270387727,0.12597149329124818
23.33822,3.730248922149538,0.12621319524354874
23.34062,3.722195193193497,0.12628367875110597
23.343008,3.7124189027447594,0.1263805712421367
23.345392,3.7078575186023546,0.12632223760373337
23.347792,3.701433803340392,0.1263035804135198
23.35018,3.6972917280785675,0.1262025352250847
23.352564,3.6904959257642678,0.12614699995971573
23.354964,3.683048497143911,0.1260822935698253
23.357352,3.668011974418467,0.12619090932608418
23.359736,3.6492507894539097,0.1263808729765782
23.362132,3.626485402996518,0.12668838130315324
23.36452,3.60306839023307,0.12699391679154523
23.366904,3.5729934489243123,0.1274629274868137
23.3693,3.5457120042948898,0.12787665297831025
23.371692,3.5212240563448023,0.12822620308198532
23.374072,3.4998091443277706,0.1284858995174531
23.376468,3.4846800738037094,0.12854326498834695
23.37886,3.4686198377198694,0.12862204287518625
23.38124,3.4536305368226685,0.12866240928089173
23.38364,3.4438561422318004,0.1285351024017583
23.386028,3.4335226691334904,0.12846865220031728
23.388412,3.419976390475266,0.12850678886098876
23.390808,3.409083838869516,0.12849656882828114
23.3932,3.395909647263628,0.12856976354652636
23.395584,3.385389182710215,0.1285954685127127
23.397984,3.379524545955694,0.12851552691709603
23.400368,3.3755222403207292,0.12839441565380538
23.402744,3.36830712912585,0.1283783508688412
23.40514,3.3646769105432233,0.1282950536677013
23.407524,3.365702519759487,0.12810613655351435
23.409904,3.373805366401641,0.1277089377132665
23.412296,3.3819082130437947,0.12730642130425945
23.414684,3.3955980530446186,0.12676988340354314
23.41706,3.413571633791996,0.1261005932123652
23.419468,3.4276807826734004,0.12552731865438815
23.421852,3.440439457114445,0.1250195211808735
23.424232,3.4507767219284933,0.12462000516183315
23.42664,3.4609742171156808,0.12423281401580749
23.429024,3.466236345250257,0.12397871334503789
23.431408,3.463490070399166,0.12395781342333057
23.4338,3.462373809242153,0.12383746638724764
23.436188,3.4573931162191665,0.12382119102503784
23.438568,3.4485479913302073,0.12391229182715033
23.440972,3.4379803049485513,0.12403454789779962
23.443356,3.427692157820616,0.12412192047604599
23.445736,3.4086042117740947,0.1244614320070508
23.44814,3.38551206423474,0.12492726146815464
23.450528,3.367634823001718,0.1252144467316601
23.452908,3.3508285169553345,0.12546370813373
23.455304,3.332159879789394,0.12575256226215623
23.457692,3.3054828396377864,0.12629070211061996
23.460072,3.279597195419097,0.1268305422558412
23.462468,3.250406197841875,0.12741003038666826
23.464856,3.209202595786152,0.1283881773899144
23.467236,3.169209698543927,0.12933287664112922
23.469632,3.130986584622642,0.13014748789030192
23.47202,3.0914602180892414,0.1309499403918457
23.4744,3.0532843259961986,0.13167485513832128
23.476804,3.02060287946321,0.1321801619596372
23.479192,2.9927170303559727,0.13257182511346866
23.481568,2.966553742741432,0.13291530252765177
23.483964,2.945325822179503,0.1331053311211028
23.486352,2.929312807923907,0.13310155632679926
23.488732,2.9139514199743686,0.13311122985995544
23.491128,2.895656765718635,0.13321291492912474
23.493516,2.8842995792619304,0.1330865275100251
23.495896,2.8774584509772563,0.13284978733680047
23.498292,2.8674045171326674,0.1327413572293583
23.50068,2.855068943287941,0.13273942998146124
23.503076,2.8425935998163543,0.13275445578489156
23.505472,2.836776184890077,0.13257112890523223
23.507856,2.8338920362699938,0.1322914386371096
23.510236,2.832171370635167,0.13204723382632927
23.51264,2.8439063317178164,0.1313711182715963
23.515028,2.8609487469054162,0.13057973269233228
23.517408,2.8768730050781346,0.1299348563218458
23.519804,2.8950316814227466,0.12928138519697915
23.522192,2.913562444819696,0.12867979753131156
23.524572,2.9311148208286237,0.1282133712753475
