Time,Force,Position
26.780924,0.1272755031005507,0.0
26.783303999999998,0.12429896929078009,0.0
26.7857,0.1223894163429803,0.0
26.788087999999995,0.1226217337684576,0.0
26.790468,0.1202003241414601,0.0
26.792863999999994,0.11577681376804577,0.0
26.795252,0.11028632253266062,0.0
26.797632,0.10265396092399844,0.0
26.800031999999995,0.09395066412869767,0.0
26.80242,0.08817667931492439,0.0
26.8048,0.07918988894123553,0.0
26.807196,0.07513846562015868,0.0
26.809584,0.06908494155266495,0.0
26.811964,0.061960482298532724,0.0
26.814364,0.055906958231039014,0.0
26.816748,0.046920167857350134,0.0
26.819143999999994,0.04221711823021538,0.0
26.821544,0.04058710453613601,0.0
26.823927999999995,0.04030756528241559,0.0
26.826311999999994,0.04831596826808299,0.0
26.828708,0.058602056929219944,0.0
26.8311,0.06809674965743878,0.0
26.833479999999994,0.07694377040426745,0.0
26.835876,0.08779289189751296,0.0
26.838263999999995,0.09650014301748144,0.0
26.840647999999995,0.10306552376417283,0.0
26.843044,0.10762484943977965,0.0
26.845431999999995,0.11432604548866354,0.0
26.847812,0.11795420560449205,0.0
26.850204,0.11972398892543165,0.0
26.852591999999994,0.11776911000725793,0.0
26.854983999999995,0.11404840209281236,0.0
26.857388,0.11260537985383637,0.0
26.859776,0.11209352317463868,0.0
26.862156,0.1123730624283591,0.0
26.86456,0.11400307612243847,0.0
26.866944,0.10948701795040708,0.0
26.869324,0.10376025496487694,0.0
26.871728,0.09761813742343389,0.0
26.874116,0.08733204876229693,0.0
26.876496,0.07704596010116,0.0
26.878892,0.06755126737294113,0.0
26.88128,0.05777703539100187,0.0
26.88366,0.04600070266264574,0.0
26.886064,0.036226470680706474,0.0
26.888452,0.029525274631822584,0.0
26.890832,0.024965948956215758,0.0
26.893235999999995,0.018264752907331868,0.0
26.895624,0.014636592791503363,0.0
26.898004,0.010077267115896536,0.0
26.9004,0.011520289354872548,0.0
26.902788,0.01365820540348189,0.0
26.905168,0.01566030614989874,0.0
26.907564,0.014453555661067718,0.0
26.909952,0.011384474052680053,0.0
26.912332,0.008035853190571967,0.0
26.914728,0.0077602682615192636,0.0
26.917116,0.0065535177726882415,0.0
26.919495999999995,0.0065535177726882415,0.0
26.9219,0.0065535177726882415,0.0
26.924288,0.0065535177726882415,0.0
26.926668,0.0065535177726882415,0.0
26.929072,0.0065535177726882415,0.0
26.931459999999998,0.0065535177726882415,0.0
26.93384,0.0065535177726882415,0.0
26.936236,0.0065535177726882415,0.0
26.938624,0.0065535177726882415,0.0
26.941004,0.006553517772688242,0.0
26.943408,0.006553517772688242,0.0
26.945792,0.006553517772688242,0.0
26.948176,0.004415601724078898,0.0
26.950576,0.002277685675469554,0.0
26.952963999999994,0.0,0.0
26.955344,0.0,0.0
26.957747999999995,0.0,0.0
26.960136,0.0,0.0
26.962516,0.0,0.0
26.96492,0.0022776856754695538,0.0
26.967308,0.005486536910717429,0.0
26.969688,0.008695388145965302,0.0
26.972083999999995,0.012835404940991496,0.0
26.974472,0.01604425617623937,0.0
26.976852,0.019113337784627038,0.0
26.979251999999995,0.02111148420637617,0.0
26.981635999999995,0.024040796187903626,0.0
26.98402,0.030182913729346672,0.0
26.986416,0.034322930524372866,0.0
26.988803999999995,0.04018550881209549,0.0
26.991184,0.040972950420345884,0.0
26.993579999999994,0.041900161655456486,0.0
26.995968,0.041900161655456486,0.0
26.998348,0.041900161655456486,0.0
27.000752,0.041900161655456486,0.0
27.003139999999995,0.041900161655456486,0.0
27.00552,0.0429671425174273,0.0
27.00792,0.0429671425174273,0.0
27.010312,0.04575668487209455,0.0
27.012691999999998,0.043478999196625,0.0
27.015088,0.04027014796137712,0.0
27.017475999999995,0.03706129672612925,0.0
27.019859999999998,0.03533873523343282,0.0
27.022256,0.0345473393005147,0.0
27.024643999999995,0.035897813740873655,0.0
27.027024,0.039250388927649454,0.0
27.029419999999995,0.04195133780836736,0.0
27.031808,0.03729551000947575,0.0
27.034188,0.03678365333027807,0.0
27.036584,0.030921075042555434,0.0
27.038976,0.03203923205743712,0.0
27.041356,0.031112020822326517,0.0
27.043748,0.031155288325901954,0.0
27.046136,0.03119855582947739,0.0
27.048516,0.032172988892831135,0.0
27.05092,0.034218357142823425,0.0
27.053307999999998,0.037059075650401535,0.0
27.055688,0.04110654464681067,0.0
27.058084,0.041433305728774246,0.0
27.060472,0.045760313978903795,0.0
27.062852,0.053160358162088736,0.0
27.065248,0.06149156790505199,0.0
27.067636,0.06633438715904695,0.0
27.070015999999995,0.07117720641304193,0.0
27.07242,0.07094488898756465,0.0
27.074808,0.07178350674872591,0.0
27.077188,0.07220281562930654,0.0
27.079584,0.08063052749555459,0.0
27.081972,0.0857056641750268,0.0
27.084352,0.09627129208988419,0.0
27.086748,0.11014622768794194,0.0
27.089136,0.1268579274689101,0.0
27.091532,0.1433865901194426,0.0
27.093928,0.16284851907617026,0.0
27.096315999999995,0.1813792824731196,0.0
27.098696,0.19977027624320876,0.0
27.101091999999998,0.21257427665462794,0.0
27.10348,0.22402780262568822,0.0
27.10586,0.23506201971616786,0.0
27.108256,0.24674786311270538,0.0
27.11064,0.2532188002029105,0.0
27.113024,0.2564769317332,0.0
27.11542,0.25987483289034974,0.0
27.117808,0.26220179886086087,0.0
27.120203999999998,0.2696039015108443,0.0
27.1226,0.273001802667994,0.0
27.124987999999995,0.27826203494470036,0.0
27.127371999999998,0.27658479942237785,0.0
27.129768,0.2762580383404143,0.0
27.132152,0.2748603420718122,0.0
27.134536,0.2646156250563814,0.0
27.13694,0.2548827647201483,0.0
27.139328,0.24617361774231056,0.0
27.141707999999998,0.23513560893609245,0.0
27.144104,0.22614502684666504,0.0
27.146488,0.21449882184689373,0.0
27.148872,0.21439679475893042,0.0
27.151267999999995,0.22704965039627398,0.0
27.153656,0.24910481357214853,0.0
27.15604,0.28200530652553013,0.009249388837007917
27.158435999999995,0.33119835298822853,0.017998540496749395
27.160824,0.39710326184082423,0.02635629001749607
27.163208,0.47850932826981857,0.03441468053098784
27.165603999999995,0.5735542211556549,0.04237919787478933
27.167987999999998,0.679956300498196,0.050250456217381036
27.170368,0.7957134655510248,0.05835505161672705
27.172771999999995,0.9233868955679994,0.06632611962726111
27.175155999999998,1.0665614831613726,0.07425820858043035
27.17754,1.2230953579578674,0.08210911459205099
27.179944,1.387681065852534,0.0900353890365935
27.182331999999995,1.5687463187116208,0.09788773654725759
27.184708,1.7604245839227377,0.10568686449259765
27.187107999999995,1.9649049536874044,0.11334963740379118
27.189496,2.1778111394604496,0.12100077272295859
27.191876,2.3982591975103387,0.12859309520819223
27.194272,2.6368659319048398,0.13591472353506034
27.196659999999994,2.872261756597294,0.1432030840406498
27.19904,3.0992789871096127,0.15046281603499673
27.20144,3.3219690467628733,0.15765260434039702
27.203824,3.532603071825128,0.15559672311782002
27.206208,3.7296454922587836,0.15399934017454378
27.208603999999998,3.911606063996621,0.1527895432475438
27.210992,4.079136413344699,0.15186867455610464
27.213387999999995,4.233167705862794,0.15105874071563655
27.215784,4.371977380058212,0.15037656043478734
27.218172,4.505715709289895,0.1493951836693413
27.220552,4.623813111318319,0.1485920834566978
27.222952,4.731624262076678,0.14777278072969305
27.225336,4.825144960072136,0.1470411901244127
27.22772,4.91289546496956,0.1461631179576193
27.230115999999995,4.988078078596781,0.14533839214600353
27.232504,5.054417463192912,0.1444876186114352
27.234884,5.1062794035710395,0.1437790940647633
27.23728,5.152184159396028,0.14301452809369258
27.239667999999995,5.187568450667604,0.14232446709951604
27.242052,5.2025143214523,0.14198943089207242
27.244456,5.211920420706569,0.1417040071992804
27.246844,5.218160936229166,0.1414472120177309
27.249224,5.221887494326149,0.14122356655072524
27.251628,5.222168929437739,0.14104531469804657
27.254012,5.220168724549191,0.14093169751280518
27.256392,5.218820145966702,0.14082189645028234
27.258792,5.2162608625707145,0.1407498108459624
27.26118,5.216634845480922,0.1406166990330565
27.26356,5.218079763577767,0.14045534668789317
27.265956,5.221387012794169,0.14026336806831521
27.268344,5.2269759020107065,0.14000625358706636
27.270723999999998,5.228840128988132,0.13981602203347893
27.27312,5.230564586338698,0.13963545569829525
27.275507999999995,5.230286942942847,0.13949956308305403
27.277891999999994,5.229729760293275,0.13938425104651364
27.280288,5.227170476897288,0.1393118044646035
27.282675999999995,5.228755164620995,0.13914622252270584
27.285056,5.229268917158061,0.13900786155142433
27.287464,5.232995475255043,0.13879435375734486
27.289848,5.242076709285218,0.13845257623868434
27.292232,5.255301914435086,0.13802244740480263
27.294632,5.269877594025315,0.137549673331919
27.297016,5.2823114032422644,0.13712768194673436
27.299395999999994,5.2978182483922724,0.1366375217777726
27.3018,5.316770216527671,0.13610618372459102
27.304188,5.337212428730289,0.13552351320364647
27.306572,5.361007216119683,0.13485875889684645
27.308968,5.383358981270101,0.1342009623464737
27.311356,5.4095751782864925,0.13347970111914223
27.313736,5.429924842690494,0.1328715083567578
27.316132,5.449203571907857,0.13228747017161593
27.31852,5.469925323364195,0.13170093192147828
27.320899999999995,5.493859880380449,0.13104498847835924
27.323296,5.512859070344092,0.13047635057355386
27.325688,5.532137799561456,0.12988920778823618
27.328064,5.546341392099345,0.1294007134592803
27.330472,5.555050539077183,0.1290454806036973
27.332856,5.558032923069491,0.12878621491237324
27.335235999999995,5.558733667061661,0.1285864039008867
27.33764,5.557944166986613,0.12844019691150105
27.340028,5.554081630978509,0.12835633161807636
27.342408,5.548868620530047,0.12831511156365363
27.344804,5.547659811574417,0.12819906882122
27.347188,5.55031543448476,0.12801994955394633
27.349568,5.551528035156128,0.1278404566180592
27.351972,5.552321326946915,0.12768991541398672
27.35436,5.549901813177787,0.12760724020208866
27.356739999999995,5.547714616834135,0.12755778110745605
27.359131999999995,5.541662988624511,0.12756932331724297
27.36152,5.5406864970943595,0.12748862536110936
27.3639,5.538639070377569,0.12742973772151733
27.366299999999995,5.538221657354859,0.12731210002173923
27.368683999999995,5.5356623739588695,0.12723851658584376
27.371084,5.540320097615631,0.12703051847564986
27.37348,5.542835950899113,0.12686561950143774
27.375868,5.552289271981627,0.1265837744565108
27.378248,5.56202213231786,0.12628020158507003
27.380644,5.574688258960288,0.125924328241609
27.383032,5.588565090416215,0.12553820816596648
27.385416,5.603001000379583,0.12511546461910192
27.387812,5.614503644036756,0.12473878274554852
27.3902,5.622421395081675,0.12440254396478516
27.392579999999995,5.6255435487008425,0.1241431111092379
27.394984,5.622519630453899,0.12400069860831414
27.397372,5.6225687481400115,0.12380172704554468
27.399752,5.620475995452846,0.12364691731930577
27.402148,5.620664882765819,0.12343884418552081
27.404536,5.619410747839815,0.1232285569865674
27.40692,5.618296382540673,0.1230084461939003
27.409316,5.611687571681476,0.12290764957424666
27.411704,5.608151796755336,0.12275008399724768
27.414083999999995,5.606338583321892,0.12257747489308453
27.41648,5.603454434701809,0.12242621206004015
27.418868,5.600430516454866,0.12228502566309202
27.421252,5.59940869895434,0.1221102146591703
27.423648,5.592660118468284,0.12201686608274492
27.426036,5.5880534083555045,0.1218809934890989
27.428416,5.583306928615865,0.12175392691300832
27.430812,5.577489513689587,0.12164796842417508
27.4332,5.573394660256004,0.12152698634792725
27.435596,5.573304008315256,0.12133986109616644
27.437991999999998,5.577869184173401,0.12109174195895529
27.44038,5.583505295218182,0.12082127162920277
27.442764,5.588489779956907,0.12054179127259093
27.445159999999994,5.586257257642881,0.12039428313394021
27.447548,5.5833731090228,0.1202400384523306
27.449928,5.574203118909746,0.12020706678078473
27.452327999999994,5.5639621936100525,0.12019613703841658
27.454716,5.55344172905664,0.12020413724544265
27.457096,5.541338472637391,0.12022098179350346
27.4595,5.527233115471725,0.12027257099888031
27.461884,5.503117254573975,0.12050490920457521
27.464268,5.4755562706908325,0.1207764046505825
27.466663999999994,5.437984783075605,0.12123750309061916
27.469052,5.4006928347141,0.12167562221349254
27.471432,5.362609490419676,0.12212751795583669
27.473828,5.326528246871668,0.12253437580755912
27.476216,5.290726542577381,0.12292312809400303
27.4786,5.252131341603758,0.12335665979560448
27.480996,5.20380517615177,0.12397249521903897
27.483384,5.151474809206949,0.12466878855126688
27.485764,5.098213276702352,0.12537417950397986
27.488164,5.045743140130671,0.12607451043841475
27.490548,4.995926730611465,0.12674896343034506
27.492932,4.946901717025178,0.12744151074620746
27.495328,4.89880786899867,0.12812493386294366
27.497712,4.85793102802491,0.12865771257108113
27.500091999999995,4.817845582984068,0.1291916834681215
27.502488,4.779902008316504,0.12967251942464117
27.504876,4.746893800701551,0.13006103987977521
27.507272,4.711464183459602,0.13053180257691038
27.509668,4.684834365136237,0.13084042682263053
27.512055999999998,4.66416362722388,0.1310866715911048
27.51444,4.652944314536166,0.1311679880635541
27.516836,4.641957319273929,0.13128726479829764
27.51922,4.634927303676283,0.1313831221028375
27.521604,4.622402842518585,0.13162667094895095
27.524,4.611461173226722,0.1318592637429516
27.526388,4.6061064972935295,0.1319946979594333
27.528768,4.6142074480778135,0.13187127211513852
27.531164,4.626033061101211,0.13168153361985954
27.533552,4.636647969311111,0.13152969620915544
27.535931999999995,4.648054273453928,0.13137364604558868
27.53834,4.6605315127833835,0.13119131856943858
27.540724,4.677152723232533,0.13090809304989592
27.543108,4.696427660734158,0.13058866918910994
27.545503999999998,4.713281188608785,0.13034939824031333
27.547895999999994,4.734650774655442,0.13004391292809697
27.550276,4.756671987008159,0.12974953803749054
27.552679999999995,4.78148669604021,0.1294177526443343
27.555068,4.81365818175187,0.12891542444986423
27.557452,4.843548027463393,0.12847891046194188
27.559847999999995,4.874648577988416,0.1280133484845224
27.562236,4.902164235901185,0.12759984859784787
27.564616,4.930099202694535,0.12715733918891844
27.567015999999995,4.962597449488158,0.12660427713498953
27.569404,5.003243868894311,0.12588618382113623
27.571784,5.044681684233381,0.12517038280754794
27.57418,5.083977629199173,0.12451341272411771
27.576567999999995,5.118198437485493,0.12397230970148379
27.578948,5.153350411331593,0.12342320768471152
27.581348,5.193297982603444,0.12280139736708064
27.583735999999995,5.232174618688656,0.12220424149223368
27.586116,5.26998031958723,0.12163336292997007
27.588511999999994,5.310719286791999,0.12102562654713384
27.590903999999995,5.349595922877211,0.12044816814704395
27.593284,5.388472558962423,0.1198689783010641
27.595679999999994,5.424043841689102,0.11932107501078185
27.598068,5.455750692549808,0.11883345022901162
27.600452,5.484104968223738,0.11842964567042938
27.602856,5.5103173735243915,0.11807946164978057
27.605244,5.538811418825182,0.11767875298735198
27.607628,5.563068945207661,0.11731359181174031
27.610024,5.589188802709698,0.11692429571931515
27.612412,5.613446329092177,0.1165601440216452
27.614791999999994,5.630766387675628,0.11631131078673838
27.617188,5.643290848833327,0.11613424247642536
27.619575999999995,5.65423251812519,0.1159630930537132
27.621959999999994,5.665453726670773,0.1157749272903381
27.624356,5.6741609777907405,0.11560240389077417
27.626743999999995,5.685289638537705,0.11537546890773015
27.629127999999994,5.690039909993083,0.11521793036592426
27.631524,5.69600088626196,0.11503198387805348
27.633911999999995,5.70610583365053,0.11477841282490525
27.636292,5.708342147680294,0.114637930157221
27.638692,5.710997770590637,0.11447135065270019
27.641079999999995,5.714072702381562,0.11427856201542455
27.643463999999994,5.715936929358988,0.11411387634021597
27.64586,5.72129350115005,0.11387302505614345
27.648247999999995,5.7224135540228005,0.11365830528033852
27.650631999999995,5.719017548723521,0.11348873940463487
27.653028,5.716040852304821,0.11329373518647173
27.655415999999995,5.716369509244654,0.11308271755082365
27.657796,5.718328179878566,0.1128193440681056
27.6602,5.7193556849527,0.11256520804902193
27.662583999999995,5.724247621892808,0.11226074311094256
27.664967999999995,5.727416997340217,0.1119677275932731
27.667372,5.728863811294932,0.11168618165601864
27.669756,5.727656898197171,0.11142700208899527
27.67214,5.7263102154725525,0.1111750589535213
27.674536,5.716023964202486,0.11105283189658054
27.67692,5.7117440151716705,0.1108409733721399
27.6793,5.70481033908838,0.11065127453157507
27.681704,5.691078964832921,0.110551265209726
27.684092,5.6867064680034884,0.11029741295118764
27.686471999999995,5.686198403040029,0.10999643258757062
27.688868,5.6858301077034294,0.1096871807756797
27.691256,5.685881121247413,0.10935128661310518
27.693636,5.684581660351035,0.10905187404357224
27.69604,5.686355235387712,0.10870343140482455
27.698428,5.690782537476865,0.10833242900957613
27.700807999999995,5.691997034006103,0.10801827507580489
27.703204,5.689906177176807,0.10771751946718319
27.705592,5.682740183668039,0.10749078826681613
27.707972,5.678647226092327,0.10721746768038246
27.710376,5.672319850344721,0.10693874034979213
27.712764,5.665852704970255,0.10666716050964649
27.715143999999995,5.663389761088621,0.10634027386502058
27.717548,5.661718213139906,0.10601114785463718
27.719936,5.664470175564606,0.10560140226598838
27.722316,5.674951001721252,0.10509725047295262
27.724716,5.680636230452147,0.10465145104479948
27.727104,5.687252624742819,0.10419458285252131
27.729484,5.695079723846991,0.10370736328786151
27.73188,5.694618880711775,0.1033496382634926
27.734268,5.687872196083588,0.10309127624192946
27.736652,5.68205667701518,0.10282396544540925
27.739048,5.67703255387969,0.10255576266295312
27.741436,5.671356804438141,0.1022790169015382
27.743815999999995,5.667403616489289,0.1019929744069393
27.746212,5.664800902980796,0.10167316906384717
27.7486,5.660475627979608,0.101360655936932
27.75098,5.65973524559067,0.10102173202709185
27.753376,5.662719525440847,0.1006470170789739
27.755764,5.6667747404776625,0.10025821596270398
27.758148,5.671341812193676,0.09988667306089971
27.760544,5.680192624656243,0.09944884565352573
27.762932,5.6882520411858914,0.09901547847860512
27.765311999999994,5.698732867342537,0.0985340111868994
27.767708,5.708002988685685,0.09808178922585867
27.770095999999995,5.712757051856801,0.09766228087352732
27.772479999999995,5.717091806147337,0.09726506767514864
27.774876,5.722497495624511,0.09685192980289517
27.777263999999995,5.731767616967659,0.0964011203265896
27.77966,5.746392414243999,0.09587137858501349
27.782056,5.763857930027918,0.09526831729567171
27.784444,5.780252510625197,0.09468416374428268
27.786824,5.796786860849338,0.09409369299576979
27.789224,5.814112607006396,0.09350470354766667
27.791612,5.828784626110981,0.09293038298896313
27.793992,5.840383609282509,0.09239517885969757
27.796388,5.853984693200453,0.09183461037611766
27.79878,5.863861114879286,0.09130428879318918
27.80116,5.8718752054385615,0.09078936413613102
27.803556,5.879097900064919,0.09027820535719996
27.805948,5.8844582635717195,0.08978000274144529
27.808328,5.886605821518605,0.08932858521724209
27.810724,5.884329869092075,0.0889437141391968
27.813112,5.878701341478769,0.08861088995858557
27.815492,5.870139547559267,0.088305563103155
27.817896,5.863440084759324,0.08798599348752847
27.82028,5.860093197146157,0.08761405411083475
27.82266,5.858608640652545,0.08723062214892464
27.825056,5.8540510482258785,0.08688311482665934
27.827444,5.845209715052658,0.0865924270347548
27.829823999999995,5.834458828931637,0.08636282566402388
27.832224,5.82678097874367,0.08609957506178764
27.834608,5.818032193369066,0.08584964084898167
27.836991999999995,5.8114252783677385,0.0855726059238143
27.839396,5.806540924859109,0.0852908495850181
27.841784,5.80659193840309,0.08496519391312664
27.844164,5.810367614186185,0.084618474885482
