Time,Force,Position
26.58922,0.06679672316490724,0.0
26.5916,0.06679672316490724,0.0
26.593999999999998,0.06679672316490724,0.0
26.596388,0.06679672316490724,0.0
26.598768,0.06393597090925623,0.0
26.601167999999998,0.0607956793998848,0.0
26.603556,0.0587263230771519,0.0
26.60594,0.05772790194105752,0.0
26.608335999999998,0.054587610431686084,0.0
26.610719999999997,0.05037638373567612,0.0
26.6131,0.04337166036033119,0.0
26.6155,0.03850880735826332,0.0
26.617884,0.0316438536097786,0.0
26.620284,0.02384773430151556,0.0
26.622679999999995,0.01591184536639231,0.0
26.625068,0.011048992364324443,0.0
26.627447999999998,0.0044635778695601425,0.0
26.629844,0.0021619041213499666,0.0
26.632231999999995,0.0017898170690124858,0.0
26.634615999999998,0.006373130817359934,0.0
26.637012,0.00988550937906885,0.0
26.639399999999995,0.011535556821221126,0.0
26.64178,0.014116769823151725,0.0
26.644175999999995,0.01762914838486064,0.0
26.646564,0.021141526946569556,0.0
26.648944,0.025585071068056794,0.0
26.65134,0.026955579256488654,0.0
26.653727999999997,0.028977713750978414,0.0
26.656112,0.03020845231255006,0.0
26.658508,0.03020845231255006,0.0
26.660895999999997,0.03020845231255006,0.0
26.663292,0.03020845231255006,0.0
26.665688,0.03020845231255006,0.0
26.668076,0.03020845231255006,0.0
26.67046,0.03020845231255006,0.0
26.672856,0.03020845231255006,0.0
26.675244,0.03020845231255006,0.0
26.677623999999994,0.03020845231255006,0.0
26.680024,0.028418635243537573,0.0
26.682412,0.023835321495190125,0.0
26.684791999999995,0.02048274630841432,0.0
26.687188,0.01899250224119516,0.0
26.689575999999995,0.018433423733754322,0.0
26.691959999999995,0.016151783733617045,0.0
26.694356,0.014009913360339982,0.0
26.696748,0.014009913360339982,0.0
26.699127999999995,0.018014114853173686,0.0
26.701528,0.016571092614197674,0.0
26.703916,0.015340354052626027,0.0
26.706295999999995,0.016850631867918096,0.0
26.708696,0.0202232408027668,0.0
26.711079999999995,0.0202232408027668,0.0
26.71346,0.0202232408027668,0.0
26.715864,0.0202232408027668,0.0
26.718252,0.0202232408027668,0.0
26.720631999999995,0.0202232408027668,0.0
26.723035999999997,0.0202232408027668,0.0
26.725424,0.020662583431420335,0.0
26.727804,0.022824487552770303,0.0
26.730208,0.022824487552770303,0.0
26.732595999999997,0.02266468417783719,0.0
26.734976,0.022504880802904074,0.0
26.737379999999995,0.020482746308414318,0.0
26.739768,0.019252007746842673,0.0
26.742148,0.017881499558410816,0.0
26.744544,0.013437955436923577,0.0
26.746931999999997,0.00806324575565802,0.0
26.749312,0.007484133500144274,0.0
26.751715999999995,0.007484133500144274,0.0
26.754099999999998,0.005973855684852208,0.0
26.75648,0.002601246750003501,0.0
26.75888,0.002601246750003501,0.0
26.761264,0.0033201286323774563,0.0
26.763648,0.004178780141611623,0.0
26.766043999999997,0.004897662023985578,0.0
26.768432,0.004897662023985579,0.0
26.770812,0.004897662023985579,0.0
26.773211999999997,0.004458319395332044,0.0
26.775596,0.0022964152739820766,0.0
26.77798,0.0022964152739820766,0.0
26.780376,0.0022964152739820766,0.0
26.782764,0.0022964152739820766,0.0
26.785143999999995,0.0022964152739820766,0.0
26.787552,0.0022964152739820766,0.0
26.789939999999994,0.0022964152739820766,0.0
26.79232,0.0022964152739820766,0.0
26.794715999999998,0.0022964152739820766,0.0
26.797104,0.0022964152739820766,0.0
26.799484,0.002296415273982077,0.0
26.801883999999998,0.002296415273982077,0.0
26.804272,0.002296415273982077,0.0
26.806652,0.002296415273982077,0.0
26.809048,0.0015775333916081217,0.0
26.811435999999997,0.0007188818823739554,0.0
26.81382,0.0,0.0
26.816216,0.0,0.0
26.818603999999997,0.0,0.0
26.820984,0.0,0.0
26.82338,0.0,0.0
26.825768,0.0,0.0
26.828152,0.0,0.0
26.830548,0.0,0.0
26.832936,0.0,0.0
26.83532,0.0,0.0
26.837716,0.0,0.0
26.840104,0.0,0.0
26.842484,0.0,0.0
26.844884,0.0,0.0
26.847272,0.0,0.0
26.849652,0.0,0.0
26.852051999999997,0.0,0.0
26.85444,0.0,0.0
26.856824,0.0,0.0
26.859219999999997,0.0,0.0
26.861608,0.0,0.0
26.863988,0.0,0.0
26.866384,0.0,0.0
26.868772,0.0,0.0
26.871151999999995,0.0,0.0
26.873555999999997,0.0,0.0
26.875944,0.0,0.0
26.878324,0.0,0.0
26.88072,0.0,0.0
26.883108,0.0,0.0
26.885487999999995,0.0,0.0
26.887891999999997,0.0,0.0
26.890276,0.0,0.0
26.89266,0.0,0.0
26.895064,0.0,0.0
26.897451999999998,0.0,0.0
26.899832,0.0,0.0
26.902227999999997,0.0,0.0
26.904616,0.0,0.0
26.906996,0.0,0.0
26.909392,0.0,0.0
26.91178,0.0,0.0
26.914159999999995,0.0,0.0
26.916556,0.0,0.0
26.918944,0.0,0.0
26.921339999999997,0.0,0.0
26.923736,0.0,0.0
26.926123999999994,0.0,0.0
26.928504,0.0,0.0
26.930899999999998,0.0,0.0
26.933288,0.0,0.0
26.935668,0.0,0.0
26.938064,0.0,0.0
26.940451999999997,0.0,0.0
26.942832,0.0,0.0
26.945228,0.0,0.0
26.947616,0.0,0.0
26.95,0.0,0.0
26.952396,0.0,0.0
26.954784,0.0,0.0
26.957168,0.0,0.0
26.959564,0.004254656808514632,0.0
26.961952,0.011535127721841492,0.0
26.964347999999998,0.0226328086728987,0.0
26.966744,0.03461443335549107,0.0
26.969131999999995,0.05120466400873189,0.0
26.971512,0.06797999025920684,0.0
26.973907999999994,0.08973600953266771,0.0
26.976296,0.11405131220211703,0.0
26.97868,0.13985496308091627,0.0
26.981075999999995,0.17101139403503893,0.0
26.983464,0.20710129618390435,0.0
26.985844,0.24863652620671026,0.01066234976591126
26.988243999999995,0.2958494015289339,0.021456424450816334
26.990632,0.35074202289699213,0.03200670785833991
26.993016,0.41666696549766075,0.041843807757731784
26.995411999999995,0.48906094933066524,0.05177844662096365
26.9978,0.5700658447692826,0.061542726577589635
27.00018,0.6596816518135129,0.07116938617082877
27.002579999999995,0.7568374352767175,0.08078202013501908
27.004963999999998,0.8648857703456724,0.09008349824066594
27.007348,0.9735656979726122,0.09953873902203703
27.009744,1.0893209671675719,0.10876344267010972
27.012131999999998,1.2135020523709104,0.1176573835279618
27.014515999999997,1.344898248769129,0.12649800218357424
27.016912,1.4754086055779434,0.13545346346738749
27.019299999999998,1.617604805783295,0.1441121141631434
27.021683999999997,1.7592419274812057,0.15278898003075667
27.02408,1.9050230202988105,0.1613625988946752
27.026467999999998,2.0601629905424415,0.16966766520968923
27.028848,2.2170727441070124,0.17784682808271157
27.031243999999997,2.3744490283804067,0.18594914557843883
27.033635999999994,2.5332702307506465,0.1832337487584766
27.036016,2.690650306739779,0.18030169548701216
27.038411999999997,2.842864594108692,0.17756684677131956
27.0408,2.9845584169241923,0.17556135888215316
27.043195999999995,3.12336809111961,0.1733757820550235
27.045592,3.2554291848289707,0.17131379291457957
27.047979999999995,3.380090071746218,0.16934037713525074
27.050363999999995,3.493346550378517,0.16748721757256785
27.05276,3.593848146285509,0.16599309088023728
27.055148,3.691605363199279,0.16427080952376938
27.057528,3.77739909332066,0.1628266417649326
27.059923999999995,3.8481563007165964,0.16178621413225958
27.062316,3.9120251579996173,0.16074751455673106
27.064696,3.9769668463271453,0.1594621181727486
27.067091999999995,4.026964559727848,0.15857062250763945
27.06948,4.077476025665614,0.15751792146527419
27.071859999999997,4.119282136341283,0.15662749026886583
27.074256,4.148099151008299,0.15607906601063823
27.076648,4.167931271159496,0.15570454689773616
27.079027999999997,4.1834343245937635,0.15536938443265566
27.081424,4.190976196870608,0.15522707524682688
27.083811999999995,4.195492255042638,0.1551188458931246
27.086195999999997,4.196563190229277,0.15508115913673465
27.088592,4.198332973550216,0.15497666676419017
27.090979999999995,4.196937173139483,0.15491484899727503
27.09336,4.191816710489638,0.15494717173612518
27.09576,4.186556478212932,0.15499142003031421
27.098147999999995,4.19023581448167,0.15477517184003306
27.100528,4.195777481869967,0.15451104663794302
27.102928,4.200248214071624,0.15428620494173853
27.105315999999995,4.207652212579477,0.15397902606083566
27.107696,4.214916441460469,0.15367824673464356
27.110091999999995,4.220969965527963,0.1534290615535466
27.11248,4.221576265863646,0.15330830315152905
27.114864,4.224324436572608,0.15311311063280195
27.117259999999995,4.217201873176345,0.15320416503774842
27.119643999999997,4.215294216086414,0.15312564783993043
27.122043999999995,4.2175305301161785,0.15291486380981267
27.124436,4.222560340825276,0.15263356596454228
27.126824,4.223585950041541,0.1524710814035877
27.129203999999994,4.225682494444444,0.15227110811315955
27.1316,4.226708103660708,0.15210879684869844
27.133987999999995,4.2308067488100285,0.1518508712067858
27.136368,4.234625854705629,0.151621204975489
27.138763999999995,4.239887982840204,0.15138725742749512
27.141152,4.248874773213893,0.1510625420653886
27.143548,4.258652959520499,0.15073228841908407
27.145944,4.262424843587856,0.15057753936970478
27.148332,4.267407432468711,0.1503765516743167
27.150712,4.272390021349566,0.15017733633675082
27.153108,4.2773726102304215,0.14997986836371918
27.155496,4.288221731723666,0.14963007266348113
27.157875999999995,4.299210622843772,0.14926817001149012
27.160272,4.310711370643076,0.1489218017124258
27.162659999999995,4.325564693629154,0.14846534279794815
27.165043999999995,4.350428520347318,0.14773580244107173
27.16744,4.373010707065345,0.14709844341648898
27.169827999999995,4.391868231544258,0.14654513764531216
27.172208,4.410865525650031,0.14598431582323726
27.174603999999995,4.43908192755497,0.14517882300695276
27.176992,4.465296228713493,0.14441928683863478
27.179376,4.493233091364711,0.1436381527110398
27.181771999999995,4.518096918082875,0.1429460026027159
27.184155999999994,4.540958644054622,0.14230497444577506
27.186552,4.559304311854337,0.14175003431434827
27.188948,4.5757876485344955,0.14123849271118907
27.191336,4.5885463229755405,0.14080580578951438
27.193715999999995,4.603027558909282,0.14034522501730384
27.196112,4.617229255589303,0.13991280113795138
27.1985,4.630220247455826,0.13952518516866666
27.20088,4.644282174508988,0.13911203077141623
27.203284,4.655410835255954,0.13877182721071837
27.205668,4.666399726376059,0.13844373060177345
27.208051999999995,4.678459552682803,0.13808592670439876
27.210448,4.691031235668746,0.1377524637816787
27.212836,4.695594515669019,0.13761191920973484
27.215216,4.700018026042434,0.13748351623804428
27.217611999999995,4.708166198654961,0.13728412013477556
27.22,4.714452040147932,0.13712077369540818
27.222396,4.710168299401378,0.13723631722018548
27.224791999999997,4.71016829940138,0.1372363172201855
27.22718,4.707374802722044,0.1372887051905543
27.22956,4.705232932348767,0.1373464733860271
27.231956,4.704301766788989,0.13736412889763358
27.234344,4.706815724214604,0.1373335018833663
27.236723999999995,4.711471552013495,0.13724549196128208
27.23912,4.71398550943911,0.13721423252113246
27.241512,4.71398550943911,0.13721423252113246
27.243891999999995,4.71277480462561,0.1372553855058531
27.246288,4.710772703879193,0.1373034089648392
27.248676,4.703555696826443,0.13748950419245218
27.251056,4.696338689773695,0.1376755994200652
27.25346,4.688050747534306,0.13789264121930697
27.255848,4.6769693086155835,0.13816601214959126
27.258227999999995,4.660021337084471,0.13857399169010065
27.260628,4.645866862232693,0.13893109825046288
27.263012,4.630129595515078,0.13930237654516692
27.265396,4.613321393610824,0.1396992406081751
27.267799999999998,4.598095983572408,0.14008224201771788
27.270183999999997,4.59129828540024,0.14023541753749774
27.272568,4.580216846481518,0.140508788467782
27.274964,4.570997738682351,0.1407451148997665
27.277351999999997,4.562337709390626,0.14093486921758208
27.279732,4.555679780845319,0.14107424654971554
27.282132,4.548230456367092,0.1412199750673997
27.284516,4.535566225582532,0.14150414455326732
27.2869,4.5298394625970015,0.14162608670301824
27.289296,4.5298394625970015,0.14162608670301824
27.291684,4.530398541104443,0.1415799996882215
27.294064,4.534030655544938,0.14145704064769252
27.296464,4.538733705172074,0.14130160422752452
27.298852,4.545578625172485,0.1410877776064717
27.301232,4.557778221106089,0.1407293612108277
27.303632,4.574913184092305,0.14026050275848662
27.30602,4.597914679690913,0.13966093199104998
27.308404,4.623058045662797,0.13900691740329046
27.310799999999997,4.651926073873794,0.1382881169550977
27.313188,4.68186503727143,0.13754887300510363
27.315572,4.7077997991762315,0.13689441145158662
27.317967999999997,4.726517554028284,0.1364224793336538
27.320356,4.749099740746311,0.1358683779449643
27.32274,4.771821697091197,0.13530757009105893
27.325135999999997,4.792262013435947,0.1348125000602981
27.327524,4.8113518553403365,0.13437405375193295
27.329904,4.8295105316849485,0.13395137722671027
27.332303999999997,4.849950848029697,0.1334528256531924
27.334692,4.870530934001307,0.13295530891290436
27.337076,4.885104717733666,0.1325968923555698
27.339471999999997,4.897396861465888,0.1323039366873316
27.34186,4.908618070011469,0.13204285629623366
27.344244,4.9249144152365245,0.13166665647849307
27.346639999999997,4.936927019715026,0.13140113306618362
27.349028,4.944376344193253,0.13127055459249537
27.351412,4.948101006432366,0.13120617826238534
27.353807999999997,4.948892402365284,0.1312009992637979
27.356196,4.947681697551785,0.1312380434390283
27.35858,4.941815164939395,0.13135308847823443
27.360975999999997,4.9320842004610315,0.13154107575262275
27.363367999999998,4.924914415236525,0.13164664341826768
27.365748,4.924030471504991,0.1316033862268128
27.368143999999997,4.921563735907619,0.1315702859160149
27.370532,4.917374438817552,0.13155763520536337
27.372916,4.918260278406955,0.13143539291409506
27.375311999999997,4.918634261317162,0.1312971997180489
27.3777,4.922081280160425,0.13109230114340517
27.38008,4.93018412680258,0.1308134872854761
27.382479999999997,4.935213937511677,0.1306029204981456
27.384864,4.942385618594053,0.13034039165879213
27.387248,4.955843141169399,0.12993896743215588
27.389644,4.964365296692131,0.12963011600536875
27.392032,4.969023020348892,0.12939338307338133
27.394428,4.975170988072872,0.12909820793100366
27.396828,4.978804998371238,0.12882499702958702
27.399212,4.982950865348801,0.12856765856524655
27.401596,4.9843032356470305,0.12835470485584627
27.403991999999995,4.982722339639063,0.12819781129974517
27.406384,4.982864005123792,0.12801975683371514
27.408764,4.98407660579516,0.12781407311722093
27.411164,4.991155739078918,0.1274964469259433
27.413548,4.994090901242982,0.12727411397270635
27.415932,4.996746524153326,0.12707318487587538
27.418327999999995,4.9960495718768945,0.12695927709858043
27.420716,4.993490288480906,0.12687658636769344
27.4231,4.990791235458058,0.12680435874848225
27.425495999999995,4.983156815382597,0.12682876871547946
27.427884,4.972868668254662,0.12688519865677408
27.430268,4.961789125193809,0.12694616738442985
27.432663999999995,4.949638646946316,0.12703265413551584
27.435052,4.933344197579131,0.12720484133611543
27.437431999999998,4.91998301451814,0.12732649643196758
27.439832,4.907552997016928,0.1274333220787269
27.442215999999995,4.900989512128104,0.12742874323613862
27.444599999999998,4.902574199851809,0.12725800770003537
27.446996,4.901505160523042,0.12711895711447987
27.449388,4.905371488246884,0.12688692728423379
27.451767999999998,4.913521556717281,0.1265545484611274
27.454164,4.922882330001176,0.12618841869357436
27.456551999999995,4.934245204031488,0.12578415556895833
27.458935999999994,4.936388970262634,0.1255715285491374
27.461332,4.939743441307279,0.12532379451121864
27.463719999999995,4.943237681978786,0.12506588169599153
27.466103999999994,4.956742426382376,0.12461708627342627
27.468504,4.967174134852909,0.12423077424110558
27.470887999999995,4.972670476270832,0.12393189125488938
27.473271999999994,4.984173119928004,0.12351676162459194
27.475672,4.9908801661594255,0.12318168580572565
27.47806,4.99465394608465,0.12289704691016669
27.480444,5.003642632316208,0.12250142184654329
27.48284,5.010629217801349,0.1221434629681016
27.485232,5.021759774406184,0.12169962662801452
27.487612,5.033961266197658,0.12123346722106722
27.490012,5.0373629590705455,0.12092722835142031
27.4924,5.033687414517546,0.12076039147957617
27.494784,5.037089107390434,0.12045834858571251
27.497184,5.038628469143766,0.12018486811369045
27.499571999999997,5.041238766083736,0.1198907197585661
27.501956,5.042778127837067,0.11962045332037062
27.504352,5.040313288097565,0.1194211636182864
27.506739999999997,5.044274059477893,0.11908299682037968
27.50912,5.048234830858222,0.11874551688607946
27.51152,5.0524751414922715,0.11838873947747136
27.513907999999997,5.0480554228345955,0.11816824675779891
27.516288,5.046708740109976,0.1178897631157533
27.518688,5.052159755557524,0.11750058776640943
27.521072,5.054537735072016,0.11717219586112414
27.523456,5.06264247757204,0.11675756089293172
27.525851999999997,5.079547018990648,0.11620256533481345
27.528243999999997,5.090445258170006,0.11575609238793534
27.530624,5.102414432536002,0.11528443320236192
27.533019999999997,5.110519175036026,0.11487546191749609
27.535404,5.116621816789632,0.1145013226922372
27.537788,5.125238415968852,0.11410577407180025
27.540184,5.136648511827408,0.11367276352352483
27.542572,5.140841600633214,0.11337686425579063
27.544948,5.145965854998798,0.11307015431834368
27.547348,5.147877303804467,0.11283018480532289
27.549732,5.149928522236997,0.11258076423526509
27.552116,5.157986042908777,0.11223149432184439
27.554511999999995,5.162690988393782,0.11195794020327242
27.5569,5.166324998692146,0.11170565199094279
27.559279999999998,5.168608534550154,0.11149401336629523
27.561676,5.173685567087496,0.11124604981008038
27.564063999999995,5.177971203691919,0.11100135150766093
27.566444,5.181605213990284,0.11075097314665606
27.568844,5.18537899391551,0.11049138590470518
27.571231999999995,5.185148572347901,0.11029640066568908
27.573628,5.182264423727819,0.11012728173400621
27.576024,5.181522145481013,0.10991705076578567
27.578412,5.183713133540402,0.10966561257508943
27.580791999999995,5.187766452719348,0.10939322555252073
27.583188,5.190748836711656,0.10913950726866195
27.585576,5.1960128607041005,0.10883605350537781
27.587956,5.194339416897517,0.10863459835527645
27.590356,5.196949713837487,0.10835018921392449
27.59274,5.198489075590818,0.10808717673521576
27.595119999999994,5.200819833277069,0.10782238055474419
27.59752,5.199937785403403,0.1076180292777566
27.599908,5.192909665663627,0.10751805741086898
27.602287999999994,5.190025517043544,0.10734583330163953
27.604688,5.189003699543018,0.10715198749631563
27.607076,5.1902635220426285,0.10690819429018011
27.609455999999994,5.191802883795959,0.10664576057819006
27.61186,5.191060605549154,0.10643254984099744
27.614248,5.18924739211571,0.1062399466988371
27.616632,5.185571847562709,0.1060678744933697
27.619028,5.187111209316041,0.10580601815151644
27.621416,5.182364729576401,0.10565347906694922
27.623796,5.174265674649986,0.10556995895204214
27.626192,5.163373123044235,0.10551710059750424
27.628584,5.151549405878707,0.10547365795602485
27.630964,5.144940595019511,0.10534080067875107
27.633356,5.138471553787175,0.10519840131713273
27.635743999999995,5.1402904547942265,0.10491808305334312
27.63814,5.140898650987781,0.10466746799153089
27.640536,5.142577782367973,0.10439831745987586
27.642923999999997,5.146678323375162,0.10407397521230435
27.645304,5.160137741808377,0.10360178901211414
27.647704,5.17587880024173,0.10307831843279996
27.650088,5.183890994943135,0.10265026500264506
27.652468,5.188038757778568,0.10226885539643699
27.654867999999997,5.188042549494305,0.1019533762265358
27.657256,5.1866958667696865,0.10167532279987776
27.65964,5.186420119231704,0.10137670962447931
27.662035999999997,5.1862841413205825,0.10106909911711061
27.664424,5.187870724902157,0.10075063689445268
27.666808,5.185173567737177,0.10050938072835583
27.669203999999997,5.1844785113186145,0.10023677032150419
27.671592,5.188998361206385,0.09987702606454177
27.673972,5.192447275907516,0.09953494126680087
27.676371999999997,5.1957564209817875,0.09920283654522433
27.67876,5.194921594936365,0.09893949797725198
27.68114,5.1900825673981075,0.09873265765443391
