Time,Force,Position
30.720924,0.11246577283590538,0.0
30.723312,0.10436877637628862,0.0
30.725696,0.09920504622286705,0.0
30.728092,0.09697458237564065,0.0
30.730476,0.09460434890155404,0.0
30.732876,0.09409644654702407,0.0
30.735271999999995,0.0905155082594387,0.0
30.73766,0.08451316034485588,0.0
30.74004,0.0774398772436345,0.0
30.742439999999995,0.06808495414227587,0.0
30.744828,0.05793863510799914,0.0
30.747208,0.048583712006640495,0.0
30.749607999999995,0.036015983345366265,0.0
30.751996,0.023448254684092028,0.0
30.754376,0.013022396396094862,0.0
30.756772,0.005809343668013283,0.0
30.759159999999994,0.002181183552184778,0.0
30.761544,0.0005551241827731236,0.0
30.76394,0.0,0.0
30.766327999999994,0.0,0.0
30.768712,0.0,0.0
30.771108,0.0,0.0
30.773495999999994,0.0,0.0
30.77588,0.0,0.0
30.778276,0.0004153545559129131,0.0
30.780663999999994,0.0016221050447439364,0.0
30.783048,0.0036202514664930695,0.0
30.785447999999995,0.0053388586345217825,0.0
30.787836,0.006126300242772175,0.0
30.790215999999997,0.006126300242772175,0.0
30.792615999999995,0.006126300242772175,0.0
30.795004,0.006126300242772175,0.0
30.797383999999997,0.006126300242772175,0.0
30.799783999999995,0.006126300242772175,0.0
30.802172,0.006126300242772175,0.0
30.804551999999997,0.006126300242772175,0.0
30.806951999999995,0.006126300242772175,0.0
30.80934,0.006126300242772175,0.0
30.811724,0.006126300242772175,0.0
30.81412,0.006126300242772175,0.0
30.816508,0.006126300242772176,0.0
30.818892,0.006126300242772176,0.0
30.821292,0.006126300242772176,0.0
30.82368,0.007984677037661099,0.0
30.82606,0.01035886483641543,0.0
30.828456,0.01194165670225165,0.0
30.830848,0.013664218194948077,0.0
30.833228,0.01780818931464199,0.0
30.835624,0.021952160434335902,0.0
30.838012,0.024601933162142937,0.0
30.840396,0.0283226410765885,0.0
30.842796,0.032183118617894274,0.0
30.845184,0.03418126503964341,0.0
30.847567999999995,0.0389729081407275,0.0
30.849964,0.0437645512418116,0.0
30.852352,0.04669386322333906,0.0
30.854732,0.04962317520486651,0.0
30.857132,0.053343883119312076,0.0
30.85952,0.058926922153314285,0.0
30.8619,0.0614369252542611,0.0
30.8643,0.06180505798193087,0.0
30.866688,0.06310435626937895,0.0
30.869068,0.06310435626937895,0.0
30.871468,0.06124597947449004,0.0
30.873856,0.0584564371198228,0.0
30.87624,0.05566689476515555,0.0
30.878643999999998,0.05194618685070998,0.0
30.881035999999995,0.046083608562987356,0.0
30.883416,0.041152195835043044,0.0
30.885816,0.04157150471562368,0.0
30.888203999999995,0.04385314471576095,0.0
30.890587999999997,0.0458552454621778,0.0
30.892984,0.04850897251465255,0.0
30.895371999999995,0.04757780695487423,0.0
30.897755999999998,0.04678641102195612,0.0
30.900152,0.04971967732815129,0.0
30.902539999999995,0.050790612514789814,0.0
30.90492,0.05335179176864751,0.0
30.907315999999994,0.053119474343170235,0.0
30.909704,0.056891358410526664,0.0
30.912088,0.06387604803779869,0.0
30.914483999999995,0.06899840654551406,0.0
30.916872,0.07420935852717879,0.0
30.919256,0.08021170644176163,0.0
30.921656,0.08621405435634447,0.0
30.924043999999995,0.09207663264406708,0.0
30.926427999999994,0.10022085093192698,0.0
30.928828,0.11036716996620373,0.0
30.931211999999995,0.11851138825406364,0.0
30.933592,0.11944255381384197,0.0
30.935996,0.11357602120145162,0.0
30.938384,0.107713442913729,0.0
30.940763999999994,0.10505971586125425,0.0
30.943168,0.10412855030147593,0.0
30.945556,0.10105551436842056,0.0
30.947936,0.09519293608069793,0.0
30.950336,0.09184036089392213,0.0
30.952724,0.08555847372561887,0.0
30.955104,0.08020775211709393,0.0
30.957504,0.07392586494879068,0.0
30.959892,0.0665730425938489,0.0
30.962272,0.062149532220434546,0.0
30.964672,0.06308069778021287,0.0
30.96706,0.06135813628751644,0.0
30.969444,0.06070650998145853,0.0
30.97184,0.06140535811575958,0.0
30.974228,0.059403257369342745,0.0
30.976608,0.054328120689870515,0.0
30.979008,0.04925298401039827,0.0
30.981396,0.047530422517701836,0.0
30.98378,0.05153462401053554,0.0
30.986176,0.05702511524592069,0.0
30.988564,0.05744442412650131,0.0
30.990948,0.058003502633942154,0.0
30.993344,0.06442911375377335,0.0
30.995732,0.07192170573557535,0.0
30.998116,0.07797522980306903,0.0
31.000516,0.08574736103859147,0.0
31.002903999999997,0.09202924820689473,0.0
31.005288,0.09817136574833779,0.0
31.007684,0.10617581440933747,0.0
31.010071999999997,0.10724674959597601,0.0
31.012452,0.1032425481031423,0.0
31.014848,0.10296300884942187,0.0
31.017236,0.10268346959570145,0.0
31.019616,0.09718902403564857,0.0
31.022012,0.0910469064942055,0.0
31.0244,0.085975724139401,0.0
31.026779999999995,0.08290664253101333,0.0
31.02918,0.08355826883707124,0.0
31.031568,0.08327872958335081,0.0
31.033947999999995,0.07950684551599438,0.0
31.036348,0.08108963738183061,0.0
31.038736,0.08174126368788852,0.0
31.041115999999995,0.07438844133294673,0.0
31.043516,0.06689584935114473,0.0
31.045904,0.06019465330226085,0.0
31.048283999999995,0.05242252206673843,0.0
31.05068,0.04614063489843518,0.0
31.053068,0.039998517356992135,0.0
31.055451999999995,0.031994068695992445,0.0
31.057848,0.028924987087604777,0.0
31.060236,0.026787071038995434,0.0
31.062619999999995,0.022786823870829448,0.0
31.065016,0.017715641516024935,0.0
31.067404,0.016648660654054123,0.0
31.069788,0.016648660654054123,0.0
31.072184,0.016648660654054123,0.0
31.074572,0.016648660654054123,0.0
31.076956,0.013719348672526669,0.0
31.079352,0.009858871131220893,0.0
31.08174,0.00814026396319218,0.0
31.084124,0.004140016795026195,0.0
31.08652,0.0,0.0
31.088908,0.0,0.0
31.091292,0.0,0.0
31.093688,0.0,0.0
31.096076,0.0,0.0
31.09846,0.0,0.0
31.10086,0.0,0.0
31.103244,0.0,0.0
31.105628,0.0028329724671719105,0.0
31.108024,0.009808020196168485,0.0
31.110412,0.025860510239601755,0.0
31.112792,0.04856903297047424,0.0
31.115192,0.07965614988148237,0.0
31.11758,0.11753906910678993,0.0
31.11996,0.16473174807201144,0.008589697264693512
31.122356,0.22551792752370103,0.016332753340391793
31.124744,0.2968245715288033,0.023803154451579694
31.127128,0.37422816971390394,0.031481341034663275
31.129528,0.45707709577294514,0.03933055458982271
31.131916,0.547652989706064,0.04712090999885772
31.1343,0.6440935203937038,0.05496483130945227
31.136696,0.7493319541420601,0.06268364346800132
31.139084,0.8570824494581616,0.0706957189981858
31.141464,0.9709771207825048,0.07869206522258107
31.143864,1.0920869033017278,0.08660803699246976
31.146248,1.2181773788439367,0.09448435155114986
31.148632,1.3478055251701557,0.10233729728035443
31.151028,1.4804594856011868,0.11014285579700402
31.153416,1.6101407039381859,0.11796954175090633
31.1558,1.734888451080442,0.12581332664818984
31.158196,1.8486964247887054,0.13373520892226584
31.160584,1.9574783795036086,0.1415108956569959
31.162968,2.0575096529860386,0.1492394908266518
31.165364,2.1520955985945283,0.15686745552413886
31.167752,2.2351373662912097,0.15593267663403318
31.170136,2.3023512153295287,0.1558724336377189
31.172532,2.356670412015681,0.15613591297052717
31.17492,2.4057312722829964,0.15605925343185298
31.177299999999995,2.4499058831838116,0.15572430221678443
31.179696,2.4844911950909934,0.15552433562322254
31.182088,2.511349539124096,0.15534922926281838
31.184467999999995,2.5287583537904257,0.15529390628872708
31.186864,2.547007682075785,0.1547403331483062
31.189252,2.5580418991662643,0.15426222967015185
31.191632,2.562652400994782,0.15384852693214401
31.194032,2.567077807226066,0.15327127502851862
31.19642,2.568756938606257,0.15270341891562528
31.1988,2.5669909470010563,0.1522454524637194
31.2012,2.5661561209556334,0.15175213335666443
31.203588,2.5698373530822427,0.15110595576712835
31.205972,2.575380916328408,0.1503816808007997
31.208368,2.579434235507354,0.14978357307148743
31.210756,2.581066145059302,0.14933313369246873
31.21314,2.582558284984391,0.14890870510658244
31.215536,2.5864246127082335,0.14843707284267751
31.217924,2.5925253586039707,0.14793754587397637
31.220308,2.603281932298599,0.14726193670199708
31.222704,2.617623398605481,0.14649969912034919
31.225092,2.629543455285365,0.14588425441732591
31.227476,2.6429537560324685,0.14514576997362102
31.229876,2.6585059271528486,0.14429045286608447
31.232264,2.674989263833007,0.14340220932690387
31.234648,2.686537233460553,0.14273960307769937
31.237055999999995,2.700506612715097,0.14193035244924543
31.239444,2.7147555312233616,0.1410894892142374
31.241828,2.7234174563729563,0.14046138935845365
31.244224,2.7324986904031308,0.13978129563581276
31.246612,2.741347607007829,0.13902906419205688
31.248996,2.747263257306332,0.1383861039594588
31.251392,2.751596115738998,0.1377838572726993
31.25378,2.756860139731443,0.13715382608856144
31.256164,2.7618446244701675,0.13656251448290554
31.258564,2.7728354114481424,0.13573435630321448
31.260952,2.7804736232393417,0.13507097724313022
31.263327999999994,2.7871806694707626,0.13443661308683055
31.265728,2.795098420515682,0.1337380795537883
31.268111999999995,2.8030161715606017,0.13305745063237412
31.270492,2.803577145925912,0.1326928353150913
31.272892,2.807490695477998,0.13216893703460292
31.275279999999995,2.810984936149503,0.13169971883479434
31.27766,2.815410342380787,0.13120670589046501
31.280055999999995,2.812898280813042,0.13095806046633515
31.282444,2.8099669103647154,0.13076534995210737
31.284828,2.8048936695431124,0.13066913843297187
31.287228,2.798237636855674,0.13059070146597976
31.289615999999995,2.792652539354873,0.13046335199046413
31.291996,2.7832030099880987,0.13047037772473918
31.294391999999995,2.7736137109944643,0.13049695854841734
31.29678,2.768727461627965,0.1302699692448206
31.29916,2.757043514089296,0.13028583706985825
31.301556,2.74484770987143,0.13026801103607347
31.303943999999998,2.7341421497207827,0.1301410750062329
31.306328,2.72022378401022,0.13015040876520806
31.308727999999995,2.710868698299932,0.12993339900566922
31.311116,2.7055178140824783,0.12956926144866326
31.3135,2.700027160238164,0.12922461940919852
31.315895999999995,2.688250664900879,0.12913099942767098
31.318284,2.6784762703100102,0.1289678452936989
31.320668,2.667351401278783,0.12888477830025807
31.323068,2.6570179281804736,0.1287939444914368
31.325456,2.646684455082164,0.12869910308279844
31.327839999999995,2.6491549823952742,0.12817023348770654
31.330236,2.6537673800816615,0.12754648481940217
31.332624,2.659310943327827,0.12689488420336625
31.335007999999995,2.66564590250691,0.12623669104243507
31.337404,2.6690475953797983,0.12567125036873286
31.339796,2.6773846553052985,0.1249347262270494
31.342175999999995,2.6906570822834106,0.12404505203964662
31.344572,2.7013683300076647,0.12331390198625732
31.34696,2.721019146277365,0.12228289021716222
31.34934,2.738388322546928,0.12135399167950739
31.351735999999995,2.7525446932565756,0.12055719793952344
31.354124,2.7669806032199435,0.11972574206527074
31.356508,2.781416513183312,0.11892141487413123
31.358903999999995,2.7898461209074292,0.11831603901528621
31.361292,2.7946908360192935,0.11778299471368293
31.363671999999998,2.805821392624128,0.11701238690432583
31.366072,2.8180228844156017,0.11619703933388764
31.36846,2.8303641458339355,0.11536697553678739
31.370839999999998,2.843916112065768,0.11448324423510756
31.37324,2.855465977551184,0.11366806294836282
31.375628,2.861149310424209,0.11304674212561241
31.378012,2.8692540529242323,0.11232257819799352
31.380408,2.876567399491338,0.11160149611264299
31.3828,2.879876544565609,0.11099086611871235
31.385183999999995,2.885187790386297,0.11031146691507347
31.38758,2.888217396206848,0.10973474287522578
31.389968,2.883378368668591,0.10937921224972004
31.392351999999995,2.87588561407786,0.10906679837314705
31.394748,2.8651800539272134,0.10886789416467582
31.397136,2.8555454289632047,0.10863068287946812
31.399519999999995,2.8460505736260564,0.1083748289831611
31.401916,2.837347114221826,0.10811479007524177
31.404304,2.822218043697765,0.10808527570420148
31.406684,2.809882469853039,0.10799517289546713
31.409084,2.8002006230607877,0.10785861119230342
31.411472,2.788516675522119,0.10777821824721703
31.413856,2.7781832024238104,0.10761992042636838
31.416252,2.767570190071781,0.10749600648054994
31.41864,2.7569571777197504,0.10736897716491979
31.421024,2.7463441653677214,0.1072413825369563
31.42342,2.7303764770824994,0.10730911147060371
31.425808,2.7098455087970024,0.10756219081850178
31.428192,2.6910371020042017,0.10778841305043514
31.430588,2.6779554581969314,0.10787755130851816
31.432976,2.666456606255497,0.10796066863812671
31.43536,2.656168459127561,0.10798545801924343
31.437756,2.651886614238876,0.10783692540329928
31.440144,2.6534713019625817,0.10753456293784673
31.442528,2.650260392260535,0.10734645111250267
31.444924,2.647049482558489,0.10715727612209056
31.447312,2.647703004722416,0.10687048695484841
31.449696,2.645563030207008,0.10664236774895249
31.452092,2.6506400627443494,0.10618343078058622
31.45448,2.6562761737891316,0.10565417237986673
31.456864,2.659630644833777,0.10521461902851678
31.45926,2.66363674218448,0.10479451850155604
31.461648,2.664802121027605,0.10454134131985245
31.464032,2.6639653991243133,0.10434413311635356
31.466428,2.660986806847744,0.10422310013926417
31.468816,2.6580082145711748,0.10410137583537799
31.4712,2.661315463787577,0.10376211710012959
31.4736,2.6687666841236726,0.10328501226405329
31.475987999999997,2.6742158037133508,0.10286833072221765
31.478368,2.6767316569968345,0.10253333512568102
31.480768,2.6795270495340393,0.10216493844905378
31.483155999999997,2.680320341324826,0.10185506527746005
31.48554,2.678692223488616,0.10165871213112675
31.487936,2.6759931704657682,0.10150090525173433
31.490323999999998,2.6780897148686713,0.1012321583755402
31.492708,2.684050691137548,0.10087685788652279
31.495104,2.688940732219786,0.10056286217383201
31.497491999999998,2.695832874048441,0.10019511207865987
31.499876,2.6945768432645685,0.10005345495307144
31.502275999999995,2.6935531299061726,0.09998265376714095
31.504664,2.6969529269211914,0.09975560327335857
31.507044,2.6994215583764323,0.09954658287396428
31.509443999999995,2.7016578724061957,0.09926374174131193
31.511835999999995,2.7080381575556527,0.09885848465503577
31.514216,2.7174914786381654,0.09836940488864582
31.516616,2.7305296923329316,0.09783512888080108
31.519003999999995,2.747292568266811,0.09725577065735119
31.521392,2.760051242707856,0.09677699537161863
31.523788,2.775882953081956,0.09622148510216551
31.52618,2.7927855986426953,0.0956316724393199
31.52856,2.809268935322854,0.09509930209969863
31.53096,2.827474833495709,0.09455389201703314
31.533348,2.845029105362506,0.09398762138487635
31.53574,2.857368470922971,0.09356447371291503
31.538135999999994,2.8675659661101585,0.09320622512709056
31.540524,2.8746904253642906,0.09293326552065442
31.542911999999998,2.8786020790585076,0.0927542339302039
31.545312,2.881163258312365,0.0926401470276937
31.5477,2.894805876484946,0.09226124571703771
31.550084,2.905794767605051,0.09190853593777375
31.552484,2.91450201872502,0.09164117161338112
31.554872,2.9205555427925134,0.09139893612082088
31.55726,2.9312648946588986,0.09108598962156221
31.559659999999997,2.938901210592228,0.09085276704330027
31.562051999999998,2.9434644905925036,0.09069742143329966
31.56444,2.944442877980525,0.09058364796536426
31.566855999999994,2.938763336823238,0.09058238943716859
31.569247999999995,2.938019162718563,0.09048156258933024
31.571644,2.934062183053973,0.09046830298549359
31.574044,2.929965433762522,0.09047069602584686
31.576435999999998,2.921352626299039,0.09052527696781039
31.578835999999995,2.9099463221562223,0.09062121731613161
31.581236,2.9005421187598213,0.09067220538883494
31.583628,2.8911379153634216,0.09072917520858981
31.586023999999995,2.88308418640738,0.09072241435710575
31.588428,2.8761013926379775,0.09068431893264368
31.590816,2.871540008495572,0.0905519607674565
31.593211999999998,2.869120494726444,0.09035805133953143
31.595608,2.8604151394643447,0.0903288369119622
31.597995999999995,2.8547828201353007,0.0902261955499684
31.600396,2.84714840005984,0.09016741844680337
31.602791999999997,2.844961203716189,0.0900426889127184
31.605191999999995,2.838630036252844,0.0900206452563671
31.607588,2.8343009695359167,0.08995539416581576
31.60998,2.831182607632487,0.08984403159462045
31.612376,2.827924476102197,0.08974839602386772
31.614776,2.8265286756914647,0.08962518662400812
31.617163999999995,2.8199179689743996,0.08963458416527184
31.619564,2.812655635951276,0.08962570378768422
31.621964,2.8066040077416523,0.0895694005700786
31.624356,2.8074898473310563,0.08936945434199303
31.626735999999998,2.8133110539730724,0.08907194044721846
31.629135999999995,2.8168506206149515,0.08885009888200353
31.631524,2.8268157983766624,0.08845292426038034
31.633908,2.8365014368846517,0.08808981149278347
31.636308,2.8463268450195023,0.08771596519397959
31.6387,2.8580145842739086,0.0873237598068516
31.641084,2.868631388341677,0.0869620925615374
31.643484,2.8785965661033877,0.08657917456839688
31.645875999999998,2.8864198734918207,0.08625355476948506
31.648256,2.899458087186586,0.08580786094985174
31.650648,2.9099823434557375,0.08537325596002789
31.653036,2.920646369351749,0.08491855463154828
31.655415999999995,2.930239460061122,0.08449378379169109
31.657827999999995,2.9384820763301356,0.08412668876388944
31.660216,2.9496579589053447,0.0837115612111382
31.662596,2.958552201480417,0.08336276659492986
31.664992,2.9700076233093466,0.08290881626423133
31.667379999999994,2.985187707377389,0.08240953240263077
31.66976,3.00129895700521,0.0819096190207739
31.672155999999998,3.0132662355133375,0.08150772381748686
31.674544,3.0204379165957125,0.08117882365661455
31.676924,3.0278891369318086,0.08081646629095153
31.679331999999995,3.0311963861482107,0.08054701064340611
31.68172,3.035574570551251,0.08025335143906773
31.6841,3.038881819767653,0.07998695272723838
31.686496,3.039116033050999,0.07978168272450832
31.688883999999995,3.0377674544685096,0.07956495658953212
31.691264,3.0422854084984103,0.07926447305799994
31.693659999999998,3.0488054632747277,0.07893066543660412
31.696048,3.0513213165582114,0.07866691179716424
31.698432,3.0527662346550564,0.07842667399379764
31.700827999999994,3.057423958311817,0.07811755907140476
31.703212,3.0614300556625205,0.07778767975629676
31.705596,3.0657156922669433,0.07742616526367839
31.707992,3.070420637751948,0.07702796421129313
31.710376,3.077546992863949,0.07655179693322385
31.71276,3.084533578349091,0.07609285775438429
31.715156,3.0877955015951186,0.07566790540841994
31.71754,3.0881241585349515,0.07528371676755727
31.719924,3.0916656210346996,0.07483496531945087
31.72232,3.093856609094089,0.07443025974461405
31.724708,3.0989808634596736,0.0739894521652476
31.727092,3.106107218571675,0.07351991871564897
31.729488,3.1105798466312016,0.07305918860693554
31.731876,3.11412130913095,0.07260544864178924
31.73426,3.1187337068173377,0.07212850175906513
31.736656,3.126930997115977,0.0716371102840326
31.739044,3.1232554525629763,0.07130596159721801
31.741428,3.1197196776368363,0.07096221590158681
31.743824,3.1200483345766687,0.07057790030303024
31.746212,3.120376991516501,0.07019163073297269
31.748596,3.119494943642835,0.0698445492398583
31.750992,3.1195440613289476,0.06949030481567375
31.75338,3.1214555101346173,0.06912332632948125
31.755759999999995,3.1188036789400115,0.06886686375527738
31.758156,3.12015604923824,0.06856151954933139
31.760544,3.121228880282748,0.06828411385892216
31.762927999999995,3.1241640424468122,0.06799351443693204
31.765324,3.128961535730434,0.06769172340527346
31.767712,3.1316171586407773,0.06743181944777482
31.770092,3.1405586230440923,0.06707024822475019
31.772492,3.1467065907680722,0.06672824069425684
31.77488,3.152575019238332,0.06641618597574853
31.77726,3.160957405134206,0.0661153131214883
31.779656,3.167989316589721,0.06585714134538814
31.782044,3.173950292858597,0.06561748235811742
31.784428,3.178048938007917,0.06539043361709032
31.786824,3.1930892524491,0.0650354415414095
31.789212,3.207058631703644,0.0647028834527382
31.791591999999994,3.217023809465354,0.06442099334993108
31.793988,3.2277803831599825,0.06414727615182976
