Time,Force,Position
29.740064,0.022907608203721428,0.0
29.742467999999995,0.022131860169950886,0.0
29.744851999999995,0.019214241762903282,0.0
29.74724,0.013083817795940086,0.0
29.749635999999995,0.00681362420211668,0.0
29.752024,0.0014745961680715934,0.0
29.754408,0.0006832002351534828,0.0
29.756808,0.002437335656945496,0.0
29.759196,0.00633334145201457,0.0
29.761579999999995,0.0162356494863342,0.0
29.763976,0.027208892707292362,0.0
29.766364,0.03925307111488904,0.0
29.76876,0.0534391198957628,0.0
29.771168,0.06748539904977634,0.0
29.773556,0.08046074301715134,0.0
29.775952,0.09171352549182993,0.0
29.778348,0.10003304166031333,0.0
29.780736,0.10555906114946179,0.0
29.783131999999995,0.11029368470569212,0.0
29.785528,0.11516807788878267,0.0
29.787916,0.11883176625837447,0.0
29.790312,0.1227749938816867,0.0
29.792708,0.12671822150499892,0.0
29.7951,0.12744864356839555,0.0
29.797495999999995,0.12744864356839555,0.0
29.799896,0.12744864356839555,0.0
29.802284,0.12676544333324208,0.0
29.80468,0.12501130791145007,0.0
29.807084,0.121115302116381,0.0
29.809472,0.11121299408206137,0.0
29.811868,0.1002397508611032,0.0
29.814263999999994,0.08819557245350651,0.0
29.81666,0.07400952367263276,0.0
29.819056,0.05996324451861923,0.0
29.821444,0.04698790055124422,0.0
29.82384,0.03573511807656563,0.0
29.826235999999994,0.027415601908082225,0.0
29.828624,0.025785588214002852,0.0
29.831024,0.02480720082598138,0.0
29.83342,0.025551374930656335,0.0
29.835808,0.026714857915911924,0.0
29.8382,0.023454830527753184,0.0
29.840596,0.01951160290444096,0.0
29.842984,0.018781180841044322,0.0
29.845364,0.018781180841044322,0.0
29.84776,0.018781180841044322,0.0
29.850148,0.018781180841044322,0.0
29.852528,0.018781180841044322,0.0
29.854932,0.018781180841044322,0.0
29.857319999999994,0.018781180841044322,0.0
29.8597,0.018781180841044322,0.0
29.8621,0.018905302568756964,0.0
29.864487999999994,0.018905302568756967,0.0
29.866868,0.018905302568756967,0.0
29.869268,0.018905302568756967,0.0
29.871652,0.018905302568756967,0.0
29.874036,0.018905302568756967,0.0
29.876432,0.015009296773687893,0.0
29.87882,0.011253060605479029,0.0
29.8812,0.005634493317713521,0.0
29.8836,0.000807321962866125,0.0
29.885988,0.00012412172771264217,0.0
29.888372,0.00012412172771264217,0.0
29.890764,0.00012412172771264217,0.0
29.893152,0.00012412172771264217,0.0
29.895536,0.001458948268924025,0.0
29.897935999999994,0.00493564518341247,0.0
29.900324,0.011485378030956294,0.0
29.902704,0.019106046065138653,0.0
29.9051,0.023793447793125835,0.0
29.907488,0.02927224545403113,0.0
29.909884,0.03476669101408399,0.0
29.91228,0.0403852583018495,0.0
29.914668,0.047074760776253534,0.0
29.917052,0.0474784217576866,0.0
29.919448,0.050815349045314824,0.0
29.921836,0.051870636332805795,0.0
29.92422,0.05199475806051844,0.0
29.926616,0.05199475806051844,0.0
29.929004,0.05199475806051844,0.0
29.931388,0.05199475806051844,0.0
29.933784,0.05199475806051844,0.0
29.936172,0.051994758060518446,0.0
29.938556,0.0530500453480094,0.0
29.94096,0.05305004534800941,0.0
29.943348,0.051715218806798025,0.0
29.945727999999995,0.04823852189230959,0.0
29.948124,0.04168878904476576,0.0
29.950512,0.0340681210105834,0.0
29.952896,0.029380719282596213,0.0
29.955292,0.023901921621690917,0.0
29.95768,0.01828335433392541,0.0
29.960064,0.0126647870461599,0.0
29.96246,0.005975284571755866,0.0
29.964852,0.005835514944895655,0.0
29.967232,0.0024985876572674198,0.0
29.969632,0.0014433003697764569,0.0
29.972016,0.0013191786420638147,0.0
29.9744,0.001319178642063815,0.0
29.976796,0.001319178642063815,0.0
29.979184,0.001319178642063815,0.0
29.981564,0.001319178642063815,0.0
29.983964,0.001319178642063815,0.0
29.986352,0.0002638913545728523,0.0
29.988732,0.0002638913545728523,0.0
29.991132,0.0002638913545728523,0.0
29.99352,0.0002638913545728523,0.0
29.9959,0.0002638913545728523,0.0
29.9983,0.0002638913545728523,0.0
30.000684,0.00026389135457285235,0.0
30.003068,0.00026389135457285235,0.0
30.005464,0.00026389135457285235,0.0
30.007852,0.00026389135457285235,0.0
30.010236,0.00026389135457285235,0.0
30.012632,0.0,0.0
30.01502,0.0,0.0
30.017399999999995,0.0,0.0
30.0198,0.0,0.0
30.022188,0.0,0.0
30.024567999999995,0.0,0.0
30.026964,0.0,0.0
30.029356,0.0,0.0
30.031735999999995,0.0,0.0
30.034132,0.0021734443023726444,0.0
30.03652,0.00634898935116214,0.0
30.038903999999995,0.011268708504626595,0.0
30.0413,0.02023795512129866,0.0
30.043688,0.034699751440154344,0.0
30.046071999999995,0.054514327834333444,0.0
30.048472,0.08154401542339258,0.0
30.05086,0.11164484308763786,0.0
30.053239999999995,0.14882101231990297,0.0
30.05564,0.19093065274691084,0.007578775254423933
30.058032,0.235459806943047,0.015610450213235129
30.060412,0.2892061730804801,0.023208384257698035
30.062812,0.3470946144797378,0.03103447517214599
30.0652,0.4071230303944033,0.039279933595422936
30.06758,0.472364456757532,0.04755941144126531
30.069976,0.5418877280093457,0.055947036026522096
30.072364,0.6098263115374537,0.06501588532060606
30.074748,0.6801844088346901,0.07432013020883321
30.077144,0.7564543647146909,0.08338383779148782
30.079532,0.8374254743639571,0.09238868680295725
30.081916,0.9227866245996726,0.10120168951507744
30.084316,1.0059114608056248,0.11038308310625768
30.086704,1.0911781673848542,0.1194833807627475
30.089084,1.175188843180211,0.12838231552188498
30.091484,1.2559886092735213,0.13706117916752208
30.093872,1.3307839689854504,0.14574009549036995
30.096252,1.3978523608233016,0.1543880150484553
30.098656,1.464690331093545,0.16270519728121127
30.101043999999995,1.5239411031165706,0.170990211200814
30.103424,1.579748648012073,0.17152335938944266
30.105819999999994,1.6334162183921672,0.17154571376825375
30.108208,1.673070979405213,0.1723140930845847
30.110588,1.7077922692235157,0.1728832474748137
30.112987999999994,1.7445175556461048,0.17271280016564142
30.115376,1.776449140500811,0.1724207366874998
30.117756,1.802376318974136,0.17209998281663036
30.120152,1.829608645917446,0.17115760666682828
30.12254,1.8533505239049894,0.17006674939536948
30.124924,1.8690386729364916,0.1693963315596465
30.12732,1.8777440281985907,0.1690056844179014
30.129708,1.8800256681987277,0.16877445392572102
30.132088,1.88347268704199,0.16811138093871833
30.134484,1.8880378629001342,0.16722761947519713
30.136876,1.8906009380118611,0.16651841783008445
30.139256,1.8896716683099517,0.16614695409011798
30.141652,1.8893940249141008,0.16577543767294076
30.144044,1.8899077774511674,0.16537425272369305
30.146424,1.8883722074135743,0.16527671224908586
30.14882,1.8876280333088993,0.16515161017812846
30.151208,1.8876752551371425,0.16500281146030646
30.153592,1.8874429377116653,0.16491190684791468
30.155988,1.8952190232718555,0.1642714005220694
30.158376,1.9049972095784622,0.16349903896852408
30.160756,1.9119818992057345,0.16291978756210496
30.163152,1.9225514814452596,0.16220073892870593
30.16554,1.9349833948043413,0.16137697864331663
30.167924,1.9531892929771963,0.1601506516124072
30.17032,1.9733972918964684,0.1588007355298599
30.172708,1.9976094923085737,0.1571993319540744
30.175087999999995,2.0271763686538717,0.1552295013011188
30.177488,2.0543218353721726,0.1534273600931007
30.179876,2.0836091724637504,0.15154244186810414
30.182255999999995,2.1066106680623573,0.15009344625697207
30.184652,2.1257477317949904,0.14882398612641173
30.18704,2.146095500341123,0.14743685920420557
30.189423999999995,2.167653973700754,0.14596721633128576
30.191824,2.1906554692993607,0.14451059289153784
30.194208,2.2130053385919095,0.14305849171522564
30.196588,2.2347961293770178,0.14171131533173417
30.198988,2.2500215394154344,0.14080023105418812
30.201376,2.2664576542673496,0.1398041614280249
30.203772,2.277818632439793,0.13912101938345822
30.206168,2.285035639492542,0.13868374832803018
30.208555999999994,2.2879689057987376,0.13852441059761933
30.21094,2.2850356394925417,0.1386802155559329
30.213336,2.2790293372532915,0.1390260528058508
30.215723999999994,2.2656662583344316,0.1398115128033158
30.218104,2.2487182868033186,0.1407567764941474
30.220504,2.2301875234063693,0.1417162690876812
30.222891999999995,2.205510688143309,0.14304046485722463
30.225276,2.183255262507246,0.14419959848888955
30.227672,2.155505391311131,0.14573893041625982
30.230064,2.1293855338090943,0.1471405793202831
30.232444,2.1094117481731693,0.14815907098040526
30.234843999999995,2.0885067969774656,0.14923258067942205
30.237232,2.066111601714543,0.15044905824678562
30.239612,2.0399917442125064,0.15185929189971578
30.242008,2.0148030522702487,0.15320288515788297
30.244395999999995,1.9898938995817113,0.15450128353273276
30.24678,1.9723415235727833,0.15533406104636277
30.24918,1.9512968027502196,0.15645160226654112
30.251563999999995,1.9338369745399089,0.15741200562527208
30.253948,1.922243678941988,0.1580408623188913
30.256348,1.9166566855833183,0.1583138082841738
30.258731999999995,1.9129320233442049,0.15849900553411567
30.261116,1.9152136633443424,0.15832642684769993
30.263512,1.9182866992773977,0.15812915021956878
30.265899999999995,1.9270864981959834,0.15762288908684624
30.268283999999998,1.9384002545401835,0.1570482379466666
30.27068,1.9538579820040776,0.15619130807168022
30.273067999999995,1.9702468750277495,0.1553003449452791
30.275451999999994,1.9933409184249735,0.15393192008792042
30.277848,2.0169468185013955,0.15259012023953136
30.280235999999995,2.0374796826447614,0.15147874523341542
30.282619999999994,2.061085582721183,0.15019670459826892
30.28502,2.084971022051325,0.14885421204548935
30.287403999999995,2.111789727687662,0.14733165873742662
30.289787999999994,2.136326793323862,0.14597747223400945
30.292184,2.1648680604528954,0.14444541080197004
30.294571999999995,2.1881944212755964,0.1432493033689003
30.296955999999994,2.215944292471712,0.14174377945761893
30.299352,2.2421113718019914,0.14029810633255213
30.301744,2.2654849544529356,0.139019404903967
30.304123999999995,2.2827124652377693,0.13808782847536702
30.30652,2.297798105649326,0.13727034670395594
30.308912,2.310741875687605,0.13661092504804226
30.311296,2.3247565809125232,0.13587954290192247
30.313692,2.336489646137304,0.1353220923219608
30.31608,2.3426357180034154,0.13499589057754402
30.318464,2.3469194587499693,0.13474772500043933
30.32086,2.347990393936608,0.13468510838033118
30.323248,2.3407733868838587,0.1350735945629085
30.325632,2.334767084644608,0.135373280927704
30.328032,2.327829616845579,0.1357136269246614
30.33042,2.318750278673273,0.13616962051175477
30.332804,2.309810710127828,0.1366006187009146
30.3352,2.3019420767690195,0.13696105042387624
30.337592,2.295284148223711,0.13724232632420852
30.339972,2.281688751879374,0.13784708875600013
30.342372,2.2723770962815903,0.13821145146512936
30.34476,2.259852635123892,0.13875018824567042
30.347144,2.247188404339333,0.13931060221012978
30.34956,2.2343844039279137,0.13989264343789737
30.351944,2.22465343944955,0.1403326611124455
30.354327999999995,2.2193459853446003,0.140506139640232
30.356724,2.2172513367995665,0.14049667027978607
30.359112,2.218229724187588,0.14033938817361177
30.361495999999995,2.2205585860159682,0.1400851720758774
30.363892,2.224749778963905,0.1397574011061098
30.36628,2.230803303031399,0.139363003101369
30.368663999999995,2.2451447693382804,0.13858448591600547
30.37106,2.2645613723246343,0.13755036666302028
30.373448,2.2871907808709038,0.13639779705616747
30.375828,2.3128932253502286,0.13511689837897584
30.378236,2.3378042738966354,0.13384138306158894
30.380627999999994,2.35764018576357,0.13275716508157506
30.383008,2.372680500204752,0.1318589528069812
30.385408,2.3898626850192115,0.13086591204286108
30.387795999999994,2.411049071326505,0.12968102908848217
30.390176,2.4311645224471596,0.128581440204922
30.392576,2.4544927791277305,0.12732839513429622
30.394963999999995,2.478100575062021,0.12603709542817776
30.397344,2.5017083709963117,0.12474579572205931
30.399744,2.524385001370825,0.12347881809342093
30.402131999999995,2.5457111573049787,0.1223399628768752
30.404512,2.5568870398801877,0.12163078254613202
30.406907999999994,2.564989886522341,0.12106941496111723
30.409299999999995,2.565875726111746,0.120820083194027
30.41168,2.569694832007345,0.12045969718649564
30.41408,2.574305333835863,0.12009689672848584
30.416467999999995,2.5709074326787125,0.1200525979195565
30.418848,2.5675095315215635,0.12000736797767558
30.421264,2.557965558498303,0.12020287600556358
30.423648,2.546279715101765,0.12048605347162844
30.426032,2.535385267638145,0.12076384757788865
30.428428,2.5346410935334704,0.12065699687570686
30.430816,2.5408343872278243,0.12031025683076389
30.433195999999995,2.543163249056205,0.12008762163286263
30.435592,2.542698614205251,0.11994127992795663
30.437984,2.539440482674961,0.11987128733732096
30.440363999999995,2.533109315211616,0.1199158596016279
30.442775999999995,2.526638378121411,0.11997852511182085
30.445164,2.5163030091652328,0.12016868040978732
30.447544,2.508900906515249,0.12025951741907101
30.449943999999995,2.498845076812791,0.1204079207165651
30.452332,2.494935318976444,0.12032373144058356
30.454712,2.489954625953458,0.1202878267412849
30.457108,2.4911200047965827,0.12000045946315692
30.459495999999994,2.489352117333512,0.11981948779138854
30.461876,2.4849305028179667,0.1197011815410464
30.464272,2.479437953115783,0.11963368619145706
30.46666,2.4700809715476266,0.11970505180721568
30.469044,2.4604444507257495,0.11982810576750604
30.47144,2.4501563035978142,0.11993732717022894
30.473828,2.4389369909101,0.12007907836945567
30.476208,2.4225027719160535,0.12043917243768482
30.478624,2.397268754003422,0.12112885325464405
30.481012,2.3746884631432645,0.12175383285099986
30.483391999999995,2.3536909641489436,0.12237308753917557
30.485788,2.335347192207098,0.12292639041155601
30.488176,2.3163517939591944,0.123475472513619
30.490559999999995,2.298287561271069,0.12398533798923192
30.492956,2.2883715011954706,0.12414156330348898
30.495344,2.2778038148138147,0.12427366171559816
30.497724,2.2700296251114938,0.12432022151867199
30.500119999999995,2.262115665782313,0.12438758573221093
30.502508,2.2566231160801293,0.12431138380101296
30.504892,2.2524810408183042,0.12414194041205183
30.507288,2.2504808359297566,0.12387659878915773
30.509676,2.251274127720544,0.12353309866854423
30.51206,2.256071621004165,0.12303759440826496
30.514456,2.262731445407343,0.12247668962751879
30.516844,2.2687396435044627,0.12188345256461566
30.519224,2.26939316566839,0.12153445536675203
30.521624,2.2721885582055936,0.12107949016259681
30.524012,2.2760548859294367,0.12057452745550529
30.526396,2.2875103077583665,0.11979623438267821
30.528792,2.2972431680945995,0.11905825875892893
30.53118,2.307395337311413,0.11825323625941586
30.533564,2.3126121394756143,0.11763477706700683
30.53596,2.3212740646252095,0.11693942296371944
30.538348,2.326862953841749,0.11638098808263839
30.540727999999994,2.3292390374983722,0.11599857278915326
30.543128,2.3301248770877767,0.11573733501834879
30.545511999999995,2.326075349624569,0.1156665384741535
30.547895999999994,2.3241676925346377,0.11549172338256801
30.550292,2.3181160643250136,0.11550004198255502
30.552679999999995,2.3064302209284766,0.11581423056789
30.55506,2.2946046079050784,0.11614115588711693
30.55746,2.2779833974559294,0.11663689951219597
30.559844,2.2612224173799196,0.11714475946573476
30.562224,2.2495365739833817,0.11743224500687162
30.564623999999995,2.2445086591321526,0.11750637315430487
30.567012,2.2534954495058415,0.11706069614935721
30.569392,2.26234247025267,0.11664487519810639
30.571791999999995,2.2702583254397206,0.11625895762587535
30.574175999999994,2.276032310253494,0.11597236735406169
30.576556,2.2855309573063805,0.11559477155738948
30.578972,2.295960769919045,0.11520011260306702
30.58136,2.3136075895844592,0.11453669161760588
30.58374,2.330323243690095,0.11390908816394255
30.586136,2.3529054304081214,0.11311101196812572
30.588524,2.3713436460064536,0.11245507534975273
30.590903999999995,2.3908527967914246,0.111758023388856
30.5933,2.4180908113083426,0.11083161832866807
30.595688,2.443047185825123,0.11002677774407617
30.598068,2.473730323327433,0.1090642639987493
30.600463999999995,2.5089767408300188,0.10786959919210296
30.602852,2.5440833887057437,0.10671444475092885
30.605236,2.5839856340072207,0.10541346158808285
30.607631999999995,2.622956713748919,0.10414545950437606
30.61002,2.656712887184285,0.10310574317320503
30.612404,2.686884168007398,0.10217023259108374
30.614799999999995,2.707184714725287,0.10155613224558586
30.617188,2.728276657376094,0.10095360166446436
30.619568,2.75029976558668,0.10033902406031206
30.621964,2.76966914674479,0.09975861766805294
30.624351999999995,2.7841031608502886,0.09931344671654632
30.626736,2.798257635702067,0.09891172457945026
30.629132,2.8091993049939292,0.09862727139947695
30.631519999999995,2.8205602831663725,0.0982961925481246
30.633904,2.8263342679801458,0.09807288415593751
30.6363,2.836391993540473,0.0977084170352719
30.638687999999995,2.8439357616751857,0.09736065050303105
30.641068,2.848034406824506,0.09705378699876369
30.643468,2.8536232960410453,0.09666459369897092
30.645855999999995,2.8544165878318326,0.09637497156575577
30.648236,2.853719635555401,0.09616991718955403
30.650636,2.8502291865996345,0.09601202588016526
30.653023999999995,2.842874305777894,0.09593437043289144
30.655404,2.835798964209874,0.09582219315043125
30.657799999999995,2.8308654930151316,0.09564482900943055
30.660191999999995,2.8239299210739723,0.0955146559762074
30.662572,2.8200673850658684,0.095302620153201
30.664967999999995,2.810617855699094,0.09518524665383052
30.667356,2.7970243552126255,0.09518550996729043
30.66974,2.7854329554725745,0.09513630941061454
30.672135999999995,2.7782650661059374,0.09493368006122893
30.674527999999995,2.768443449686826,0.09476170678205996
30.676908,2.7587616028945745,0.09457185288779826
30.679308,2.7467981161021853,0.09446425870401746
30.681692,2.736696960429353,0.0943238391777113
30.684076,2.7285979055029377,0.09413265721613955
30.686471999999995,2.7231525776289973,0.09391158217987376
30.688863999999995,2.7172879408744763,0.09374081038662156
30.691244,2.7082104985600397,0.09366470151767814
30.693644,2.701414696245741,0.09350639968973594
30.696028,2.696248907625521,0.09324782165235335
30.698412,2.6932249893785776,0.09292421476733247
30.700807999999995,2.695276207811107,0.09247864868895414
30.703199999999995,2.6962564910569977,0.09206380729837782
30.70558,2.700589349489664,0.091550984417319
30.70798,2.7086468701614432,0.09098546534862151
30.710367999999995,2.715773225273445,0.09043829270301583
30.712748,2.7286263433709768,0.08979129273150849
30.715148,2.744971806282144,0.08901251111961728
30.717536,2.7605258732603937,0.08823125623450898
30.719919999999995,2.7716564298652284,0.08759062131635136
30.722316,2.783578382402982,0.08694628859614403
30.724708,2.7975024356871523,0.08626761875095376
30.727087999999995,2.8114264889713225,0.08558304829799566
30.729484,2.8245591463225743,0.08489547334101485
30.731876,2.8326166669943547,0.08432859286979855
30.734255999999995,2.841745122852773,0.08374190141288157
30.736652,2.8499424131514126,0.0831653113207299
30.73904,2.8600020345696096,0.082558842171589
30.74142,2.870713282293864,0.08197911855681397
30.743832,2.878071954831343,0.0815030220501981
30.74622,2.8832887569955448,0.081081795188251
30.748604,2.8815680913607173,0.08079385038523942
30.751,2.881989296099167,0.08044973241016722
30.753388,2.874122558598229,0.0802963779460825
30.755768,2.865464425164373,0.08013728485238433
30.758168,2.8543848821035196,0.0800654813847537
30.760552,2.843584878296386,0.07995846491146359
30.762932,2.8337160400490315,0.07983785558963773
30.765332,2.8226364969881783,0.07975850598972914
30.767716,2.813838593927462,0.07960969110766021
30.770095999999995,2.8082534964266612,0.07938130675464214
30.772496,2.8008060678063034,0.07917280605906382
30.774884,2.7955005095592234,0.07891275308824242
30.777268,2.792988447991478,0.07862452006571675
30.779664,2.796622458289843,0.07822147922376095
30.782052,2.7993253030284304,0.07783287851447312
30.784431999999995,2.804170018140295,0.07739716432784946
