Time,Force,Position
30.401591999999997,0.005914379777553257,0.0
30.403996,0.006948800083702765,0.0
30.406384,0.009054155576490804,0.0
30.408764,0.009054155576490804,0.0
30.411168,0.009054155576490804,0.0
30.413556,0.009054155576490804,0.0
30.415935999999995,0.009054155576490804,0.0
30.418332,0.009054155576490804,0.0
30.42072,0.009054155576490804,0.0
30.423103999999995,0.007135791538806127,0.0
30.4255,0.007135791538806127,0.0
30.427888,0.004426031568203339,0.0
30.430271999999995,0.004426031568203339,0.0
30.432668,0.0054969667548418685,0.0
30.43506,0.008486265979165079,0.0
30.437439999999995,0.010860453777919409,0.0
30.43984,0.015851853748659467,0.0
30.442224,0.0182260415474138,0.0
30.444607999999995,0.022286275958375536,0.0
30.447004,0.024064870369200006,0.0
30.449392,0.024912299220246154,0.0
30.451775999999995,0.02686717813841985,0.0
30.454172,0.03068438817615019,0.0
30.45656,0.03954022001286374,0.0
30.458943999999995,0.04732511666293876,0.0
30.46134,0.05403907812637525,0.0
30.463728,0.061684205149590055,0.0
30.466111999999995,0.07026049773258318,0.0
30.468512,0.07790562475579799,0.0
30.470899999999997,0.08569052140587301,0.0
30.473284,0.09147331730953118,0.0
30.47568,0.09911844433274598,0.0
30.478067999999997,0.10462170098268374,0.0
30.480448,0.10899798952785493,0.0
30.482844,0.112582882140108,0.0
30.485232,0.11574846587178043,0.0
30.487612,0.11612055292411791,0.0
30.490012,0.12063661109614932,0.0
30.492396,0.12608383482795904,0.0
30.49478,0.13395246818676626,0.0
30.497176,0.14261249747849156,0.0
30.499564,0.14992205232985792,0.0
30.501948,0.1533671753152508,0.0
30.504344,0.15294786643467015,0.0
30.506732,0.15588113274086532,0.0
30.509111999999995,0.16002510386055918,0.0
30.511512,0.16524001016689163,0.0
30.5139,0.16952375091344576,0.0
30.516279999999995,0.17473865721977816,0.0
30.51868,0.18405031281756137,0.0
30.521068,0.19904150957263153,0.0
30.523447999999995,0.2139854844994586,0.0
30.525848,0.2351208572627703,0.0
30.528236,0.2568134126756536,0.0
30.53062,0.2800868640965039,0.0
30.533016,0.3085733259658174,0.0
30.535404,0.3459502386944642,0.007329688098833642
30.537788,0.3880736311627504,0.014963277977884663
30.540184,0.43429187706461814,0.022867629599539717
30.542572,0.4903317393855975,0.03062149441406358
30.544956,0.5563329877525488,0.03830128137063557
30.547352,0.6252183847395829,0.04643281845073203
30.549744,0.7029942325859502,0.054580131526509645
30.552124,0.7916626320380676,0.06260072318599749
30.55452,0.8869398423493814,0.07059322215849964
30.556908,0.9920386690798065,0.07849290109781087
30.559292,1.1021635148035918,0.08646041869013389
30.561688,1.222529285827069,0.09430664667511307
30.564076,1.3520650469636004,0.10210344720048846
30.56646,1.4776419325776717,0.11014760217085537
30.568856,1.60331136599036,0.11822784403444828
30.571244,1.732006613507861,0.12628838460111366
30.573628,1.8604695435998841,0.1342886315315496
30.576024,1.993403205893565,0.14216403042878248
30.578412,2.124616202552419,0.15000776225543472
30.580791999999995,2.255179468763084,0.15767777987733306
30.583192,2.3749899529948584,0.15809160320739246
30.58558,2.486469064874741,0.1582113441433976
30.587959999999995,2.5924103010820656,0.1579912335055543
30.59036,2.686947129004443,0.15793094942733718
30.592748,2.772361188642009,0.15785824102265783
30.595127999999995,2.856800652607293,0.15717284861849015
30.597528,2.930487334593687,0.15655936172438678
30.599915999999997,2.990487968294995,0.1561943553497272
30.6023,3.040015359271134,0.15588466484379368
30.604696,3.0809318386416606,0.15558321289141205
30.607083999999997,3.113889032712631,0.15524497372465842
30.609464,3.1338118048045756,0.1551234440481812
30.611864,3.1437731908505473,0.1550655952324041
30.614251999999997,3.1563901998068626,0.15464634653486817
30.616632,3.1672393213001087,0.1541114866891901
30.619032,3.174458224210727,0.15353122121611257
30.621419999999997,3.176509442643256,0.1530939399601798
30.6238,3.1755348469709737,0.1527036922121702
30.6262,3.1782849135378037,0.1522005259490074
30.628587999999997,3.1758200737983007,0.1519161580981816
30.630972,3.175217565178355,0.151570048866811
30.633368,3.1771290139840245,0.15116873996912855
30.635755999999997,3.175548117976058,0.150940060213622
30.63814,3.177691884207204,0.15059320710727844
30.640536,3.1752723704380754,0.15046640364897362
30.642928,3.1696400511090315,0.15047818937794794
30.645308,3.1673603069667635,0.15033288737798844
30.647704,3.1713664043174674,0.14992306256122892
30.650096,3.1763036672279483,0.14948022580674586
30.652476,3.1783076638322343,0.1491444784430385
30.654872,3.185806105996573,0.14856683208447963
30.657259999999997,3.1965173537208287,0.14784443753606924
30.659644,3.2072286014450833,0.14711760085360834
30.66204,3.2151463524900024,0.14648833503135505
30.664427999999997,3.220130837228727,0.14596497500319683
30.666812,3.222833681967314,0.14555011885664376
30.669208,3.2271665403999803,0.14501917923702168
30.671595999999997,3.2276349669666735,0.14462011891599516
30.67398,3.2227959394284174,0.14435914674111616
30.676376,3.218888077449938,0.14407007823840604
30.678763999999997,3.2167027769641567,0.14374187231742605
30.681147999999997,3.2123756061050988,0.14350344947264324
30.683544,3.212983802298652,0.1430900169014963
30.685936,3.2094480273725106,0.1428398705398955
30.688315999999997,3.2119185546856204,0.1423682654749876
30.690715999999995,3.211827902744873,0.14203462431748803
30.693104,3.211178172296685,0.1417703893831769
30.695483999999997,3.2067565577811394,0.14171152482391813
30.697883999999995,3.2029865695716517,0.1416584490206425
30.700272,3.2009391428548613,0.14156556492797837
30.702656,3.1913951698316003,0.14178775486276987
30.705051999999995,3.1825028231143975,0.14201238897290694
30.70744,3.1746814115838333,0.1421921861940293
30.709824,3.1657890648666305,0.14241738489319772
30.712219999999995,3.1588988188958456,0.14256980959877047
30.714611999999995,3.153219277738558,0.14266140318625042
30.716992,3.1492622980739675,0.1427129312711501
30.719392,3.150240685461989,0.14259528694040685
30.721779999999995,3.152941634342707,0.14244122320968944
30.72416,3.1551307265442277,0.14226310708743944
30.726555999999995,3.1613240202385815,0.14195331205478742
30.728944,3.1718010546794893,0.1414800392643538
30.731323999999997,3.1824178587472574,0.14100133486864858
30.733728,3.198761425800556,0.14036462064466104
30.736116,3.2140340576672157,0.1397795399140932
30.738496,3.232379725466931,0.1390788399648018
30.740891999999995,3.250725393266646,0.13837814001551038
30.74328,3.271632240320219,0.1375496969736367
30.745664,3.2906767562542356,0.13676322394449145
30.748059999999995,3.305717070695418,0.13609593506951234
30.750448,3.3219680899501,0.13535395852256707
30.752832,3.334214907711947,0.13474360409392064
30.755227999999995,3.345111251033436,0.1342077692260995
30.757616,3.3581494647282017,0.13358777740389943
30.759995999999997,3.3702565128631887,0.13299846818490707
30.762395999999995,3.383154956931094,0.1324034441188438
30.764784,3.3941910698794433,0.131866300625796
30.767163999999998,3.3993606502154017,0.1315141709263848
30.76956,3.4025281298049435,0.13122878664093798
30.771947999999995,3.4064870053274032,0.13093448433692764
30.774328,3.4008546859983593,0.1309219727109685
30.776723999999994,3.3900074603629835,0.131096440054689
30.779115999999995,3.374224867674995,0.1314271399757302
30.781496,3.3527155120014767,0.13191588654084802
30.783896,3.3301352211413198,0.1324409108522286
30.786283999999995,3.310627966214218,0.13285063656507456
30.788667999999998,3.2943335168470322,0.13313294099956385
30.791068,3.2746864922930707,0.13354792619137537
30.793456,3.257972734045304,0.1338786221457182
30.795835999999998,3.2489878395294842,0.13399208482771502
30.798236,3.2457297079991947,0.13395031855931694
30.800624,3.244613446842182,0.13383100605368417
30.803003999999994,3.2456390560584465,0.1336337123243184
30.805404,3.2465248956478514,0.13345365134645654
30.807792,3.2483419007970333,0.13325178360408374
30.810171999999994,3.247644948520602,0.1330863006628991
30.812572,3.2470877658710307,0.13290541191362
30.814955999999995,3.251326180647211,0.1325958723709873
30.817339999999994,3.2567753002368898,0.13223208305586037
30.819736,3.264086750946126,0.1318273457256815
30.822123999999995,3.279127065387308,0.13120960681391097
30.824507999999994,3.2972404157615465,0.1304897323834166
30.826908,3.320009593934676,0.1296519133409879
30.829296,3.345712038414,0.12872636808924606
30.831675999999995,3.371833791773905,0.12775826356124115
30.834076,3.396093214014255,0.1268589099731424
30.836464,3.4162086651349095,0.1261052625872455
30.838843999999995,3.438745525882562,0.12524184092382376
30.84124,3.462493091443713,0.12434334717819975
30.843632,3.484657865139027,0.123484720069506
30.846011999999995,3.499093775102395,0.12282078330785266
30.848412,3.517394116931736,0.1220703568596178
30.8508,3.5358342283879374,0.12131455043942929
30.853184,3.553482943911221,0.12056978100159318
30.85558,3.569409097941808,0.11985199167648808
30.857972,3.589199683838368,0.11904851114890132
30.860352,3.60777956492143,0.11829195878756692
30.862748,3.622774553392239,0.11759952637952036
30.86514,3.6359072107434907,0.11694298325053315
30.86752,3.647177536975186,0.11632978294667526
30.869919999999997,3.654583431340908,0.11580956607860156
30.872308,3.661197929773712,0.11529634590459031
30.874692,3.6643673052211225,0.11482698202905296
30.877087999999997,3.66367224880256,0.11444071211510731
30.879476,3.663628818690056,0.11406633366176464
30.88186,3.660791891898216,0.11374405941810507
30.884255999999997,3.6602366051065136,0.11334516673026826
30.886644,3.6600534053671496,0.11298599037303915
30.889028,3.6566574000678695,0.11272057222315776
30.891423999999997,3.649257193275755,0.11254986120430141
30.893812,3.6446504831629754,0.112326950203381
30.896196,3.6348288667438644,0.11224607654870086
30.898596,3.6240760847649742,0.1121804679684025
30.90098,3.6102502668530283,0.11219441112019612
30.903364,3.595213744127584,0.1122549108078324
30.905764,3.576964415842224,0.11240617314519893
30.908151999999998,3.5588548571837246,0.11254507787819015
30.91054,3.5424678600179216,0.1126637091972838
30.912935999999995,3.5315280865839282,0.11269030418394053
30.915324,3.5200764564707367,0.11269000785811141
30.917708,3.5086248263575452,0.11268989121921093
30.920103999999995,3.4941001603112993,0.11277023153334491
30.922492,3.4843710916908046,0.11274856471472604
30.924876,3.4775752893765053,0.11266257367724647
30.927271999999995,3.4681257600097313,0.1126125494931142
30.929663999999995,3.4611901880685716,0.11253979454361285
30.932044,3.4488999401942197,0.11262502804629444
30.934444,3.4391708715737255,0.11260115433047857
30.936831999999995,3.4306525077667294,0.11253186894655008
30.939212,3.4199922735864563,0.11252733533197858
30.941612,3.4144071760856556,0.11239307558171378
30.943996,3.415247689704686,0.11207447749910174
30.94638,3.4138065633235795,0.11183031796363745
30.94878,3.416229868808447,0.11150347005688879
30.951168,3.4197241094799518,0.11114234459018825
30.953548,3.425360220524734,0.11071900424181723
30.955948,3.431927497129295,0.11027806679588875
30.958336,3.438494773733855,0.10983803964287153
30.960719999999995,3.4362622514198304,0.10959251139166452
30.963116,3.4342620465312828,0.1094019444893991
30.965504,3.43519510794893,0.10914723906832002
30.967892,3.4412033060460496,0.10876553587016266
30.970291999999997,3.4429277633966153,0.10851017527768723
30.97268,3.4477252566802363,0.10818162430704258
30.975068,3.4531743762699154,0.10786273812823165
30.977464,3.458903035113315,0.10751850027967497
30.979851999999998,3.4730594058229625,0.10695005902374975
30.98224,3.480929935039639,0.10654861617233288
30.984635999999995,3.487589759442817,0.1061905253093076
30.987027999999995,3.5011870516450236,0.10567916570797689
30.989416,3.50891781123484,0.10529504257127818
30.991812,3.5117132037720444,0.10501940497442995
30.994204,3.5175816322423037,0.10467055972353707
30.996592,3.5226586647796454,0.10432492669156365
30.998988,3.5298775676902636,0.10392410517313594
31.00138,3.533092269108048,0.10360743416894236
31.003764,3.5373779057124715,0.10326438356430391
31.006164,3.5416635423168947,0.10292193414297406
31.008556,3.5513038548545106,0.10243151900459482
31.010956,3.55936137552629,0.10193944044666556
31.013352,3.565416795451653,0.1014951699415651
31.015744,3.5711926761232955,0.10108544946592382
31.018139999999995,3.5773878656755183,0.100632366324364
31.020536,3.576645587428713,0.1003189952563582
31.022928,3.5788365754881024,0.09995092211574177
31.025336,3.581027563547492,0.09958585659152876
31.027736,3.578934810860328,0.09933204376198382
31.030128,3.5800548637330785,0.09899632390042726
31.032528,3.584387722165746,0.09858256862487308
31.03494,3.5859270839190773,0.09821208818824789
31.037339999999997,3.5902599423517443,0.09780268339421021
31.039739999999995,3.593521865597772,0.09741674644126073
31.042128,3.593990292164465,0.09706873368868285
31.044528,3.595250114664076,0.09672269063547774
31.046924,3.596090628283106,0.09641844654914779
31.049311999999997,3.6049395448878045,0.0959671489813009
31.051711999999995,3.6128572959327236,0.0955311934762427
31.054108,3.621054586231364,0.09507119295394632
31.056496,3.6289723372762834,0.09463878742681493
31.058879999999995,3.641825455373815,0.09412647959199885
31.06128,3.6506743719785124,0.0936800978887146
31.063672,3.655658856717237,0.09329370060625777
31.066052,3.659292867015602,0.09295502654072321
31.068448,3.666651539553081,0.09256429781938758
31.07084,3.6722876505978634,0.09218781088887439
31.073224,3.6768528264560074,0.0918381230969294
31.075619999999997,3.6803470671275123,0.09151233721366385
31.078008,3.683561768545297,0.09121308079716961
31.080392,3.685565765149583,0.09095424665611247
31.082792,3.688361157686787,0.09069839439846641
31.085179999999998,3.6831481472383243,0.09058136150164545
31.087563999999997,3.6816597990289743,0.09041858733172042
31.089963999999995,3.6861777530588746,0.09015149371905537
31.092352,3.6917666422754145,0.0898640479452828
31.094731999999997,3.6976350707456738,0.08955364705092528
31.097131999999995,3.695355326603406,0.08939211483007109
31.09952,3.6938669783940563,0.0892331353034376
31.101904,3.694892587610321,0.08907011774510959
31.104304,3.698991232759641,0.08885528740227053
31.106691999999995,3.698945906789267,0.0887166347965844
31.10908,3.704115487125225,0.08848045585893338
31.11148,3.712497873021099,0.08817910390946447
31.113868,3.727166100409944,0.08776389237368289
31.116248,3.74225363667937,0.08731416855295746
31.11866,3.758132568881714,0.08687072458741427
31.121047999999995,3.771218004404723,0.08645187936571173
31.123424,3.787376475860787,0.08598397492928948
31.125823999999994,3.8039542561974313,0.08548189648397807
31.128207999999997,3.816667604668103,0.08502572641180109
31.130588,3.826587456459439,0.08459636280795482
31.132988,3.8505220134756937,0.08395563604835557
31.135375999999997,3.8715233041857537,0.08335733649570555
31.137756,3.8855871270967834,0.0828629252871651
31.140151999999997,3.8927134822087845,0.08246242147474536
31.14254,3.89783773657437,0.08209242548523425
31.144924,3.904964091686371,0.08168804802726758
31.147319999999997,3.909436719745898,0.08129789848006402
31.149708,3.9072514192601164,0.08098078701227829
31.152088,3.898920046908225,0.08076482474607405
31.154484,3.8925907753027493,0.08051913360684287
31.156872,3.8870528996301914,0.08027792556415783
31.159251999999995,3.878302218397718,0.08009712424775324
31.161652,3.8624742997393557,0.08002084626057278
31.164036,3.8462270722004126,0.07997908055833619
31.166416,3.8273261176089948,0.07994816809063707
31.168816,3.8110788900700516,0.07990537600818581
31.1712,3.7897565258516375,0.07993930226752902
31.173584,3.7690857879392796,0.07998602408694491
31.175976,3.751348316333118,0.07999743447507215
31.178363999999995,3.737335506966069,0.07997578611557395
31.180744,3.714662668307295,0.08004257561206518
31.183139999999995,3.6933403040888804,0.0800644941178867
31.185528,3.6754630628558584,0.08008082558467035
31.187912,3.6646630590487255,0.07999557052296678
31.190307999999995,3.652792120054954,0.07992985594843419
31.192696,3.6398502458745434,0.07988485529449904
31.19508,3.628351393933109,0.07986076447382781
31.197475999999995,3.6253728016565403,0.07975329345160331
31.199864,3.6253274756861664,0.07960892608385053
31.202248,3.622488653036457,0.07948820918132557
31.204643999999995,3.617647729640331,0.07939565981373041
31.207032,3.618673338856596,0.07923293195247458
31.209411999999997,3.6223526751253354,0.07905768600034507
31.211808,3.628173881767352,0.07884412893815307
31.2142,3.633296240275067,0.07868934846074466
31.216579999999997,3.6396293035962812,0.07850320054451741
31.218984,3.6501063380371894,0.0782478237426148
31.221371999999995,3.6564394013584036,0.07805922412033311
31.223752,3.662632695052758,0.07788333347408213
31.226152,3.666963657627555,0.0777245991610097
31.228539999999995,3.673808577627966,0.07756739706310287
31.23092,3.679303023188019,0.07745521310266706
31.233315999999995,3.6853565472555125,0.0772952180334945
31.235704,3.6901993665095074,0.0771693196583875
31.238083999999997,3.6989066176294756,0.07700268104865132
31.240483999999995,3.7140394798692755,0.0767242183535799
31.242872,3.729451881362796,0.0764216743081547
31.245251999999997,3.737414958378089,0.07617764834180776
31.247651999999995,3.7495220065130765,0.07587557367188777
31.250035999999994,3.7654934865140373,0.07553678909889275
31.252419999999997,3.7802542617015,0.0752271515161839
31.254816,3.7882173387167932,0.07498878287011368
31.257203999999994,3.7976706597993064,0.0746986090660067
31.259584,3.8060530456951804,0.07442999143527407
31.261979999999998,3.8189987115913286,0.07406691902312351
31.264363999999997,3.8296627374873395,0.07375153671094595
31.266748,3.8381848930100744,0.07347241628573177
31.269152,3.8539240555855585,0.07309415332277629
31.271539999999995,3.869663218161042,0.07271589035982082
31.27392,3.887404481482943,0.07231831462234962
31.276315999999994,3.9055650536854243,0.071891037770172
31.278704,3.925448187380602,0.07146267427767895
31.281084,3.9429099114487816,0.07109290017394136
31.28348,3.9602318658901012,0.07073732513646265
31.285867999999997,3.9739689277191683,0.07039486951736344
31.288252,3.985284579921238,0.07011607824872094
31.290648,3.9987421024965837,0.06980834543454627
31.293035999999997,4.0159242873110435,0.06947925485814538
31.295432,4.026169004326474,0.06922085517659053
31.297832,4.0342718509686275,0.0689961494798026
31.30022,4.0447961072377785,0.06871894596597021
31.3026,4.059184795372903,0.06841017592422902
31.305,4.0714316131347505,0.06813468769489386
31.307384,4.080884934217264,0.06787345306988453
31.309763999999998,4.090338255299776,0.06761708401967821
31.312164,4.102352755636146,0.06729936328762282
31.314552,4.114507025599377,0.0669695905792885
31.316936,4.122796863696634,0.0666729455227136
31.319332,4.133647881047749,0.0663186434069751
31.32172,4.140494696906031,0.06600214307305029
31.324099999999994,4.146130807950812,0.06571231239202106
31.326496,4.152605536756756,0.06536257838122808
31.328883999999995,4.162293071122615,0.06497179980723994
31.331267999999994,4.169326878435999,0.06458116941737796
31.333664,4.179945578361637,0.0641872824039183
31.336051999999995,4.18656007679444,0.06382859590512409
31.338435999999994,4.189961769667329,0.0635130612670087
31.340832,4.189638800301104,0.06321040333374847
31.343219999999995,4.191457701308155,0.0628773957783557
31.3456,4.191554040822511,0.06253957817635854
31.347995999999995,4.1904396755233675,0.062227175716855695
31.350384,4.185460878358251,0.061937448501433706
31.352768,4.180342311566275,0.06165694152444623
31.355168,4.179088176640271,0.061352591653559746
31.357555999999995,4.169825638728599,0.0611144303506797
31.359936,4.158001921563073,0.06093492662540877
31.362336,4.147249139584182,0.06074065572418628
31.36472,4.136496357605292,0.06054554075839881
31.367104,4.121320065252988,0.06041356761243823
31.369511999999997,4.1093565784605985,0.060240248134631504
31.3719,4.09753286129507,0.06005573419522004
31.37428,4.08501029599524,0.059922553865754416
