Time,Force,Position
33.347432,0.0,0.0
33.349816,0.0,0.0
33.352211999999994,0.0,0.0
33.3546,0.0,0.0
33.356984,0.0,0.0
33.359379999999994,0.0,0.0
33.361768,0.0,0.0
33.364152,0.0,0.0
33.366547999999995,0.0,0.0
33.368936,0.0005902585841936316,0.0
33.37131599999999,0.007186819407637818,0.0
33.373715999999995,0.014714545790860322,0.0
33.376099999999994,0.02531530810713821,0.0
33.37848399999999,0.0352644441173582,0.0
33.380883999999995,0.04106960900788427,0.0
33.383272,0.047805939458188666,0.0
33.385656,0.054402500281632855,0.0
33.388051999999995,0.06085929147821682,0.0
33.39044,0.06624514748816226,0.0
33.39281999999999,0.07442450017744268,0.0
33.395219999999995,0.08060175212030625,0.0
33.397608,0.08356619850325421,0.0
33.39998799999999,0.08718227119226006,0.0
33.402384,0.09238113574710216,0.0
33.404771999999994,0.09888325291406003,0.0
33.40715599999999,0.10533814825277478,0.0
33.409552,0.11360815288280297,0.0
33.411944,0.12406535385648217,0.0
33.41432399999999,0.13535927673345338,0.0
33.416723999999995,0.1482029155416388,0.0
33.419107999999994,0.15662114811854058,0.0
33.42149199999999,0.16941377338274435,0.0
33.423888,0.18387984245353214,0.0
33.426275999999994,0.2084923931675259,0.0
33.428659999999994,0.2523307636970316,0.010682413697744742
33.431056,0.3112037610941122,0.02056379619198658
33.433448,0.3876253427843821,0.02990995836717527
33.435827999999994,0.48210736544703914,0.03893374461626773
33.438224,0.5954412250150014,0.04775711685684514
33.440616,0.7226915544356568,0.056497017227389756
33.442995999999994,0.8720065263215329,0.0649838708210247
33.445392,1.0438054495532105,0.0732905077592551
33.447779999999995,1.2274261940925473,0.0816838277652599
33.450163999999994,1.4262213351263193,0.08998543587728364
33.45256,1.6375371456020513,0.09829709249538329
33.454952,1.8671476103335172,0.1064633297930746
33.457331999999994,2.108255031148548,0.11463309967250465
33.459728,2.360255003569329,0.12277221842652876
33.462115999999995,2.6270591812900768,0.13079423100874873
33.464499999999994,2.904990123899921,0.13873553841423447
33.466896,3.1931638876673274,0.14660897864079697
33.469288,3.486273018487346,0.15443393757548074
33.471667999999994,3.782083098188083,0.1622603334448202
33.474067999999995,4.075892973000273,0.1700437502044868
33.476456,4.358950065833574,0.16712996912310768
33.47884,4.629486489224915,0.16497433737641098
33.481236,4.885826903509842,0.16328541874442956
33.483624,5.121872458650488,0.16193773351181337
33.486003999999994,5.3400445642738505,0.1607555109885752
33.4884,5.538341119633512,0.15968199644511594
33.49079199999999,5.715132111035394,0.15886595468109177
33.493171999999994,5.872000330345332,0.15822816386921773
33.495568,6.0186767420416905,0.15744931149506022
33.497955999999995,6.147944339071718,0.1567601047562759
33.500339999999994,6.268091063674805,0.15594595432444996
33.502736,6.367616168051648,0.15529502892529085
33.505123999999995,6.452386184814635,0.15464431983830307
33.507507999999994,6.5255666976954405,0.15397716622622432
33.509908,6.582035348186349,0.15344946922585118
33.51229599999999,6.625377028899614,0.1529942427764375
33.514675999999994,6.657174531701071,0.15259043486929558
33.517072,6.680872979576111,0.1521907617903388
33.51946399999999,6.699405638830932,0.15173779118301398
33.521843999999994,6.708721086144454,0.1513471267837202
33.524244,6.714126775621628,0.15094691701350282
33.52663199999999,6.713433615060937,0.15062281626070684
33.529011999999994,6.706734152260992,0.15040924032193442
33.531412,6.701617481326885,0.15018268033915072
33.53379999999999,6.693520322258339,0.1500507173107658
33.536184,6.687937120615408,0.14989121061646454
33.53858,6.685938811584729,0.14968177111903358
33.54096799999999,6.682869567367411,0.14949462224759522
33.543352,6.674725186470621,0.14940544459541988
33.545748,6.667372201506749,0.14930986299863308
33.54813599999999,6.654105462102244,0.14936085242782474
33.55052,6.642141975309855,0.14941739536312398
33.552916,6.631761280383302,0.14946164306490906
33.555308,6.620030111016391,0.1495444474532872
33.557688,6.60885802015692,0.14959410302285975
33.56008799999999,6.597685929297448,0.1496434527877987
33.562476,6.586234299184257,0.1497092511893892
33.56486,6.57184940276487,0.14982566055054838
33.56725599999999,6.553460304852648,0.1500151639343269
33.569644,6.536142142127067,0.15018308597804117
33.572028,6.519755144961264,0.15033460752420771
33.574428,6.508443284474932,0.15038941800356095
33.576815999999994,6.501275395108296,0.15036238523959922
33.57919999999999,6.494247275368519,0.15032696236503698
33.581596,6.4916426660021544,0.15019232882965378
33.583983999999994,6.490900387755349,0.15002911460203056
33.58636799999999,6.484431346523013,0.14995984710717614
33.588764,6.4808955715968715,0.14983907543600863
33.591151999999994,6.481363998163564,0.14964376320625053
33.59353599999999,6.479038928050922,0.14949105180956304
33.595932,6.477272936445723,0.14930402703550336
33.598324,6.4789992896541575,0.1490315751547009
33.60070399999999,6.481936347676089,0.14872864101606853
33.603103999999995,6.485013175324883,0.1484175875918609
33.605492,6.491814665212789,0.14805161457131577
33.607876,6.498895694354417,0.1476695735913119
33.610271999999995,6.503322996443568,0.1473197787329759
33.612663999999995,6.50882123371936,0.1469471886184287
33.615044,6.514179701368291,0.1465805889037794
33.61744399999999,6.523542370510054,0.14614266201997517
33.619831999999995,6.52461709741243,0.1458660035426984
33.622215999999995,6.52341018431467,0.14564440280936694
33.624616,6.520061400843632,0.14546816548313465
33.62700399999999,6.51750401330551,0.14528600287965526
33.629388,6.5129445250209725,0.1451404893288069
33.63178799999999,6.509176432669356,0.14498966246530262
33.634176,6.512066268863048,0.14473278322061955
33.63656,6.512814234683461,0.1445206235596492
33.63896,6.514493366063652,0.14429591535040587
33.641347999999994,6.524041130802651,0.1439388472939536
33.643728,6.5342405218477095,0.14358441677586067
33.646139999999995,6.5410873377059895,0.1433049732646241
33.648528,6.546723448750772,0.14305646458227478
33.650912,6.5551530564748886,0.14277015536707197
33.653308,6.557576361959756,0.14258785577878727
33.655691999999995,6.557718027444485,0.14245605168399905
33.658075999999994,6.55944248479505,0.1423132197867842
33.66047999999999,6.563029273265173,0.1421446189705739
33.662868,6.571691198414767,0.14188635886677814
33.665248,6.576069382817808,0.14171433323113844
33.667644,6.591389236512711,0.14135576311496129
33.67003199999999,6.6056381550209755,0.14101800957217023
33.672411999999994,6.622820339835434,0.14063427275168153
33.674812,6.641864855769452,0.14022683722400534
33.67719999999999,6.664773803569441,0.1397632445206256
33.679579999999994,6.6859601898767345,0.13932045800368376
33.681976,6.703282144318054,0.13893935417976178
33.684363999999995,6.722745969132651,0.13851759346584344
33.686744,6.74099908913375,0.13812768462549804
33.689139999999995,6.754037302828515,0.13783600500251042
33.691528,6.771219487642974,0.1374757512296052
33.69390799999999,6.790403773203852,0.13708381256299396
33.696307999999995,6.808237584324369,0.1367262660558808
33.698691999999994,6.822998359511832,0.1364231783311001
33.701092,6.841483796938407,0.13607051089987843
33.703484,6.864764831790734,0.1356510129257796
33.70587199999999,6.895402643322672,0.13510859562620137
33.708256,6.923898584481331,0.13460847800595457
33.710652,6.951183820826492,0.13414248661956657
33.71303999999999,6.981262553850987,0.1336430090373098
33.715424,7.011481056502343,0.13314728952978513
33.71782,7.042770494340338,0.1326321188650567
33.72020799999999,7.070847126618418,0.13217456937612093
33.722592,7.099203298150218,0.1317078802513941
33.724988,7.12527782968188,0.1312903153295557
33.72737599999999,7.150933052332961,0.13089515287170697
33.72976,7.178310836476738,0.13048599981901665
33.732156,7.2036865198741,0.13010687658765946
33.73454399999999,7.229481512152041,0.12970857291789425
33.736928,7.252762547004369,0.12932587203190932
33.739324,7.270968445177224,0.12902168716917978
33.74171199999999,7.2882431777903,0.12872922849452323
33.74409599999999,7.3090102552170135,0.12836972200388252
33.746492,7.32791500152417,0.12802987816742442
33.748884,7.347890683017964,0.1276746840797721
33.75126399999999,7.366143803019062,0.12733680369849762
33.75366399999999,7.376388520034493,0.12711308035023303
33.756052,7.387843941863423,0.1268657311235968
33.758436,7.398787507013155,0.12660939799946644
33.76083199999999,7.406146179550634,0.12638609655711872
33.76322,7.4087092546623605,0.12622075054000956
33.765604,7.411412099400947,0.12604857112108625
33.768007999999995,7.417327749699449,0.12582639688852051
33.770396,7.421101529624676,0.12563861580376806
33.77277599999999,7.4231527480572055,0.12546330941146439
33.775172,7.425763044997176,0.125260318764068
33.777564,7.430794751564144,0.12501209828245236
33.77994399999999,7.440761825183723,0.12470457987629832
33.782343999999995,7.447655862870248,0.12443905213905103
33.784732,7.458274562795886,0.12413552821383982
33.78711199999999,7.469312571602104,0.12381080445061896
33.789511999999995,7.481561285221821,0.12346418906802331
33.7919,7.490736962908482,0.12316042231239185
33.794284,7.500052410222004,0.12284794782648177
33.796679999999995,7.5077850656696885,0.12254193598369625
33.799068,7.510582354064762,0.12229514107434669
33.80144799999999,7.515381743206252,0.12202230477129737
33.803847999999995,7.5161769308549085,0.12180012980700262
33.806231999999994,7.512688377757011,0.121642691902122
33.808615999999994,7.512133090965309,0.12145009201052617
33.811012,7.512229430479663,0.12126178470474194
33.813399999999994,7.514327870740435,0.1210487118786307
33.81578,7.512701648762095,0.12087278471671319
33.81818,7.510423800477695,0.12069219383265757
33.820567999999994,7.511079218499493,0.12047752229457036
33.822951999999994,7.513596967640845,0.12024557835686164
33.825348,7.5090374793563095,0.12010405938974517
33.827735999999994,7.498751228086243,0.12002309072487144
33.830119999999994,7.492329408682149,0.11989949945528931
33.832516,7.487769920397614,0.11975852837108542
33.834903999999995,7.481859957672719,0.11964621065880826
33.837287999999994,7.475670455694104,0.11954734533944737
33.839684,7.473764694462043,0.11938711550520378
33.842071999999995,7.476934069909453,0.1191643426467486
33.844452,7.479032510170226,0.11895679812282572
33.846844,7.486066317483611,0.11869227173827698
33.84923199999999,7.496033391103191,0.11839744665295139
33.851612,7.509073500655826,0.11806258530519705
33.854015999999994,7.525186646141517,0.11768729805378925
33.856399999999994,7.53943746050765,0.11732991980195541
33.85878399999999,7.552245252634808,0.1169688973319031
33.86118,7.562259548082631,0.11663491231196772
33.863564,7.571202908343815,0.11631399176797722
33.86594399999999,7.580797894911058,0.11599804966965878
33.86834,7.586668219239185,0.11571655446465916
33.87072799999999,7.587882715768423,0.11547739238773598
33.873107999999995,7.594312118603993,0.11516841319720515
33.875508,7.601532917372481,0.1148566636275477
33.877892,7.605168823528715,0.11457253550857191
33.880272,7.6000049307663655,0.11438388955135635
33.882667999999995,7.597262447631012,0.11415082967643302
33.885056,7.590283445577347,0.11393920399454247
33.88744,7.5793002420308495,0.11377471887563571
33.889835999999995,7.565383772178156,0.11364141624463858
33.892224,7.551607071952322,0.11350088778198074
33.894608,7.539180846166847,0.11333169499881873
33.89702,7.519025756649425,0.11324018514196953
33.899407999999994,7.500081371945502,0.11312629478571043
33.901788,7.482207922428216,0.11299704117261164
33.904183999999994,7.466616112911068,0.11283128046047652
33.906572,7.454888735259894,0.11262692442189398
33.908956,7.443021587981859,0.11242857428708229
33.911351999999994,7.4374402821967935,0.1121504407937805
33.91374,7.430276184545894,0.11187407006814959
33.91611999999999,7.422320690962075,0.11159747081551008
33.918516,7.416087758870954,0.11131073563426587
33.92090399999999,7.406781790846776,0.11106031593642648
33.923283999999995,7.397755362076321,0.11079602515821169
33.925684,7.388589163679003,0.11053730692018511
33.928068,7.388642073080853,0.11016712583530702
33.93046399999999,7.387484277669204,0.1098180736811647
33.932863999999995,7.391633936362504,0.10943522562964539
33.935247999999994,7.393641724682527,0.1090797918934867
33.937631999999994,7.3939269515098545,0.10873286118224801
33.940028,7.396074509456737,0.10837089061588522
33.942415999999994,7.394078096283928,0.10806023211621281
33.944799999999994,7.399158920537006,0.10766828729842758
33.94720399999999,7.402237644043669,0.10729905474090316
33.949592,7.40638730273697,0.10691788648018431
33.951972,7.409326256616772,0.10655870050348745
33.954367999999995,7.4071900738171035,0.10625599181167858
33.956756,7.409058092510268,0.10591212735465128
33.95914,7.406502600830017,0.10563095228881393
33.961535999999995,7.4067406058291025,0.1053283499512374
33.963924,7.413636539373495,0.10497091550457043
33.966303999999994,7.423465739224084,0.10458725493007812
33.96870799999999,7.43543680944795,0.10417652794522012
33.971092,7.45034114597801,0.10374061356398763
33.973476,7.470460388814404,0.10324735089321506
33.97587599999999,7.48857753090438,0.10277923370693205
33.978264,7.508836543367634,0.10228663159528312
33.980644,7.526441828778413,0.10180932451309513
33.98304399999999,7.548982481241803,0.10128698183415057
33.985428,7.5731059255710305,0.10076441080843629
33.987812,7.595227269153841,0.1002625685778579
33.990208,7.619350713483067,0.09974128599185567
33.992596,7.641192517812157,0.09925538762938031
33.99498,7.6598215165813315,0.09880461494488918
33.997376,7.674586083484532,0.09838709292499888
33.99976399999999,7.686277614454677,0.09800010833928005
34.002143999999994,7.703044282104294,0.09756291683991748
34.004544,7.713664877887801,0.09718946621993366
34.00693199999999,7.726427344044586,0.09679156893428623
34.009311999999994,7.7359770046414535,0.09643120133042922
34.011708,7.740591298185709,0.09611629953000807
34.014095999999995,7.740270224677354,0.09584426246614071
34.016476,7.740600777475056,0.09557936724269543
34.018876,7.737718524712843,0.09535159350890561
34.02126,7.730412761577216,0.09517888697140159
34.02363999999999,7.718031861762115,0.09505347678498183
34.026044,7.703089782693157,0.0949705656170537
34.028431999999995,7.691080969930394,0.0948634685852149
34.030815999999994,7.677070056421215,0.09477358498839021
34.033212,7.661848438098537,0.09470151721540424
34.035599999999995,7.646626819775858,0.09462906223229164
34.037983999999994,7.6320568277592375,0.09456284915879251
34.04037999999999,7.617626605369477,0.09448996431399123
34.042767999999995,7.610553159659326,0.0943408508421212
34.045148,7.60692483693457,0.0941818662404813
34.047543999999995,7.607160946075785,0.09399437175407685
34.049932,7.606326120030363,0.09381932457206085
34.05231199999999,7.610845969918133,0.09358677667619421
34.054708,7.615226050179042,0.09336131101539831
34.057095999999994,7.627102676746422,0.093058432778974
34.059476,7.637908368127164,0.09276596340274189
34.061879999999995,7.653649426560516,0.09243537601378311
34.064268,7.66845931943409,0.09211120207465355
34.066652,7.6844799171211635,0.09176999394589215
34.069056,7.700360745181377,0.09143399128990383
34.07144399999999,7.722108105853981,0.09105450671917126
34.073828,7.74855851615372,0.09061464044782816
34.076224,7.769002624214206,0.09022357633667341
34.07861199999999,7.789446732274694,0.08983343017409154
34.08099599999999,7.81231224996218,0.0894100219151065
34.083392,7.837179868396081,0.088971855745094
34.08577999999999,7.863677500524064,0.08850281033027113
34.088159999999995,7.891246067838684,0.08802567827169736
34.09056,7.920397427019139,0.08755963773906993
34.09294799999999,7.949176699147258,0.087078781595196
34.095327999999995,7.977164575342458,0.08659886726460371
34.09772399999999,8.00422128597788,0.08612589864019461
34.100112,8.024852385493471,0.08571436736781296
34.102495999999995,8.044971628329865,0.08529205574231259
34.10489199999999,8.05694269855373,0.08493617895948313
34.10728399999999,8.074268444710787,0.0845319217638143
34.109663999999995,8.092804895681343,0.08411647329209272
34.112064,8.11227251221168,0.08369828193617469
34.11445199999999,8.131600359115156,0.0832867749077093
34.11683599999999,8.151487284526072,0.08285233448662939
34.119232,8.169511878817431,0.08242838192175692
34.12161999999999,8.181390401242679,0.0820521288755911
34.12400399999999,8.200206391466956,0.0816318488749444
34.1264,8.217160050571678,0.08121906295107799
34.12878799999999,8.23304277448976,0.08081758877574163
34.131167999999995,8.24985666396762,0.080414981225033
34.13356399999999,8.262107273445208,0.08006172832656998
34.135952,8.271936473295796,0.07973862407720483
34.138335999999995,8.269892838294744,0.07948714383433317
34.140736,8.263425692920277,0.07927769333394923
34.14312399999999,8.254816677172533,0.07908622259825855
34.145503999999995,8.24606789179793,0.0789001704717175
34.147904,8.244536113476073,0.07866082867998198
34.15029199999999,8.24137432146014,0.07845269098713517
34.15267599999999,8.24179742205646,0.0782353658766756
34.155072,8.23458420671945,0.07808732491780652
34.15745999999999,8.223227020262744,0.07796996451521862
34.15984,8.21093866824626,0.07785592526523415
34.16224,8.199861021043276,0.0777271839593565
34.164624,8.190366165706129,0.0776023513285855
34.167008,8.182454102234816,0.07748181862492097
34.16940399999999,8.17733553544284,0.07735086330570574
34.171792,8.168072997531167,0.0772495727460337
34.174176,8.161743725925692,0.07713277862292689
34.17657199999999,8.158347720626413,0.07700118371840711
34.17896,8.153089384207576,0.07687611898932255
34.181344,8.150112687788877,0.07672832463048097
34.18373999999999,8.149417631370312,0.07655815248483751
34.186128,8.159664244243611,0.07632622459075326
34.188508,8.171121561930413,0.07607898547695384
34.190904,8.18751424666982,0.07580615181749409
34.19329199999999,8.204977866595872,0.07552597366929026
34.195676,8.219508220215726,0.07526244199748726
34.198072,8.235389048275941,0.0749798474563669
34.20045999999999,8.250618250030096,0.07469044994142886
34.202839999999995,8.272412832530941,0.0743453758441695
34.20523599999999,8.290203213538954,0.07402065274890093
34.207624,8.30613126342741,0.0737016886470243
34.210007999999995,8.319777673315729,0.07340560251682027
34.21240399999999,8.333563852830908,0.07310559217982164
34.214792,8.344836074920472,0.0728043377839222
34.217175999999995,8.358110397756453,0.07249349654742489
34.21957199999999,8.373526590965712,0.07216696058080549
34.22196,8.388942784174972,0.07184217713838449
34.224343999999995,8.39728173995834,0.0715578140934852
34.22673999999999,8.403618594995292,0.07128395165551898
34.229128,8.411957550778663,0.07100079640795244
34.231511999999995,8.419225571375392,0.07072635144184533
34.23390799999999,8.423560325665928,0.07046695402745087
34.236296,8.434832547755493,0.07017612045822445
34.23869199999999,8.444382208352364,0.0698871297914019
34.241088,8.450719063389315,0.0696207632369668
34.243475999999994,8.45598498323963,0.06936201930114076
34.24585999999999,8.462042299022862,0.06910677799267856
34.248256,8.465957744432817,0.06886618108739886
34.250643999999994,8.466520614655996,0.06865358109780342
34.25302799999999,8.474952118237983,0.06840714909816932
34.255427999999995,8.491392024805636,0.06812460989161775
34.257816,8.509182405813648,0.06782493691404547
34.26019599999999,8.526972786821661,0.0675269323373976
34.262595999999995,8.545694333389452,0.06722738600350983
34.264984,8.559200973650912,0.06695858617646952
34.26736399999999,8.570705513165954,0.066699597213845
34.26976,8.584351923054273,0.06642864256075667
34.272152,8.602933699995203,0.06613685965746714
34.274531999999994,8.625240139175247,0.06583778907574403
34.276928,8.644473542422237,0.065556058104588
34.27932,8.660633909736173,0.06528950918793822
34.281696,8.673721241117047,0.0650390294524143
34.284096,8.678800169512261,0.06482489510859424
34.286483999999994,8.681597457907332,0.06462980033249907
34.288864,8.686816155929401,0.06441074011393383
