Time,Force,Position
31.537228,0.008055902944711002,0.0
31.539624,0.008055902944711002,0.0
31.542012,0.011951908739780076,0.0
31.544416,0.01584791453484915,0.0
31.546812,0.019883689956778437,0.0
31.549195999999995,0.02191736463229087,0.0
31.551596,0.023019873748024982,0.0
31.553992,0.023191217303980778,0.0
31.55638,0.02550443123321363,0.0
31.558775999999995,0.029679976282003126,0.0
31.561176,0.03478668689057094,0.0
31.563559999999995,0.04054502380519666,0.0
31.56596,0.04830546146623923,0.0
31.568363999999995,0.052201467261308296,0.0
31.570747999999995,0.059170508989432755,0.0
31.573152,0.0645251849226254,0.0
31.575544,0.067737990482541,0.0
31.57794,0.07104334384107366,0.0
31.580336,0.08150283452496489,0.0
31.582724,0.08995832860457002,0.0
31.58512,0.10586125130453247,0.0
31.587516,0.12692996262471498,0.0
31.589904,0.15019962232982678,0.0
31.592299999999994,0.1812887977076334,0.0
31.594696,0.22033725838499502,0.009027075764291065
31.597083999999995,0.26762454361563204,0.018127587911163718
31.59948,0.3219399485860458,0.02733897811946761
31.601876,0.38542534366951336,0.03634281074623814
31.604264,0.45272605293284196,0.04548600125744179
31.606648,0.5262634860030291,0.05450483792146127
31.609044,0.6057581036263544,0.0635644164839371
31.611432,0.6929796891237575,0.07246335124307456
31.613812,0.7855068328682409,0.08131656974269263
31.616208,0.8930704993381683,0.08988950630461885
31.618596,1.0019355225623423,0.09861744025066843
31.62098,1.11997053589957,0.1072709878627398
31.623376,1.2425197115509599,0.11606156719997668
31.62576,1.3652539827995838,0.1250064575922232
31.628144,1.4943666433397957,0.13368289312057396
31.630548,1.6365175175747735,0.1419129120076748
31.632936,1.772012359122312,0.15012594572549495
31.635312,1.9035521168631293,0.158266060892638
31.637712,2.030205625237447,0.166334405387331
31.640096,2.1463858908865947,0.17448877174988958
31.64248,2.2535359360495493,0.1736517405136395
31.644876,2.354449257405645,0.17274127289480784
31.647264,2.450196790141521,0.17168424904906252
31.64966,2.5358431672045647,0.17090658414710325
31.652055999999995,2.6158118989681904,0.16995134204117499
31.654444,2.6868901798724836,0.16913751272973002
31.656824,2.7504284843578026,0.1682808907962463
31.65922,2.8046570291032067,0.16762163153991996
31.661608,2.8518574541088344,0.16696930082484243
31.663988,2.8870943923220738,0.16661462438080557
31.666384,2.9186085641540687,0.16610695368206332
31.668772,2.938950645126593,0.16580607928619806
31.671156,2.9598537004644268,0.16514402897243988
31.673552,2.9823414435259665,0.16416979166491905
31.67594,2.9969152272583255,0.16343034621180702
31.67832,3.0005945635270654,0.1631190522249644
31.680716,3.0034825038628865,0.16282474340740247
31.683104,3.00422857382543,0.1626368745632716
31.6855,3.0037639389744757,0.1625207763915908
31.687895999999995,3.00995723266883,0.16215134514499546
31.690284,3.020294497482877,0.1616002655754706
31.692664,3.030631762296925,0.1610491860059457
31.695068,3.0433904367379703,0.16037672363697414
31.697455999999995,3.060013543044989,0.15955879904894915
31.699836,3.078498980471565,0.1586909215186024
31.70224,3.0967048786444202,0.15784978845216932
31.704628,3.11756450386975,0.15693978295581215
31.707007999999995,3.1404262298414967,0.15595021744147247
31.709404,3.1617977117460243,0.15505843646038958
31.711792,3.1799563880906363,0.15429336478900957
31.714172,3.1965322725694123,0.15355500553528922
31.716576,3.220976790406995,0.15251143912254084
31.718964,3.239415006005327,0.15173554372960013
31.721343999999995,3.253057624177908,0.15114517386112747
31.72374,3.264837911230931,0.150616426922675
31.726124,3.2764784286570947,0.15010594515920306
31.728504,3.28732755015034,0.14960709732367675
31.730903999999995,3.3011099379497804,0.14900234380089938
31.733292,3.313961160189443,0.1484253194653695
31.735672,3.320806080189855,0.148088739173983
31.738068,3.3213651586972954,0.14801981619825372
31.740455999999995,3.323134942018235,0.14788714164900482
31.742836,3.3174081790327055,0.14808409757176652
31.745231999999994,3.309679315300758,0.148354714351329
31.74762,3.2987376460088953,0.14876250396697208
31.750004,3.288866911903671,0.14912649017140236
31.752399999999994,3.2731296451860565,0.1497091241486145
31.754788,3.255390277722025,0.15036808226349777
31.757172,3.2388616150714933,0.15096804356339477
31.759576,3.22927042021999,0.15130664456754003
31.761964,3.2236834268613195,0.15148603053262943
31.764343999999998,3.211298735330482,0.15190085569644096
31.76674,3.2010559141729202,0.15222297749182523
31.769127999999995,3.1909528626422192,0.1525310511332854
31.771511999999998,3.181780976671296,0.15281116485421242
31.773908,3.1736800258870117,0.15304243053258015
31.776295999999995,3.166370471035645,0.15326206228300226
31.778676,3.1561276498780835,0.1535851863240067
31.781076,3.1478869294669383,0.15383189662631858
31.783463999999995,3.142859014615709,0.15394005998590543
31.785844,3.1439771716305907,0.15380363900740576
31.788239999999995,3.1436050845782537,0.15376489826251222
31.790628,3.150310234951805,0.15345101787684523
31.793008,3.1548735149520795,0.15322761562502643
31.795404,3.1605077301389928,0.15295521279898464
31.797792,3.1653505493929877,0.1526949019727865
31.800188,3.1748491964458743,0.1522747745274695
31.802584,3.187281109804956,0.1517473044312012
31.804972,3.1998527927908977,0.15120321585852828
31.807351999999995,3.212704015030561,0.15064501149464857
31.809748,3.220480100590751,0.15028789166511483
31.812135999999995,3.2311894524571354,0.14982447726459683
31.814516,3.239896703577105,0.14943747357740578
31.816916,3.251257681749548,0.1489827018064674
31.819303999999995,3.261547724735353,0.14857116659647485
31.821684,3.2706270629076584,0.14822481081681022
31.824079999999995,3.281428962572661,0.14784057124798936
31.826468,3.292091092610803,0.14746846672770464
31.828848,3.301402748208586,0.14717767312764984
31.831247999999995,3.310434864552649,0.1469249850268601
31.833636,3.3150434705232974,0.14687164723882612
31.836016,3.322213255747803,0.14668091973704575
31.838412,3.327380940225892,0.14656605019483543
31.840799999999994,3.336832365450536,0.14627661872783004
31.843184,3.3461440210483184,0.146002938187349
31.84558,3.3567589292582176,0.14573850628994742
31.847967999999995,3.3684447726547555,0.145434869128334
31.850364,3.3789199112377943,0.14519528646752908
31.85276,3.393911107992864,0.14484954374740222
31.855148,3.403268089561022,0.144744312814602
31.857527999999995,3.4186313733684295,0.14444159968796544
31.859928,3.4326441827354786,0.14421220072855215
31.862312,3.4495902584087226,0.1438937782517497
31.864695999999995,3.4663965644551062,0.1435979932319011
31.8671,3.4830631008746296,0.14331114088036742
31.869488,3.50187150766743,0.14294744783975388
31.871868,3.518957352967534,0.1426216385882966
31.874264,3.5419097308800285,0.1421277903411365
31.876652,3.5672835184195204,0.14153110486738094
31.879036,3.5914466011455137,0.14098927870175365
31.881432,3.6170999279387255,0.14035721405097099
31.88382,3.639260909918302,0.13987751024037293
31.886199999999995,3.6575574600319047,0.13950387188315366
31.888596,3.674643305332009,0.13919228774449152
31.890984,3.6926603161918914,0.1388571516578366
31.893364,3.7133782759324916,0.13839501598124218
31.895768,3.735958566792649,0.1379020772786972
31.898152,3.7546744257868325,0.13750752902707292
31.900532,3.765801190675929,0.13731324775205364
31.90294,3.7833535666848572,0.1368979967143211
31.905324,3.7956910363874523,0.13665768897937985
31.907708,3.8081682757169077,0.1364014215606507
31.910104,3.8185036446730862,0.13622066519929663
31.912492,3.8251143513901513,0.13612800367463718
31.914871999999995,3.838010899600188,0.13583719056045743
31.917272,3.8498365126235856,0.13558661201974678
31.91966,3.8627330608336226,0.13530265959366433
31.92204,3.8697630764312683,0.13517687697403502
31.92444,3.8735802864689983,0.13515504293621652
31.926828,3.8758147046408933,0.13514694768798297
31.929212,3.8777695835590666,0.1351662787477331
31.931608,3.882006102477378,0.13510232600712196
31.933996,3.8918296147543585,0.13491128639033706
31.93638,3.9044466237106743,0.13466318833168717
31.938776,3.916272236734072,0.13442289129450577
31.941164,3.9230227130779975,0.1343274290880845
31.943544,3.9232550305034746,0.1343742179764755
31.945944,3.9316355205414792,0.13419406928271121
31.948332,3.944951377632096,0.133885578854804
31.950712,3.9531920980432407,0.13372069458147118
31.953108,3.9617123577081057,0.1335268637147992
31.955496,3.97144332218647,0.13328733126700432
31.95788,3.982245221851472,0.13301522347405814
31.960276,3.9962599270763897,0.13264240469465322
31.962664,4.006270430808474,0.13238455858775564
31.965048,4.014278833794142,0.13217799689645235
31.967444,4.02214746715295,0.13198643514244496
31.969832,4.030295639765478,0.13176716802257268
31.972216,4.042587783497699,0.1314347940197234
31.974612,4.059815294282532,0.13098406416566916
31.977,4.080395380254142,0.1304328371165886
31.979384,4.102837797345308,0.12985523642392383
31.98178,4.1207641562644435,0.12935774877750006
31.984168,4.134174457011546,0.1289437862808973
31.986552,4.149726628131925,0.1284736556261409
31.988948,4.169003461491419,0.1279326082572119
31.991336,4.189211460410691,0.1273631509139056
31.993716,4.201550825971156,0.1269806896939091
31.996116,4.210025759665646,0.12668222046867694
31.9985,4.218780232613858,0.12635661598969594
32.000884,4.228745410375568,0.12598762137363126
32.003284,4.236848257017722,0.12565518246930796
32.005672,4.243228542167179,0.1253461874724855
32.008052,4.250539992876416,0.1250238017358219
32.010448,4.254918177279456,0.12476554122157635
32.012836,4.259575900936217,0.12448079781275706
32.01522,4.263442228660059,0.12420219346982563
32.017616,4.2679601826899605,0.12393015548957532
32.020004,4.269544870413666,0.12372525178611382
32.022383999999995,4.267265126271398,0.1236019262019217
32.02478,4.258839310263018,0.12362903697752843
32.027168,4.245617896828887,0.1237518803245836
32.02956,4.237611389701089,0.1237405485319171
32.031956,4.227742551453734,0.1237636364837286
32.034344,4.214800677273324,0.12386027260001393
32.036728,4.200136241600218,0.12397604422343815
32.039124,4.190546942606583,0.1239715056411274
32.041508,4.185753241038701,0.12387296884140028
32.043887999999995,4.180959539470818,0.12377431353675812
32.046292,4.1770970034627135,0.12365872212905323
32.04868,4.172163532267971,0.12357171991543964
32.05106,4.170163327379424,0.12342268834478805
32.053456,4.1701652232372926,0.12322866258736953
32.05584,4.167094083162106,0.12310822026356191
32.058224,4.165885274206477,0.12295466240508832
32.06062,4.166818335624125,0.12274430948262478
32.063004,4.1656095266684945,0.12259022861474406
32.0654,4.163888861033668,0.12241563031292939
32.067795999999994,4.1580242242791465,0.12234404677403353
32.070184,4.153090753084404,0.12225543153878832
32.072564,4.150950778568997,0.12211575612000027
32.074968,4.150952674426866,0.12191608300563063
32.077355999999995,4.1476019950979595,0.12181820558165853
32.07974,4.1447631724482505,0.12174055455861651
32.082136,4.14313505461204,0.12162022414467238
32.08452,4.140575771216052,0.12151693107097541
32.086904,4.134943451887008,0.12148953134473195
32.089299999999994,4.126377866251769,0.12152462889108634
32.091688,4.121816482109364,0.12146741715298119
32.094072,4.1195367379670955,0.12133971773736736
32.096467999999994,4.121121425690801,0.12113548665085362
32.098852,4.12056424304123,0.12098872886971553
32.101236,4.1187963555781595,0.1208823750010289
32.103632,4.119170338488367,0.12072030819889591
32.10602,4.12182596139871,0.12049211774842362
32.108404,4.122060174682057,0.12034310802876699
32.110808,4.1276490638985965,0.12005843027357435
32.113192,4.137242154607969,0.1196932215522658
32.115576,4.155914583489648,0.11913584745072665
32.117971999999995,4.172584911624909,0.11861748901763981
32.12036,4.192887354200668,0.11799182117527068
32.12274,4.214120962336204,0.1173565875310852
32.125139999999995,4.235773879352321,0.11668863206568675
32.127528,4.263852407488269,0.11587021217575853
32.129908,4.294724432303552,0.11502120247273909
32.132307999999995,4.327319018611532,0.11415639213840659
32.134696,4.3599136049195115,0.11329385587992277
32.137076,4.392647960854352,0.1124150594700271
32.139475999999995,4.4244511512294125,0.11156353771146174
32.141864,4.450759896044422,0.11084965156253868
32.144244,4.47092256899332,0.11026429962899714
32.14664,4.489362680449522,0.10969210721818445
32.149027999999994,4.508733957465502,0.10910793745519791
32.151412,4.527825695227761,0.10855155322218024
32.153808,4.541562757056829,0.10811894354832903
32.156195999999994,4.559164250751869,0.10762317933185335
32.158576,4.570479902953938,0.10726616703150917
32.160972,4.578303210342371,0.1070088606815158
32.16336,4.581330920305052,0.10683116842816337
32.165744,4.590225162880124,0.10655754559489718
32.16814,4.594556125454921,0.10640119405546695
32.170528,4.5975366135893605,0.10629014204369432
32.172912,4.601168728029856,0.10618926650912737
32.175308,4.601448267283574,0.10616803313786215
32.177692,4.598934309857961,0.10618150692643798
32.180091999999995,4.593626855753012,0.10622972201583128
32.182488,4.590321502394479,0.10624383548043846
32.184876,4.59088058090192,0.10620220915542238
32.187256,4.592370824969139,0.1061499728888942
32.189656,4.598936205715831,0.10601119839164333
32.19204,4.610856262395715,0.10576485451121825
32.19442,4.626640750941573,0.10546495930827879
32.196828,4.641913382808233,0.10514733086765256
32.199212,4.655463453182197,0.1048416627157768
32.201595999999995,4.673157494675854,0.10445851311821291
32.203992,4.685683851691421,0.10411165343964232
32.20638,4.702493949453543,0.10367803494115649
32.208756,4.720654521656024,0.1032041358035245
32.211155999999995,4.737744158671867,0.1027517995010649
32.213544,4.750969363821736,0.10235905511548378
32.215924,4.765545043411964,0.10192417691829125
32.21832,4.780679801509633,0.10144919418301139
32.220704,4.791670588487607,0.10104507186540079
32.223084,4.800007648413108,0.10066219843968088
32.225492,4.806202837965332,0.10032024986355523
32.22788,4.816681768264108,0.09989523588082286
32.230259999999994,4.8242274322566905,0.09951437680083404
32.232656,4.8279086643832985,0.09918802378120711
32.235043999999995,4.828516860576852,0.09891401092432443
32.237427999999994,4.828333660837488,0.09864195376001396
32.239824,4.826148360351707,0.0984011752764236
32.242211999999995,4.822892124679285,0.09818139336108653
32.244592,4.820427284939783,0.09796223295862304
32.246987999999995,4.820895711506476,0.09770516331542128
32.249376,4.82164367732689,0.09742988349726618
32.251771999999995,4.826488392438754,0.0971466845605643
32.254168,4.831053568296897,0.0968848881591278
32.256556,4.835758513781902,0.09661542117643226
32.258936,4.842465560013323,0.09631891745747077
32.261332,4.847310275125186,0.09603944007464552
32.26372,4.85187545098333,0.09577961468194059
32.266104,4.855881548334034,0.09555867618287117
32.268504,4.86524232161793,0.09524453754781143
32.270888,4.876465426021381,0.0949115071977687
32.273272,4.888619695984612,0.09456688237230465
32.275668,4.899283721880623,0.09427380193064475
32.278056,4.909668208522914,0.0939986398870601
32.280435999999995,4.921123630351844,0.09370499660352387
32.282836,4.9345811529271915,0.09338416780326708
32.285224,4.947107509942759,0.09307440070105615
32.287608,4.960285493264384,0.0927766913595121
32.290004,4.975605346959288,0.09244743135650935
32.292392,4.9879919343479955,0.09215338498872316
32.294771999999995,4.997445255430507,0.09189563762918646
32.297168,5.003685770953105,0.09169146513602773
32.299555999999995,5.008623033863586,0.0914672448417281
32.301939999999995,5.012629131214288,0.09125197411225074
32.304336,5.013282653378215,0.09109857939324724
32.306724,5.011514765915145,0.09099912111533233
32.309104,5.012540375131409,0.09087516245558594
32.311504,5.014776689161174,0.09072471047152593
32.313888,5.017572081698377,0.09053685401189351
32.316272,5.019296539048943,0.09036782183059473
32.318667999999995,5.022231701213008,0.09017319404293878
32.321056,5.028379668936988,0.08992869340349544
32.32344,5.036949046287966,0.08963558475136459
32.32584,5.047939833265942,0.08929155894877688
32.328228,5.058790850617056,0.08895752585916264
32.330608,5.069781637595031,0.0886167986242306
32.333008,5.079561719759507,0.08830127517791303
32.335392,5.087898779685007,0.08797373332039245
32.337772,5.0903693069981175,0.08770785817606706
32.340171999999995,5.096424726923481,0.08742278603911018
32.34256,5.102619916475703,0.0871280088057897
32.344956,5.112027911587843,0.08678481076910566
32.347352,5.1232982378195375,0.08643084094499177
32.34974,5.13657066479765,0.08605674565962053
32.35212,5.152916127708816,0.08564330536169106
32.35452,5.167958338007868,0.08520371048424671
32.356908,5.182209152374003,0.08476413609431907
32.359288,5.194457865993719,0.08434829241087712
32.361692,5.206287270732855,0.08396035990317204
32.364076,5.216114574725575,0.08359570886880673
32.36646,5.224870943531655,0.0832486771382074
32.368856,5.23055427640468,0.08294052421265617
32.371244,5.231162472598234,0.08269213331473937
32.373624,5.231630899164927,0.0824538010803563
32.37602,5.23223909535848,0.08220692555584895
32.378404,5.231124730059338,0.08196383879367407
32.380784,5.232152235133471,0.08169131921163385
32.383192,5.234762532073442,0.08142462978111886
32.385576,5.240166325692748,0.08113863093854622
32.387956,5.2430561618864395,0.08085394342591451
32.390352,5.245806228453269,0.08057729013024267
32.39274,5.248416525393238,0.0803109682721123
32.39512,5.247953786400153,0.08008006375593617
32.39752,5.2436266155410935,0.07988061276967923
32.399904,5.2365059480027,0.07969775917988653
32.4023,5.235251813076696,0.07946397824328062
32.404692,5.232926742964054,0.07924405905692289
32.40708,5.230741442478272,0.07901482892994234
32.40946,5.226042184566876,0.07878372272001882
32.411856,5.22134292665548,0.078551854767288
32.41424,5.216364129490364,0.07833734492049425
32.416636,5.213247663444803,0.07811184822078657
32.419039999999995,5.209060262212605,0.07789880646113072
32.421428,5.201799825047352,0.0777195497230796
32.423804,5.194399618255237,0.07754882968801288
32.426207999999995,5.185788706649625,0.07740015747473625
32.428596,5.173313363178038,0.07728145655101011
32.430972,5.1609777893333115,0.0771536101113827
32.433376,5.146500345115308,0.07705398103785815
32.435759999999995,5.132954066457083,0.07694807764545751
32.438143999999994,5.119407787798857,0.07684166172074866
32.440544,5.106932444327271,0.07672042410205838
32.442927999999995,5.094457100855686,0.07659863849608417
32.445308,5.083844088503654,0.07646585828321739
32.447712,5.0781664432042355,0.07628943959098584
32.4501,5.070486697158402,0.07613227640905651
32.452479999999994,5.0628069511125675,0.0759745185884142
32.454884,5.058060471372928,0.07579337843925543
32.457272,5.0590407546188185,0.0755749085627473
32.459652,5.063094073797765,0.07532592132300261
32.462048,5.066495766670654,0.07506419879172271
32.464436,5.068314667677706,0.07479503302652278
32.466815999999994,5.0730668349909545,0.0745019390770515
32.46922,5.0790297071177,0.07418545674628586
32.471604,5.085923744804224,0.07386536442276921
32.473983999999994,5.094540343983444,0.07354359939248062
32.47638,5.109954641334834,0.07317424314280656
32.478767999999995,5.122295902753168,0.07283573471343169
32.481148,5.1390606745449166,0.07243695533034566
32.483543999999995,5.153963115217108,0.07204694205438242
32.485932,5.170727887008856,0.07164876857248265
32.488312,5.182557291747993,0.07129046439838532
32.490716,5.196388797233545,0.07091578234822214
32.493103999999995,5.2134331082790135,0.07050685880754118
32.495484,5.225681821898731,0.07012979404114236
32.497879999999995,5.234577960331672,0.06979882434696484
32.500268,5.246267595443947,0.06945692423761937
32.502648,5.255815360182947,0.06914227936687732
32.505052,5.262429858615749,0.06885046489942516
32.507436,5.265971321115498,0.06858774452560207
32.50982,5.267370913241969,0.06834752772808708
32.512224,5.269561901301359,0.068112017321031
32.514608,5.273754990107165,0.0678621521018786
32.516988,5.281812510778946,0.0675916302373851
