Time,Force,Position
32.129768,0.060754104730468814,0.0
32.132155999999995,0.0664031024664805,0.0
32.134536,0.06911883389629701,0.0
32.13693599999999,0.06854497283975756,0.0
32.139324,0.06956868619815294,0.0
32.141707999999994,0.07347844403450035,0.0
32.144104,0.07762051929632502,0.0
32.146491999999995,0.08320561679712571,0.0
32.148876,0.08758000948442764,0.0
32.15127199999999,0.09074369735823083,0.0
32.15366,0.08934410523175948,0.0
32.156043999999994,0.09166917534440142,0.0
32.15844,0.09501795881543873,0.0
32.160827999999995,0.09608510228633876,0.0
32.163212,0.10059736874263168,0.0
32.16560799999999,0.10590103113184268,0.0
32.167996,0.11451004687958635,0.0
32.17037599999999,0.1265641856127229,0.0
32.172776,0.13740761953236066,0.0
32.175163999999995,0.14969407569097448,0.0
32.177548,0.16277192778250638,0.0
32.17994399999999,0.1748713924860168,0.0
32.18233599999999,0.19227831129447673,0.0
32.184715999999995,0.21705678933164482,0.0
32.187112,0.23893444034176223,0.0
32.189504,0.25834535575450823,0.0
32.191884,0.28245932079438907,0.0
32.194284,0.3051302635952939,0.0
32.19667199999999,0.32687004083642035,0.0
32.199056,0.3498205228910455,0.0
32.201452,0.37705474569222486,0.0
32.203844000000004,0.40335780293362583,0.0
32.20622399999999,0.4267748156970748,0.0
32.20862,0.44888857584840797,0.0
32.211012,0.46541534264107126,0.0
32.213392,0.473142310515149,0.0
32.21579199999999,0.4784950905904724,0.0
32.218180000000004,0.47597923730698866,0.0
32.220564,0.4743945495832832,0.0
32.22296,0.4753710411134354,0.0
32.225348,0.4767668415241682,0.0
32.227732,0.4799324252558406,0.0
32.23012799999999,0.48165498674853713,0.0
32.232519999999994,0.4787217204423419,0.0
32.2349,0.4800249730544578,0.0
32.23729999999999,0.4744833056661618,0.0
32.239688,0.4638665015983935,0.0
32.24207199999999,0.4512475967842084,0.0
32.244468,0.4427726630897172,0.0
32.246855999999994,0.43522889495500433,0.0
32.24924,0.4248916301409565,0.0
32.25163599999999,0.41269203420735207,0.0
32.254024,0.40193546051272355,0.0
32.25640799999999,0.39369284424370965,0.0
32.258804,0.39038559502730774,0.0
32.261196,0.3970888495429901,0.0
32.263576,0.4028609384988941,0.0
32.26597199999999,0.4150586385746293,0.0
32.26836399999999,0.42446284197102957,0.0
32.270748,0.431864944621013,0.0
32.273144,0.4359144720842206,0.0
32.275536,0.4388930643607897,0.0
32.277919999999995,0.44094049107758043,0.0
32.280316,0.4427083785406508,0.0
32.282708,0.4396806685779693,0.0
32.285104000000004,0.4420076345484805,0.0
32.287499999999994,0.44526576607877,0.0
32.289891999999995,0.452388329475033,0.0
32.292276,0.4573690224980189,0.0
32.29467199999999,0.45941644921480973,0.0
32.29706,0.4642573726109354,0.0
32.299443999999994,0.4690982960070612,0.0
32.301844,0.47608108977646396,0.0
32.304232,0.48320365317272695,0.0
32.30661599999999,0.4912573821287683,0.0
32.309012,0.4965176144054746,0.0
32.311404,0.5055025089212942,0.0
32.313784,0.513136928996755,0.0
32.31618399999999,0.5271969601920468,0.0
32.318572,0.540837682506758,0.0
32.320955999999995,0.5598330807546619,0.00599551554032491
32.323356000000004,0.5746845078828718,0.005995515540324909
32.325744,0.587533834264665,0.005995515540324909
32.32812799999999,0.6037357358332339,0.00599551554032491
32.330524,0.6238020692677763,0.01211324121766691
32.332916,0.6469414386353741,0.01788418859170513
32.335296,0.671431282443331,0.023477347628217092
32.337695999999994,0.6937792558780105,0.029179542365482185
32.340087999999994,0.712402567073577,0.03515627024846338
32.342472,0.7318172742020616,0.04125280724308709
32.34486799999999,0.7461568446510739,0.04125280724308709
32.347256,0.762498515846503,0.04125280724308709
32.349639999999994,0.775255294429679,0.04125280724308709
32.35204,0.7841476411468815,0.04125280724308709
32.354428,0.790106721557889,0.04125280724308709
32.35681199999999,0.791642291595482,0.04125280724308709
32.359212,0.7890338905133811,0.04125280724308709
32.3616,0.7856340934983621,0.04125280724308709
32.363984,0.7768796205501505,0.04125280724308709
32.36637999999999,0.7706863268557965,0.04125280724308709
32.36877199999999,0.7568567172281129,0.035257291702762185
32.37116,0.7463796827872047,0.035257291702762185
32.37356,0.7397670802122702,0.035257291702762185
32.375947999999994,0.7288707368907816,0.035257291702762185
32.378339999999994,0.7141099617033195,0.029139566025420185
32.380748,0.6961363809559419,0.02336861865138196
32.38313599999999,0.676672556141345,0.017775459614870003
32.385524000000004,0.6556259394609119,0.012073264877604906
32.387924,0.6404458553928692,0.006096536994623712
32.390311999999994,0.6244743753919083,0.0
32.39269999999999,0.6125070968837809,0.0
32.39510799999999,0.6024021494952103,0.0
32.397499999999994,0.5956025554651724,0.0
32.399908,0.5875922566216357,0.0
32.40230799999999,0.5777196266585425,0.0
32.404696,0.5730619030017816,0.0
32.4071,0.5737588552782134,0.0
32.40949599999999,0.5721741675545079,0.0
32.411891999999995,0.5703099405770821,0.0
32.414288,0.5660243039726587,0.0
32.41668799999999,0.5724480192346205,0.0
32.419076000000004,0.5804545263624187,0.0
32.421471999999994,0.589252429423135,0.0
32.42387599999999,0.596327770991155,0.0
32.426264,0.6021924077456761,0.0
32.428659999999994,0.6089882100599755,0.0
32.431056,0.617925882747552,0.0
32.433452,0.6313796136071599,0.0
32.43584799999999,0.641620538906852,0.0
32.438236,0.6557258960725177,0.0
32.440631999999994,0.6699710228650438,0.008148195641671631
32.443032,0.6814226529782348,0.016296391283343262
32.44542,0.6910119519718693,0.024582637031666847
32.447816,0.7076784883913927,0.032319256320466026
32.45021199999999,0.7294201614903882,0.039630628621669044
32.452600000000004,0.7523725394028827,0.0465677363220121
32.454995999999994,0.7691788454492665,0.05378597243207345
32.457392,0.7930623889215394,0.060537586332623336
32.459779999999995,0.8212296731403662,0.0670286269396593
32.462164,0.85153882773247,0.07338984338115559
32.46455999999999,0.8726288745254078,0.0800434108875518
32.466948,0.8919963598256493,0.08669697839394803
32.46932799999999,0.9068477869538591,0.09349791249335505
32.471723999999995,0.929288308187156,0.09994804247731336
32.47411199999999,0.95973723240612,0.10605852381066488
32.476496,0.9901861566250841,0.11215503916282574
32.478892,1.0158394834182967,0.11846260106120002
32.48128,1.040841183905451,0.12461370294944571
32.48366,1.0621182221534922,0.13108832797632267
32.48605599999999,1.0785996629757815,0.13774173489513522
32.48844799999999,1.095081103798071,0.13617864612278308
32.49082799999999,1.1094206742470833,0.13484922679700456
32.493224,1.1249709495095943,0.13330929078851014
32.495611999999994,1.1386588936525488,0.13213618657803985
32.497996,1.148063097048949,0.13154686334516896
32.50039199999999,1.1550458908183519,0.13135361041193266
32.502776,1.162959850147533,0.13104314503950526
32.505160000000004,1.164727737610603,0.13141877939851027
32.507555999999994,1.166216085819953,0.1318749029275756
32.50994399999999,1.1647711677231078,0.13258160825938461
32.51232399999999,1.1710551133582097,0.13264485829320444
32.514724,1.177059519739591,0.13279400317222773
32.517112,1.1865090491063652,0.13275017043035703
32.519492,1.1920941466071657,0.1330351820397003
32.521891999999994,1.1968878481750482,0.13334444765582132
32.52427999999999,1.2019610889966514,0.13357576407621477
32.526664,1.2146234239233413,0.1333479493025305
32.52906,1.2260750540365322,0.1332649259416481
32.531452,1.2469781093743666,0.13263400432319683
32.533832000000004,1.2734681580708709,0.13170095616030256
32.536227999999994,1.2976765667672379,0.1309653477328143
32.53861599999999,1.3246784721429399,0.1300182562785745
32.541,1.3496782767722248,0.12921409122726604
32.543396,1.3725362110282329,0.12862381433957826
32.545784,1.3943232100976028,0.128055003581759
32.548168000000004,1.4133167124876373,0.127621439484654
32.550563999999994,1.4375251211840046,0.12678082934170123
32.55295199999999,1.4641549395073692,0.12564817683812418
32.555336,1.4879912611513986,0.124726597497638
32.557732,1.5128985179820669,0.12368426051994778
32.560124,1.532079011827205,0.12306612685196407
32.562507999999994,1.5535411456724801,0.12224835512202918
32.564904,1.5735602572787797,0.12144562024939758
32.567291999999995,1.5919965770192426,0.12067419043040174
32.569676,1.604426594520455,0.12033229143911259
32.57207199999999,1.615785676835029,0.12008230762474169
32.57446,1.6204868306042945,0.12020037018914616
32.57683999999999,1.6254675236272802,0.12025322797546116
32.57924,1.6244891362392586,0.12047697383324589
32.581627999999995,1.6194139995597863,0.12076987976572685
32.584012,1.6189021428805888,0.12071646037673395
32.58640799999999,1.618949364708832,0.12054194567245483
32.588796,1.6242114928434077,0.12006952301984973
32.59117599999999,1.6285424554182049,0.11962802686864657
32.593576,1.6383678635530547,0.1188249378437623
32.595963999999995,1.6534081779942373,0.11772219270017999
32.598348,1.661371255009531,0.11700518139112738
32.60074399999999,1.6671924616515477,0.11641979484663512
32.603132,1.6703599412410894,0.11590198126218434
32.605515999999994,1.6732478815769105,0.11544244178927811
32.607916,1.6770669874725102,0.11493908415761998
32.610304,1.679675388554611,0.11454379481843806
32.61268799999999,1.6820042503829915,0.11420817616109878
32.615084,1.68512450814429,0.11386321221435841
32.61747199999999,1.690107097025145,0.11343330379581455
32.619851999999995,1.69481014665228,0.11306206627891222
32.622252,1.703377628145388,0.11250005928024923
32.62464,1.7098032392652194,0.11207904913845193
32.62702399999999,1.7178116422508867,0.11164740256267298
32.62942,1.7261921322888916,0.11129867485515803
32.63180799999999,1.7310802775132603,0.11122487962175116
32.634192,1.7356888834839088,0.11121462970493201
32.63659199999999,1.7341514175884467,0.11153271219500702
32.638980000000004,1.7346160524394014,0.11175226742274574
32.641364,1.733078586543939,0.11206048197440538
32.64376,1.726605753595865,0.11258205997717116
32.646148,1.7272101580736796,0.1127670076915438
32.648532,1.729304806618713,0.11281036346065243
32.65092799999999,1.735403656656581,0.11267001239921665
32.653319999999994,1.7443432252020266,0.1122817728922075
32.6557,1.7518397715084966,0.11186762848466275
32.65809999999999,1.7589642307626285,0.11138054420214419
32.66049199999999,1.7685100996437582,0.11073503091574458
32.662868,1.776193637405331,0.11014094224911389
32.665272,1.782294383301068,0.10954476141862828
32.66766,1.786952106957829,0.10891804872346772
32.67004,1.784020736509503,0.10856909623212692
32.67243599999999,1.778156099754982,0.10835150458789057
32.674824,1.7701495926271837,0.10826570843136528
32.677204,1.761631228820188,0.10812522298594615
32.67959999999999,1.753811713147493,0.10783252050021055
32.681988000000004,1.7470631326614368,0.10747474756884468
32.68436799999999,1.7423166529217973,0.10701609035204325
32.686768,1.7346369068759628,0.10669437441856244
32.68915199999999,1.7276087871361863,0.10639558293140533
32.691536,1.7225827681428265,0.10599560671140928
32.693932000000004,1.7108988206041582,0.10586305447286577
32.69632,1.697864398625131,0.10584927478462425
32.69870399999999,1.6845504373923834,0.10588439939635343
32.7011,1.6668129657862214,0.10618250435241139
32.70348799999999,1.6517292212325343,0.10640818427698275
32.705867999999995,1.6331531318652108,0.10689202610504044
32.708264,1.611224467311112,0.10757977553123681
32.710652,1.5931602346229865,0.10810204294993571
32.713036,1.5778894986141958,0.10852619501253945
32.71543199999999,1.5655520289116005,0.10882135067009475
32.71782,1.5641562285008677,0.10862294453308138
32.720203999999995,1.5682548736501876,0.10808431028703346
32.7226,1.5744953891727849,0.10742205182630063
32.724988,1.5824584661880783,0.10673118443872724
32.727368,1.5932150398827065,0.10597892702595138
32.72976799999999,1.6011781168979997,0.1053243984695166
32.732156,1.6094207331670134,0.10461680454826008
32.73453599999999,1.6191535935032466,0.10375236104701269
32.736940000000004,1.6250220219735063,0.10303170439246837
32.739324,1.6327527815633225,0.10226769491572764
32.741708,1.6422061026458348,0.1014533282864808
32.74410399999999,1.6535217548479042,0.10057968082657665
32.746488,1.6620439103706384,0.09978884968705888
32.748868,1.6732197929458477,0.09892799182904928
32.75127599999999,1.6821140355209194,0.09821471445932847
32.75366,1.6942210836559068,0.09729451140568766
32.756044,1.7043260310444774,0.09643248358685437
32.75843999999999,1.7094956113804363,0.09579757689984754
32.760828000000004,1.7134544869028958,0.0952635426383707
32.76320799999999,1.7172735927984955,0.09477171416702099
32.765604,1.7177401235073193,0.09451083970065383
32.76799199999999,1.7184389716416204,0.09436948412821142
32.770388,1.7180668845892828,0.09428408076419244
32.772784,1.7174152582832247,0.0942548886532682
32.775172,1.7083359201109187,0.09463911198085359
32.777552,1.6999082082446713,0.09505612289981129
32.77994799999999,1.6909214178709824,0.09558667922470764
32.782336,1.6841690456691878,0.0961406260523853
32.784716,1.6784876086540315,0.09665214157983947
32.78711199999999,1.670804070892458,0.09723743497043194
32.789500000000004,1.66577426018336,0.09776701463052917
32.79187999999999,1.6618153846609003,0.09823106426435145
32.794276,1.6626521065641922,0.09853695999057877
32.79666399999999,1.664839302907843,0.0987336993937454
32.79906,1.67051884406513,0.09872527491886438
32.80145999999999,1.6761983852224167,0.09871855249377195
32.803848,1.6881637678726746,0.09843844713699236
32.80622799999999,1.7029226472022678,0.09806988070550962
32.808628,1.7198233969051375,0.09760618996583799
32.81101199999999,1.7335113410480922,0.09729109356990918
32.813396,1.7411929829517958,0.09719814684890107
32.81579599999999,1.7470122937359431,0.09715656007477871
32.81818,1.7508295037736736,0.09719134742949573
32.82056399999999,1.7529241523187076,0.09725036488723234
32.822968,1.7620960382896305,0.09700060995564166
32.825351999999995,1.7694055931409967,0.09679924616076648
32.827732,1.777925852805862,0.09651119746001677
32.830136,1.7865858820975873,0.09620538324780904
32.83252399999999,1.7961770769490908,0.09586822247268655
32.834903999999995,1.802695235867539,0.09566283157640798
32.8373,1.8074908332932909,0.09549011411086222
32.839687999999995,1.807490833293291,0.09549011411086225
32.842068,1.804557566987096,0.0956016922289657
32.844464,1.7996221999344837,0.09579061276726031
32.846847999999994,1.791474027321956,0.09613509865767848
32.849232,1.785048416202125,0.09644802446662723
32.851636,1.7762013954552962,0.09690165857462331
32.854023999999995,1.7684253098951062,0.09730324544024162
32.856404,1.758647123588499,0.09777009999639477
32.858808,1.7548752395211427,0.09801669438916003
32.86119599999999,1.7583203625065356,0.09797467278519832
32.863575999999995,1.762045024745649,0.0978814741767426
32.865972,1.7694943492238753,0.09769249910234745
32.86836,1.7765243648215214,0.09757438311987197
32.87074,1.7836941500460275,0.09743782991710928
32.873136,1.7948681367633674,0.09715597169452113
32.875524,1.8061818931075675,0.09685615165564718
32.877904,1.8156333183322109,0.09660712218093412
32.88029999999999,1.827086844303271,0.09629545861863213
32.882688,1.8485508740064152,0.09566155890695473
32.885071999999994,1.8718772348291166,0.09499546734702041
32.887468,1.902513150503184,0.09418923114768804
32.889855999999995,1.9350113972968084,0.09335396039716172
32.89224,1.9689526663294081,0.09255766092399884
32.89463599999999,2.008620698347539,0.09164568797400066
32.897024,2.0452156944326134,0.09084143191415635
32.899404000000004,2.0810192945847703,0.09003710014662401
32.901804,2.1178938299235655,0.08921523069310372
32.904191999999995,2.154908134889221,0.08837498749190821
32.906572,2.1891289431755414,0.08763419507570992
32.90897199999999,2.2181348451555296,0.08707779377167252
32.91136,2.2488633086282146,0.08652057010256857
32.91373999999999,2.2792196850485618,0.08591599962346666
32.916135999999995,2.315210276655822,0.0850982859528021
32.918527999999995,2.3502697027033035,0.08432230680811972
32.920908,2.383466797631229,0.08359608541840587
32.923312,2.4177348277457926,0.08285985919272336
32.92569999999999,2.4542844978604936,0.0820547708789203
32.928079999999994,2.4888320672287785,0.08131231665270616
32.93048399999999,2.5119261106260025,0.08079143373103659
32.932872,2.5345082973440283,0.08024261962416246
32.93525199999999,2.550851864397327,0.07975170912664403
32.937648,2.5603977332784567,0.07937412718264979
32.94003599999999,2.5624942776813593,0.07908882312675987
32.942415999999994,2.5539286920461204,0.07900353218250347
32.94481999999999,2.5476447464110183,0.0788350348738555
32.947208,2.542431735962555,0.07863441054508746
32.94958799999999,2.539360595887369,0.07837447312388263
32.951984,2.5369410821182408,0.0781401615435747
32.95437199999999,2.53065713648314,0.0779712383760865
32.956756,2.529867636408091,0.07763206601046535
32.959152,2.5273555748403456,0.07730049811438076
32.96154,2.5244242043920195,0.07702527514955691
32.96392399999999,2.518280028383778,0.07683828735987779
32.96632,2.5119960827486763,0.07666926715366923
32.96870799999999,2.5065035330464926,0.0765075148743306
32.971092,2.5008712137174487,0.0763634272480361
32.973488,2.488953052895434,0.07636238954482544
32.975880000000004,2.476895122446559,0.07637931503211563
32.97825999999999,2.4692134805428547,0.07638313909807057
32.980656,2.458039493825515,0.07650506242198327
32.98304399999999,2.4495192341606495,0.07661407335623543
32.985423999999995,2.4482159815485343,0.0765635755413102
32.98782,2.456783463041642,0.07633633027610477
32.990208,2.4742905130801955,0.07593489571155597
32.992588,2.489935231999193,0.07555806927339048
32.99498799999999,2.5027864542388563,0.07521387716131335
32.997376,2.5085604390526295,0.07501840002377634
32.99975599999999,2.513822567187205,0.07478074528249357
33.002151999999995,2.523880292747533,0.07447361677197975
33.00453999999999,2.529374738307585,0.0743177536549625
33.006919999999994,2.5358003494274164,0.07415399983892551
33.00932,2.5432968957338864,0.07396646704884405
33.011703999999995,2.548791341293939,0.0738155688008533
33.014088,2.552563225361295,0.0736661097939362
33.01648399999999,2.552750216816399,0.07353509765294153
33.018872,2.547210445285972,0.07347667857560117
33.02126799999999,2.5476769759947957,0.07330805213107987
33.023664,2.550425146703757,0.07306922782419605
33.02605199999999,2.5534528566664387,0.07279508696943873
33.028431999999995,2.557831041069479,0.07245382854715032
33.030835999999994,2.5586243328602665,0.07213091891880034
33.033224000000004,2.5600692509571115,0.07184117415986198
33.03560399999999,2.5599313771881205,0.07154189525136784
33.038,2.5576516330458525,0.07129641446885758
33.04038799999999,2.561098651889114,0.07099268751321175
33.042767999999995,2.5662682322250725,0.07068845325159764
33.045168000000004,2.573439913307448,0.07034619513046508
33.047556,2.5801922855092423,0.0700550879220297
33.049936,2.5850823265914813,0.06978270728043516
33.052336,2.5916023813677986,0.06941856709202557
33.05472399999999,2.597331040211198,0.06904842905232432
33.057108,2.5981243320019853,0.06874681182769832
33.059504000000004,2.5998487893525515,0.06843673155464708
33.061892,2.6025044122628946,0.0681187476461459
33.06427599999999,2.609815862972131,0.06776395051172786
33.066672,2.622854076666896,0.06734572446261959
33.06905999999999,2.638034160734939,0.06689584015537271
33.07144,2.650141208869927,0.0665031503909621
33.073836,2.6650417536842497,0.06609799144332221
33.076224,2.6807336944314897,0.06570197383871706
33.078604,2.7029437940971786,0.06526564740909856
33.08100399999999,2.7203582963371153,0.06488020441131043
33.083388,2.734280453763416,0.06459773684110846
33.08577199999999,2.7475509848836595,0.06429248612568193
33.088168,2.754023817831733,0.06406257770725912
33.09055599999999,2.7597052548468897,0.06382203098198333
33.092935999999995,2.7685994974219614,0.06352134875512024
33.095332,2.7788442144373926,0.06317083138340875
33.097724,2.788017996266185,0.06284039453972703
33.100104,2.797843404401035,0.06253984208604087
33.10249999999999,2.8073892732821646,0.062271438022360105
33.104888,2.823081214029405,0.06191454685931442
