Time,Force,Position
32.809335999999995,0.15873462929452983,0.0
32.811732,0.13822895323133388,0.0
32.81412,0.12079631310119325,0.0
32.816503999999995,0.10336367297105269,0.0
32.8189,0.0859310328409121,0.0
32.821288,0.0672876878972728,0.0
32.823668,0.05157760925982866,0.0
32.826068,0.036798696182162825,0.0
32.828456,0.026955150157109024,0.0
32.830836,0.016040668945416697,0.0
32.833236,0.008990619599697857,0.0
32.835624,0.005805002119952512,0.0
32.838004,0.005805002119952512,0.0
32.840404,0.005805002119952512,0.0
32.842796,0.005805002119952512,0.0
32.84518,0.005805002119952512,0.0
32.847576,0.005805002119952512,0.0
32.849964,0.0046214853866240165,0.0
32.852348,0.0014358679068786702,0.0
32.854744,0.0002523511735501744,0.0
32.857132,0.0,0.0
32.859516,0.0,0.0
32.861915999999994,0.0,0.0
32.864304,0.0,0.0
32.866684,0.0,0.0
32.869083999999994,0.0,0.0
32.871472,0.0,0.0
32.873852,0.0,0.0
32.876251999999994,0.0,0.0
32.87864,0.0,0.0
32.88102,0.0,0.0
32.883416,0.0,0.0
32.88580399999999,0.0,0.0
32.888188,0.0,0.0
32.890584,0.0,0.0
32.89297199999999,0.0,0.0
32.895356,0.0,0.0
32.897752,0.0,0.0
32.900144,0.0,0.0
32.902524,0.0,0.0
32.904923999999994,0.0,0.0
32.907312,0.0,0.0
32.909692,0.005095170427545137,0.0
32.912091999999994,0.012192441601507124,0.0
32.91448,0.023154144641442602,0.0
32.916864,0.031042811748322702,0.0
32.919259999999994,0.04186474516139797,0.0
32.921651999999995,0.04947387301455765,0.0
32.924035999999994,0.057362540121437745,0.0
32.926432,0.06445981129539974,0.0
32.928819999999995,0.07248824802914004,0.0
32.931203999999994,0.0817273895763791,0.0
32.933603999999995,0.09110630075047836,0.0
32.935992,0.10155614711121613,0.0
32.938376,0.11014366235239728,0.0
32.940772,0.12152467427291341,0.0
32.94316,0.13076381582015245,0.0
32.945539999999994,0.13907179180761317,0.0
32.947936,0.14551743667551725,0.0
32.950323999999995,0.14595677930417078,0.0
32.952707999999994,0.14653589155968452,0.0
32.955104,0.1465358915596845,0.0
32.957491999999995,0.14144072113213937,0.0
32.959875999999994,0.1343434499581774,0.0
32.962272,0.12338174691824196,0.0
32.964659999999995,0.11549307981136185,0.0
32.96704,0.1046711463982866,0.0
32.969435999999995,0.09706201854512693,0.0
32.971824,0.08917335143824683,0.0
32.974208,0.08207608026428483,0.0
32.976608,0.07404764353054451,0.0
32.978995999999995,0.06480850198330547,0.0
32.981376,0.05542959080920621,0.0
32.983771999999995,0.044979744448468424,0.0
32.98616,0.03639222920728727,0.0
32.98853999999999,0.02501121728677115,0.0
32.990936,0.0157720757395321,0.0
32.993323999999994,0.007464099752071371,0.0
32.99570799999999,0.0010184548841672809,0.0
32.998104,0.0005791122555137458,0.0
33.000491999999994,0.0,0.0
33.00287599999999,0.0,0.0
33.005275999999995,0.0,0.0
33.007664,0.0,0.0
33.010048,0.0,0.0
33.012443999999995,0.0,0.0
33.014832,0.0,0.0
33.017211999999994,0.0,0.0
33.019611999999995,0.0,0.0
33.022,0.0,0.0
33.024384,0.0,0.0
33.026779999999995,0.0,0.0
33.029168,0.0,0.0
33.031552,0.0,0.0
33.033947999999995,0.0,0.0
33.03634,0.0,0.0
33.03872,0.0,0.0
33.04112,0.0,0.0
33.043508,0.0,0.0
33.045891999999995,0.0,0.0
33.048288,0.0,0.0
33.05068,0.0,0.0
33.053059999999995,0.0,0.0
33.05546,0.0,0.0
33.057848,0.0,0.0
33.060232,0.0,0.0
33.062631999999994,0.0,0.0
33.06502,0.002528303600079719,0.0
33.0674,0.012084726939936112,0.0
33.069799999999994,0.031322997072043966,0.0
33.072188,0.058985187354661364,0.0
33.074572,0.10093783040017865,0.011408341628284654
33.076967999999994,0.15382835102182002,0.02230586064963866
33.079356,0.2205900155257807,0.032478331175686534
33.08174,0.299360492792504,0.042347773867718944
33.084135999999994,0.38855699095615365,0.05207715789293055
33.086524,0.4908332370692045,0.06152843269198706
33.088904,0.6083311015049336,0.07060522220033714
33.091303999999994,0.7442633898232563,0.07919728448596543
33.093692,0.8924840301580621,0.0877170892937037
33.096076,1.0537844184422693,0.09615863653178926
33.098476,1.225091518742822,0.10466474768273645
33.100863999999994,1.4108288414331347,0.11302643828169712
33.103244,1.6111361561400677,0.12125025233006867
33.105644,1.824198353572308,0.12933635268781601
33.108031999999994,2.0467100803713225,0.13735541980268892
33.110412,2.281744372470166,0.14522283416556864
33.112807999999994,2.5197429106711136,0.15308431805374542
33.115196,2.7587670580883255,0.16084279269468563
33.11758,2.991507259870436,0.16860198456016354
33.119975999999994,3.2198277429948714,0.17626134602880908
33.122364,3.4339975429832656,0.17250151460868868
33.124748,3.6367176087163395,0.16923903156372386
33.127143999999994,3.8229128035146185,0.16674845738222438
33.129532,3.9964475592440767,0.16455835592986012
33.131916,4.158485358889971,0.16253896103152904
33.134316,4.3034392090936295,0.16090024310724005
33.136703999999995,4.431169340228195,0.1596885504295022
33.139084,4.5392543426666645,0.15900546194520263
33.141479999999994,4.633468201222818,0.1584137490337003
33.143868,4.714881851083289,0.15787708274189832
33.146252,4.78950159448733,0.15717897813290393
33.148647999999994,4.849830885128472,0.15661391493196022
33.151036,4.8949385574469355,0.15618440607395864
33.15342,4.927291347040091,0.15589261090658124
33.15582,4.954198808759306,0.15556482782781567
33.158207999999995,4.967652539618914,0.15540853297309382
33.160591999999994,4.974030928910503,0.1552756721654925
33.162988,4.970633027753354,0.15527493506142503
33.165375999999995,4.968400505439329,0.15512644718202268
33.167759999999994,4.9610928464458315,0.15510845741406468
33.170156,4.953365878571754,0.15512367629389162
33.172543999999995,4.946290537003734,0.15514118442524108
33.174927999999994,4.942148461741909,0.1550894999263418
33.177324,4.938518243159281,0.1550515303873612
33.179711999999995,4.936098729390153,0.1549717531061297
33.182095999999994,4.936892021180941,0.15479786224666564
33.184492,4.943039988904921,0.15446901480371378
33.186879999999995,4.9494674958826215,0.15411539445749803
33.189263999999994,4.958269190659076,0.15373454576304824
33.19166,4.967862281368448,0.15334695114804694
33.194047999999995,4.974382336144765,0.15304530034733096
33.196431999999994,4.977829354988028,0.1528232730616812
33.198832,4.985932201630183,0.15250568252553898
33.20122,4.9941748178991965,0.1521772359266114
33.203604,4.994269261555682,0.15206055200287122
33.206,4.9952948707719464,0.1519240326070806
33.208392,5.000556998906523,0.15172363856490056
33.210776,5.006470753347156,0.15152415028307306
33.213176,5.007681458160655,0.15148271386488465
33.21556399999999,5.007029831854597,0.15148000817950058
33.217952,5.00707705368284,0.1514214199666216
33.220352,5.00898660663064,0.15132422931399586
33.222739999999995,5.013689656257775,0.15117073212257454
33.225123999999994,5.0198829499521285,0.15095510661199218
33.227523999999995,5.0299406755124565,0.15065708267080916
33.229916,5.041860732192339,0.1503224137290496
33.232299999999995,5.047355177752392,0.15016476678242383
33.23472,5.054060328125945,0.14996670516898433
33.237108,5.062115952939855,0.14972002308413007
33.239495999999995,5.070311347380626,0.14946482126199825
33.241912,5.079577677008036,0.14918242941341583
33.244304,5.092708438501419,0.14881468365350484
33.246688,5.098901732195772,0.14860700545285424
33.24908799999999,5.104815486636406,0.14842068021952634
33.251476,5.114081816263815,0.14813264378655444
33.25386,5.124698620331583,0.14779565709474163
33.25626,5.1330810062274566,0.1474737195835415
33.258652,5.145607363243024,0.14705020636067823
33.261036,5.157342324325675,0.1466324650026584
33.263431999999995,5.175083587647575,0.1460749796388243
33.265815999999994,5.194407642835311,0.14550837043399253
33.268196,5.210798431716853,0.14500774235393135
33.270588,5.221043148732283,0.14465550479013675
33.272976,5.230077160934217,0.14434398761552802
33.275355999999995,5.2332446405237585,0.14415954684328972
33.277759999999994,5.237762594553659,0.14392889480902502
33.280144,5.246424519703252,0.1435970838886722
33.282523999999995,5.256948775972402,0.1432341139568108
33.284927999999994,5.263468830748721,0.14296007714948092
33.287312,5.267847015151762,0.14274078795701672
33.289691999999995,5.269012393994887,0.1426027690614303
33.292084,5.270597081718592,0.14243469411125562
33.294472,5.2784676109352695,0.14211573922558338
33.296851999999994,5.288759549778943,0.1417250796426591
33.299252,5.302124524555673,0.14126720826759492
33.30164,5.313207859332264,0.14087349899517296
33.304019999999994,5.323080489295358,0.14051656438638102
33.306424,5.330951018512035,0.140206098315571
33.308808,5.338309691049513,0.13987978816652102
33.311192,5.3410125357881,0.13963469834791423
33.313584,5.341061653474212,0.13942779244480047
33.315971999999995,5.343252641533602,0.13916954571012638
33.318352,5.352800406272602,0.13874269534824063
33.320747999999995,5.364210502131157,0.1382874022324164
33.323136,5.374689432429934,0.1378422678595595
33.325531999999995,5.379534147541798,0.13754565704049052
33.327928,5.38051443078769,0.13732149565277244
33.330312,5.38028400922008,0.1371343987070584
33.332691999999994,5.385268493958806,0.13683032122803934
33.335096,5.389321813137751,0.13653991859477008
33.337484,5.396727707503473,0.13616192396995777
33.339864,5.4038540626154745,0.13580655331346198
33.342268,5.407627842540701,0.13553988049134286
33.344652,5.406326485786455,0.13537899041337775
33.347032,5.401952093099151,0.13528344597442093
33.349436,5.399719570785126,0.1351379798986757
33.35182,5.399489149217518,0.13495266232232897
33.3542,5.400609202090268,0.13472455085277657
33.356604,5.402101342015357,0.1345195771146337
33.35899199999999,5.405176273806282,0.13430372860444562
33.361372,5.409042601530126,0.13408264995698257
33.36376799999999,5.408904727761135,0.13394048225634234
33.366156,5.400758451006476,0.13395695260777118
33.368531999999995,5.388096116079787,0.13403786134911402
33.37094,5.381579853019208,0.1339896365195375
33.373324,5.379626869958903,0.13382285568311045
33.375704,5.381817858018293,0.13356619103409298
33.378108,5.3814948886520675,0.1333343249931336
33.380495999999994,5.3758172433526505,0.13322649222920913
33.382876,5.372281468426509,0.13306887001988305
33.38527199999999,5.363530787194036,0.13302551596730278
33.38766,5.3519866092822275,0.13302712416738907
33.39004,5.338580100250862,0.13305968326938464
33.392444,5.330900354205028,0.1329912837989415
33.394831999999994,5.324151773718971,0.13290760793523973
33.39721599999999,5.315261322859639,0.1328738626173578
33.399612,5.302226900880612,0.13293113144040272
33.401999999999994,5.2836980333415315,0.1331246571366104
33.40438,5.265448705056173,0.13329975111658215
33.406775999999994,5.2493412471440895,0.1334219698897669
33.409164,5.233885415538064,0.13354844231246193
33.411544,5.222294015798013,0.1336051473972857
33.41394,5.2162896094166324,0.13357107320156453
33.416332,5.214661491580422,0.1334807005622221
33.418712,5.210611964117215,0.1334606720917777
33.421108,5.208284998146703,0.13342053325418055
33.423496,5.208471989601807,0.13335682554845624
33.425875999999995,5.2131750392289415,0.13323191653783534
33.428279999999994,5.217738319229215,0.13311509508831115
33.430668,5.22123066404285,0.13302258239244222
33.433048,5.230729311095738,0.13281272762243748
33.435444,5.246094490761015,0.13249907861990648
33.43783199999999,5.2623908359860705,0.13216796962012428
33.440211999999995,5.27603345415865,0.13187429429965675
33.442615999999994,5.293680273824065,0.1315097234506595
33.445004,5.3123980286761165,0.13112065256555827
33.447384,5.33698231614056,0.1306273417078929
33.44978,5.365850344351557,0.13003482034266733
33.45216799999999,5.3995139699883055,0.12936938873244425
33.454552,5.4299647900651395,0.1287779612361239
33.456948,5.45697048715658,0.12821992239154129
33.45933599999999,5.482113853128464,0.1276912447022879
33.461716,5.505534657607652,0.12718445545946414
33.464112,5.528303835780782,0.12667770736390915
33.4665,5.547999978020855,0.12622906274636322
33.468884,5.566485415447431,0.12582008262774944
33.47127999999999,5.579104320261616,0.12551268069826327
33.473664,5.5861362317171315,0.1252858893609221
33.476048,5.597451883919199,0.12496804777373306
33.478444,5.610210558360246,0.12465150483731503
33.480827999999995,5.623760628734209,0.12433625565361292
33.483224,5.630093692055422,0.1241597435590077
33.485623999999994,5.6382890864961945,0.12395722304631643
33.488012,5.645134006496606,0.12379532007720896
33.490392,5.645693085004046,0.12375825868191201
33.492788,5.647043559444405,0.1237176810099108
33.495175999999994,5.647462868324986,0.12369025848581164
33.497556,5.645740306832289,0.12370626078376762
33.49995199999999,5.638942608660121,0.12381140028874728
33.50234,5.634147011234369,0.12388270010216366
33.504724,5.63293630642087,0.1239134259686593
33.50711999999999,5.634379328659847,0.12391578900397854
33.509504,5.635682581271963,0.12392725673317437
33.511883999999995,5.63563535944372,0.1239783027220599
33.514284,5.642013748735308,0.12390152078720951
33.516672,5.645738410974421,0.12385272784982547
33.51906399999999,5.652396339519729,0.1237579123398518
33.521468,5.6634305566102086,0.12361934696374478
33.523855999999995,5.671391737767633,0.12353637057525738
33.526236,5.679911997432497,0.12341810947569797
33.528631999999995,5.685359221164307,0.12335488633002907
33.53102,5.694810646388952,0.12322452825483232
33.53339999999999,5.705333006800232,0.12307465471707235
33.535796,5.71892840314457,0.12287151545448777
33.538183999999994,5.735736605048824,0.12260460472331774
33.540564,5.751613641393299,0.12235048955212333
33.542967999999995,5.762695080312023,0.12216497513128492
33.545356,5.774567915163662,0.1219755684407925
33.54773599999999,5.78951378594836,0.12173275858366622
33.550132,5.804739195986776,0.12147417887813908
33.552519999999994,5.820244145278912,0.12119997717725008
33.5549,5.836028633824769,0.12091185585174492
33.557295999999994,5.852232431251208,0.12059841323007735
33.559684,5.866573897558089,0.1203060867024461
33.562068,5.872627421625583,0.12016019937854458
33.564471999999995,5.879472341625995,0.12001120347140845
33.56686,5.886596800880127,0.11984574902133424
33.569244,5.893069633828201,0.1196755655571224
33.571639999999995,5.903686437895969,0.11943531625844253
33.574028,5.913092537150239,0.11922458785897591
33.576407999999994,5.923988880471728,0.11896914649069104
33.578807999999995,5.93302289267366,0.11873610065791014
33.581196,5.943407379315951,0.1184701910854837
33.58358,5.949927434092268,0.11825668753122735
33.585975999999995,5.957518424055225,0.11802574936610533
33.588359999999994,5.965249183645041,0.1177865404513942
33.59074,5.977915310287467,0.11747642626163837
33.593143999999995,5.9888588754372,0.11717786925599442
33.595532,5.999011044654014,0.11688424905137489
33.597911999999994,6.0093029834976885,0.11658457358116983
33.600308,6.019175613460782,0.11631138754205744
33.602695999999995,6.025044041931041,0.11609702295322673
33.605076,6.029282456707222,0.11593447728856775
33.607476,6.036733677043317,0.11571524937748706
33.60986,6.048328868499108,0.11542623115841545
33.61224,6.062065930328174,0.11510113814976614
33.614636,6.072869725851046,0.11481606021435599
33.617023999999994,6.081950959881221,0.11454421200169781
33.619408,6.08781938835148,0.11433054818111939
33.621804,6.095038291262098,0.11408261404800804
33.624191999999994,6.09997555417258,0.11388035213501205
33.626588,6.109196557829616,0.11360610920297584
33.628984,6.11199195036682,0.11344182680630302
33.631372,6.116929213277301,0.11324047313116771
33.633751999999994,6.118793440254728,0.11308620890932572
33.636148,6.120657667232153,0.11293206568306721
33.638535999999995,6.120380023836302,0.11281469639556317
33.640916,6.123315186000366,0.11264306650695391
33.643311999999995,6.124248247418013,0.11249950464448445
33.6457,6.121828733648885,0.11241797652930077
33.64807999999999,6.115964096894364,0.1123594555401512
33.650476,6.113172496072898,0.11225471552295924
33.652863999999994,6.111731369691792,0.1121152626516565
33.65524799999999,6.1110816392436025,0.1119747792895742
33.657644,6.113504944728469,0.11178980081467017
33.660031999999994,6.1109928831607245,0.11166917921323745
33.66241599999999,6.10834105196612,0.11155614624904879
33.664812,6.104478515958014,0.11146894016893646
33.667199999999994,6.0978224832705745,0.11141125775862207
33.66958,6.087022479463443,0.1114179265995431
33.671975999999994,6.074360144536753,0.11144547484699364
33.674364,6.059555939236786,0.11150713856139315
33.676744,6.0493150139370915,0.11147988835710142
33.67916,6.038934319010539,0.11146049757248859
33.681543999999995,6.02776222815107,0.11144298983835549
33.683924,6.017800842105098,0.11139836826002089
33.686319999999995,6.007048060126208,0.11135525572970295
33.688708,5.998017839640014,0.11129997723203928
33.691092,5.989918784713599,0.11123490778654475
33.693487999999995,5.9850325353470994,0.11111617567084114
33.695871999999994,5.984941883406352,0.11094085179906382
33.69825599999999,5.983780296278966,0.11078366870300888
33.700652,5.985831514711496,0.1105746626142656
33.703039999999994,5.986439710905049,0.11036100205031224
33.705436,5.984254410419267,0.11017596494171922
33.707832,5.980998174746846,0.11000659136533589
33.71022,5.982817075753899,0.10976694038674197
33.712599999999995,5.987848782320865,0.10947514337732944
33.714996,5.997955625567305,0.10911280279083944
33.717384,6.0149999366127735,0.10866339693022631
33.719764,6.038981715457272,0.10812784159097881
33.722164,6.060821623928493,0.10762751437650017
33.724552,6.079169187586077,0.10719487368655713
33.726932,6.09872745605716,0.10673946525883685
33.729336,6.1202878252746595,0.10625711468095245
33.731724,6.141848194492161,0.10577921418085441
33.734103999999995,6.166481599642715,0.10526156883329084
33.73650799999999,6.185248472180879,0.10481328089655223
33.738896,6.205226049532544,0.10434276562153795
33.741276,6.224132691697569,0.10389084065318936
33.743675999999994,6.242247937929678,0.10344402565271435
33.746064,6.2595717882288655,0.10299785336619957
33.748444,6.271680732221723,0.10262685120838107
33.750843999999994,6.281368266587583,0.10230334237541899
33.753232,6.290776261699722,0.10199625605715444
33.755612,6.309403364611026,0.10156995981948205
33.758008,6.324166035656357,0.10118716223642875
33.7604,6.336647066701551,0.10084447223288855
33.76278,6.346986227373469,0.1005352949072755
33.765176,6.350527689873217,0.10029773452813147
33.76756,6.349133785320353,0.10011553871810491
33.769943999999995,6.347739880767489,0.09993283943683107
33.77234,6.346765285095206,0.09972607723124545
33.77473199999999,6.34644231572898,0.09952788961739319
33.777111999999995,6.346119346362755,0.09932986186790065
33.779508,6.3395105355035595,0.09921552600798303
33.781896,6.329688919084447,0.09914710122593104
33.784276,6.322940338598391,0.09903999374485453
33.786672,6.314841283671976,0.09896342381270906
33.78906,6.307813163932199,0.0988713908866109
33.791439999999994,6.2972926993787866,0.09884029743995768
33.79384,6.285421760385015,0.09884004396320847
33.796223999999995,6.27676362695116,0.0987934957195999
33.798607999999994,6.271969925383276,0.09870863807215291
33.801004,6.265965519001895,0.09864675595043652
33.803391999999995,6.252604335940904,0.09868331687670678
33.805788,6.240825944745749,0.09871977865932481
33.808184,6.228116387990818,0.09876441320014503
33.81057199999999,6.214475665676106,0.09881651697122844
33.812952,6.206561706346925,0.09881517905848844
33.815352,6.199578912577523,0.09880620856273405
33.81773999999999,6.194737989181397,0.09876672270323693
33.82012,6.19534428951708,0.0986901931009173
33.82252,6.192086157986791,0.09865094969060485
33.82490799999999,6.190410818322338,0.09861219923917913
33.827288,6.195812716083773,0.09849095553302468
33.82968399999999,6.20014367865857,0.09838404729826489
33.832072,6.205266037166286,0.09827781031121388
33.834456,6.209596999741084,0.09817121069907915
33.83685199999999,6.213788192689021,0.09807288795462743
33.83924,6.2214717304505935,0.09791416657925789
33.84162,6.232368073772083,0.09771017113070427
33.844024,6.241913942653213,0.09753733853910351
33.846411999999994,6.249737250041647,0.09737257503408703
33.84879599999999,6.25770032705694,0.09719939031164364
33.851192,6.2698073751919265,0.09697437914654938
