Time,Force,Position
32.295756,0.04653438943198049,0.0
32.298144,0.0391815670770387,0.0
32.300528,0.03061803990859818,0.0
32.302924,0.02312544792679618,0.0
32.305312,0.01484146001207607,0.0
32.307692,0.009770277657271554,0.0
32.310092,0.0025572249291899753,0.0
32.31248,0.0,0.0
32.314864,0.0019981464217491336,0.0
32.31726,0.005067228030136798,0.0
32.319648,0.009067475198302782,0.0
32.322032,0.012136556806690445,0.0
32.324428,0.01613680397485643,0.0
32.326815999999994,0.020648907822220106,0.0
32.329196,0.02329868055002714,0.0
32.331596,0.025157057344916064,0.0
32.333983999999994,0.025664959699446033,0.0
32.336368,0.029385667613891598,0.0
32.338764,0.03310637552833716,0.0
32.341156,0.03775824900256104,0.0
32.343536,0.03775824900256104,0.0
32.345935999999995,0.03775824900256104,0.0
32.348324,0.03775824900256104,0.0
32.350708,0.03919731691686934,0.0
32.353108,0.03984498889825952,0.0
32.355495999999995,0.04142382643942802,0.0
32.357879999999994,0.04314243360745673,0.0
32.360276,0.04365033596198671,0.0
32.362668,0.04216009189476755,0.0
32.365047999999994,0.03959891264090986,0.0
32.367444,0.03559866547274387,0.0
32.369831999999995,0.03410842140552471,0.0
32.372215999999995,0.030895615845609122,0.0
32.374612,0.02852142804685479,0.0
32.376999999999995,0.03001167211407395,0.0
32.379383999999995,0.034155643233767866,0.0
32.38178,0.03913823211462303,0.0
32.384167999999995,0.03997684987578429,0.0
32.386551999999995,0.03974453245030703,0.0
32.388948,0.03657894871863459,0.0
32.391335999999995,0.03992756958074268,0.0
32.393719999999995,0.044207356002629074,0.0
32.39612,0.04755597686473717,0.0
32.398508,0.04918599055881654,0.0
32.400892,0.051607400185814015,0.0
32.403292,0.05631044981294877,0.0
32.405676,0.0639467657462787,0.0
32.40806,0.07107122500041092,0.0
32.410456,0.07712474906790462,0.0
32.412848,0.0821073379487598,0.0
32.415228,0.08759782918414494,0.0
32.417624,0.0916492525052218,0.0
32.420012,0.09635230213235654,0.0
32.422396,0.10077581250577088,0.0
32.424792,0.09998441657285276,0.0
32.42718,0.09518881914710096,0.0
32.429564,0.09183624396032516,0.0
32.43196,0.08727691828471834,0.0
32.434348,0.08378852779575004,0.0
32.436727999999995,0.0823022380531986,0.0
32.439128,0.07895361719109051,0.0
32.44152,0.07467383076920411,0.0
32.443904,0.07132520990709602,0.0
32.4463,0.06825612829870836,0.0
32.448691999999994,0.06518704669032069,0.0
32.451072,0.05890515952201745,0.0
32.453472,0.049550236420658804,0.0
32.455859999999994,0.041917874811996596,0.0
32.458244,0.03535644838997293,0.0
32.46064,0.029865957154587782,0.0
32.463032,0.024375465919202633,0.0
32.465412,0.01874520505695728,0.0
32.46782,0.013254713821572131,0.0
32.470208,0.006693287399548453,0.0
32.472592,0.003344666537440368,0.0
32.474992,0.002137916048609344,0.0
32.47738,0.0,0.0
32.47976,0.0,0.0
32.48216,0.0,0.0
32.484548,0.0,0.0
32.486932,0.0,0.0
32.489328,0.0,0.0
32.491716,0.0,0.0
32.4941,0.0,0.0
32.496496,0.0,0.0
32.498884,0.0,0.0
32.501268,0.0,0.0
32.503668,0.0,0.0
32.506063999999995,0.0,0.0
32.508444,0.0,0.0
32.510844,0.0,0.0
32.513231999999995,0.0,0.0
32.515615999999994,0.0,0.0
32.518016,0.0,0.0
32.520404,0.0,0.0
32.522788,0.0,0.0
32.525184,0.0,0.0
32.527572,0.0,0.0
32.529956,0.0,0.0
32.532356,0.0,0.0
32.534744,0.0052940204909355665,0.0
32.537128,0.02050220519959985,0.0
32.539524,0.04841805080532782,0.0
32.541916,0.08503735581528578,0.0
32.544296,0.1307794291100543,0.01222661993858349
32.546696,0.1928612777423827,0.022623600591237147
32.549084,0.2631347290997434,0.032902536271460926
32.551464,0.34574375430183024,0.04262320059979628
32.553864,0.4394776485351446,0.0520635141448427
32.556252,0.5421945414264093,0.06146500126558308
32.558636,0.654965368162263,0.07074958351496029
32.561052,0.7768589631829272,0.07998826012432086
32.563444,0.9078753264884022,0.08918742398240434
32.565828,1.053880990691078,0.0980523332249203
32.568228,1.2091491928054245,0.10688687711162516
32.570615999999994,1.3783829824585765,0.1154318108510644
32.572996,1.5622812077848354,0.12365329185448048
32.575399999999995,1.7516719828132779,0.13185697279888525
32.577788,1.9513981267978986,0.13982162615251398
32.580168,2.1575026600741074,0.1476239245938771
32.582564,2.3649711014046897,0.15524750269405857
32.584951999999994,2.559731881838208,0.16294060295141097
32.587332,2.7420645406283826,0.170607220575649
32.589735999999995,2.9170442144546866,0.1782112353206209
32.592124,3.084903220742597,0.173530265507646
32.594504,3.236422451692947,0.17067893498060094
32.5969,3.3826833462244608,0.16786647879030883
32.599287999999994,3.517539832471026,0.16559059144399133
32.601668,3.638198413753309,0.1636864598284561
32.604068,3.7502933052582215,0.16178258085142627
32.606455999999994,3.8506117014258483,0.16002723867248303
32.608836,3.9419470989355254,0.1583048533112953
32.611239999999995,4.023368332227474,0.1566314266541535
32.613628,4.086866998316026,0.15537380305539755
32.616008,4.141103126492907,0.15414654481245268
32.618404,4.181373667130982,0.15320889671677346
32.620791999999994,4.20791093765573,0.15257165077430276
32.623172,4.230306132918653,0.1518901826059829
32.625567999999994,4.2412950240387595,0.15148348473668444
32.627956,4.2489785618003335,0.1511458515671758
32.630336,4.250143940643458,0.15097407440702018
32.63274,4.257175852098973,0.15064236938189005
32.635127999999995,4.265138929114267,0.15029087581807937
32.637511999999994,4.2729622365027,0.1499562245819818
32.639908,4.280925313517994,0.14961439721211314
32.642295999999995,4.287957224973508,0.1492928522581117
32.644679999999994,4.290193539003272,0.14909156074647675
32.647076,4.290427752286618,0.14894530329212627
32.649463999999995,4.295876871876297,0.1486413025338087
32.651844,4.304631344824509,0.14829533788961377
32.654239999999994,4.316830940758114,0.14789046754034194
32.656628,4.328750997437997,0.14751055794834506
32.659012,4.342253845983718,0.14711365166782353
32.661407999999994,4.359621126395412,0.1466157800582092
32.663796,4.375917471620467,0.14614930536673387
32.66618,4.392213816845522,0.14568283067525858
32.668575999999995,4.404505960577743,0.14532319695054205
32.670964,4.416239025802525,0.14501764062451689
32.673348,4.428251630281026,0.14468428647641546
32.675743999999995,4.433326766960498,0.14453878278600443
32.678132,4.436260033266693,0.14446100084810143
32.680512,4.437330968453331,0.14442725370400197
32.682911999999995,4.43719119882647,0.1444397777316974
32.685295999999994,4.434909558826333,0.1445192019365435
32.687676,4.428903256587083,0.14468155539464106
32.690072,4.423967889534471,0.14481093147574847
32.69246,4.418752983228139,0.14496806696465003
32.694855999999994,4.4138176161755265,0.1451009528284524
32.697256,4.406740378749637,0.14530017704872852
32.699639999999995,4.392074047218662,0.1456828348066699
32.702023999999994,4.376895859008488,0.1460437148328276
32.70442,4.361066044492256,0.1464020522371436
32.706804,4.345795308483465,0.14670616329136021
32.709188,4.329872946168617,0.14700364131892432
32.711592,4.318513863854043,0.14714049375493168
32.71398,4.309436421539606,0.14719768163330046
32.716364,4.304782489598583,0.14711323699829865
32.71876,4.298545765791725,0.14704460261199678
32.721148,4.295102538664202,0.14691533467694085
32.723527999999995,4.297525844149069,0.14663977124068187
32.725928,4.301020084820573,0.14632898128667082
32.728316,4.3020929158650825,0.1461089891339024
32.730695999999995,4.299952941349675,0.14598746642322347
32.733096,4.299815067580683,0.14581165696710124
32.735479999999995,4.300980446423807,0.14564347958391718
32.73786,4.301074890080294,0.1455087094479407
32.740255999999995,4.304521908923556,0.14525936423834065
32.742648,4.31276452519257,0.144895928949975
32.745028,4.320215745528666,0.14453999483835556
32.747423999999995,4.331391628103874,0.14409342264251224
32.749812,4.339075165865448,0.14377318501204328
32.752196,4.350483365866134,0.14337086974408517
32.7546,4.360541091426462,0.1430303315619821
32.756988,4.37031927773307,0.14271584329280623
32.759372,4.375254644785682,0.1425874321655812
32.761768,4.376837436651517,0.1425713558325661
32.76416,4.378140689263633,0.14258045139240602
32.76654,4.380235337808667,0.14258168158971518
32.76894,4.381538590420783,0.14259099204844702
32.771328,4.380048346353564,0.14265968529713854
32.773708,4.382562303779179,0.1426254037620474
32.776112,4.385495570085374,0.14255399455132897
32.778499999999994,4.39499421713826,0.14227887093781152
32.78088,4.404492864191147,0.1420064382228851
32.783276,4.415481755311253,0.14166709453200074
32.785664,4.427541581617996,0.14129533210452375
32.788048,4.438530472738102,0.14095761043888969
32.790444,4.441510960872541,0.1408224703752263
32.792832,4.448216111246093,0.1406122037688648
32.795216,4.457342671246641,0.14031845813500987
32.797611999999994,4.470892741620605,0.13988906067368712
32.8,4.479647214568816,0.13956747248879148
32.80238,4.485188881957113,0.1393350722879456
32.804779999999994,4.491801484532046,0.13907266266602222
32.807164,4.5009752663608396,0.13871204161318043
32.809548,4.51121998337627,0.1383187503237673
32.811944,4.522256096324618,0.13792264206569288
32.814332,4.533292209272967,0.13752653380761848
32.816711999999995,4.542977847780957,0.1371865532611355
32.819112,4.554525817408504,0.13680987652278767
32.8215,4.562069585543217,0.13653407301275963
32.82388,4.574548720730541,0.13614788652634213
32.82628,4.58367528073109,0.1358669450006342
32.828668,4.591730905545001,0.13561645969618086
32.831052,4.5996467607320515,0.13537986511821015
32.833448,4.610356112598437,0.1350944724959276
32.835836,4.6238589611441565,0.1347617372883715
32.83822,4.641505780809571,0.13432059589793968
32.840616,4.654357003049234,0.13397887554692486
32.843004,4.665997520475398,0.13368154586884592
32.845388,4.676846641968643,0.1333944139520175
32.847784,4.69277090014136,0.13299406799742391
32.850172,4.716051934993686,0.13241399821694097
32.852556,4.738262034659376,0.13186393785753553
32.854952,4.761403299884842,0.13130596495245395
32.857344,4.78468433473717,0.1307377488522223
32.859724,4.8051718729101625,0.13021920587221944
32.86212,4.827801281456432,0.12965203408295872
32.864508,4.850710229256421,0.1290631790943544
32.866892,4.872548241869773,0.1285033727636438
32.869288,4.8973195207893205,0.12788838848951947
32.871676,4.91273192228284,0.12748722087768766
32.87406,4.929355028589859,0.1270512177372949
32.876456,4.946257674150598,0.12659471634771519
32.878843999999994,4.962089384524698,0.12616621463455543
32.881228,4.974987828592604,0.1257982174162155
32.883624,4.983882071167676,0.12551365143846369
32.886011999999994,4.995709580048944,0.12517747696525094
32.888396,5.008468254489988,0.12482336185588445
32.890792,5.020155993744394,0.12449607731931207
32.893179999999994,5.031564193745081,0.12419297845923333
32.895564,5.038688652999213,0.12399187801929618
32.89796,5.041017514827594,0.12387484099274051
32.900347999999994,5.042415211096197,0.12377177378460866
32.902728,5.039668936245105,0.12375658267130232
32.905124,5.036782891767152,0.12375163475314603
32.907512,5.036038717662477,0.12369768460637286
32.909896,5.034223608371163,0.12366810317283605
32.912292,5.03254826870671,0.1236282553213511
32.91468,5.032083633855756,0.12355432490004639
32.917064,5.032038307885381,0.12345084832202725
32.919459999999994,5.039629297848338,0.12317070753337961
32.921848,5.047080518184434,0.12290271411283957
32.924232,5.056254300013226,0.12262012229570576
32.926632,5.063705520349322,0.12235300814151949
32.929019999999994,5.0703653447525,0.12208879371930151
32.9314,5.077444478036259,0.1217932433289565
32.933795999999994,5.079588244267404,0.1215858124688946
32.936184,5.086667377551162,0.12129402533756949
32.938564,5.093094884528862,0.12099520847925435
32.94096,5.098451456319925,0.12072037695542577
32.943348,5.104087567364706,0.12042428796378907
32.945727999999995,5.108512973595991,0.1201599227394987
32.948124,5.112007214267496,0.11990720867858207
32.950516,5.118574490872057,0.11959311590657348
32.952896,5.1243503715436995,0.11928188365701255
32.955292,5.129195086655564,0.11898559378763458
32.95768,5.130315139528315,0.11874212716691995
32.960064,5.131295422774205,0.11850905013613625
32.96246,5.133067101953014,0.11827445139000958
32.964848,5.1324173715048245,0.11810704739654652
32.967232,5.130417166616278,0.11798303913090794
32.969628,5.124412760234897,0.1179298292895915
32.972016,5.11561485717418,0.117914582622173
32.974396,5.1096104507927995,0.1178609658079048
32.976796,5.105608145157835,0.11777180806449475
32.97918,5.105470271388844,0.11762278619357745
32.981576,5.110407534299325,0.11738293002115623
32.983971999999994,5.110549199784054,0.11721579174397116
32.98636,5.1124134267614805,0.11703424623222898
32.988744,5.115628128179265,0.11681236094777969
32.991136,5.120844930343466,0.11655728538661017
32.993524,5.13206803474692,0.11620415899251862
32.995908,5.149297441389622,0.11575483303294103
32.998304,5.166666617659185,0.11529965442497701
33.000692,5.186969060234943,0.11480301324288748
33.003076,5.204989862810565,0.11435580145474644
33.005472,5.227666493185077,0.1138504710534528
33.007859999999994,5.2492721883729505,0.11336540557992966
33.010244,5.266222055761933,0.11293793738653683
33.012648,5.283591232031496,0.11248322311638155
33.01504,5.300960408301059,0.11203172723912162
33.017419999999994,5.323544490876954,0.11148500960877845
33.019816,5.347851134945546,0.11092548435397181
33.022203999999995,5.374159879760555,0.11034187425941461
33.024587999999994,5.400328854948702,0.10977256648765121
33.026984,5.424355959763574,0.1092518629863679
33.029371999999995,5.442376762339195,0.10882494233500865
33.031755999999994,5.461468500101454,0.10837825485922917
33.034152,5.477766741184378,0.10796344195074166
33.036539999999995,5.488850075960971,0.10763712341714356
33.038923999999994,5.496860374804509,0.1073613341168637
33.04132,5.500866472155212,0.1071493015527771
33.043707999999995,5.501147907266802,0.10698077506893292
33.046091999999994,5.498496076072196,0.10685185429004912
33.048492,5.494121683384894,0.10673435763729551
33.05088,5.492960096257508,0.10655938981487736
33.053264,5.491146882824062,0.10637737723764736
33.05566,5.4904046045772565,0.10617621754004171
33.058048,5.494597693383063,0.10590748713041483
33.060432,5.496369372561871,0.10569376204233558
33.062828,5.496558259874845,0.10548215267556084
33.065216,5.493674111254762,0.10531823880449749
33.067595999999995,5.487065300395566,0.10519312173418525
33.069996,5.475660892110618,0.10512544360278471
33.072384,5.463465087892753,0.10505791258593604
33.074768,5.447404851808913,0.10503811978242505
33.077164,5.434277882031269,0.10498050733924096
33.079552,5.4220820778134025,0.10491228509341564
33.081936,5.412819539901732,0.10480571983929354
33.084332,5.408911677923253,0.10460532355909509
33.086724,5.406214520758274,0.1043762530056053
33.089104,5.401655032473737,0.10416608902179855
33.091504,5.394813904189063,0.10400214096675126
33.093892,5.391045811837446,0.10379029812029346
33.096272,5.386067014672329,0.10360600483006885
33.098672,5.382159152693852,0.10340368717171738
33.10106,5.376249189968957,0.10322916597256947
33.10344,5.370478996870921,0.10304551935169601
33.10584,5.360425063026332,0.10293501044804743
33.108228,5.352652769181881,0.10277856702741525
33.110608,5.345532101643488,0.10263025176718513
33.113004,5.34148447003815,0.10243608480611577
33.115392,5.343722679925782,0.10214217691930455
33.117776,5.348894156119611,0.10181166041038323
33.120172,5.355136567500076,0.10146471225411466
33.12256,5.367664820373514,0.1010205393970017
33.124944,5.38140377806045,0.10055203143862056
33.12734,5.391278303881412,0.10012691303998923
33.129728,5.399150728955958,0.09972909655877715
33.132112,5.406603845149923,0.09936039631417211
33.134508,5.418852558769641,0.09894373904515763
33.136896,5.432963603508915,0.09850880357669069
33.13928,5.450287453808103,0.0980220640480319
33.141676,5.465329664107155,0.09757971198446029
33.144064,5.480371874406207,0.09713609291268291
33.146448,5.491270113585565,0.09675353515657865
33.148844,5.5028199790709795,0.09637978115659349
33.151236,5.515440779743034,0.09599120726418865
33.153616,5.531414155601865,0.09554252045554153
33.156015999999994,5.548458466647333,0.09507976679513319
33.158404,5.56657371287944,0.09460240211059717
33.160784,5.5797535920589345,0.09418338915089475
33.163183999999994,5.587718564932097,0.0938413235017321
33.165572,5.5928900411259255,0.09352309701582731
33.167956,5.591775675826783,0.09329373966587612
33.170351999999994,5.585446404221306,0.09313868215530544
33.17274,5.578837593362111,0.09300087003589637
33.175124,5.578235084742166,0.09279123218926064
33.177524,5.581636777615053,0.0925353380804293
33.179916,5.583455678622105,0.09227788409451215
33.1823,5.580618751830266,0.09205880781894432
33.184695999999995,5.580994630598342,0.09179432887483233
33.187084,5.581510278993278,0.09152294766890416
33.189468,5.5832366322017135,0.09122770595474991
33.191863999999995,5.59003812208962,0.09087557617324936
33.194252,5.6003319567911625,0.09046220292169667
33.196636,5.611045100373287,0.09002495231222093
33.199031999999995,5.621758243955412,0.08959094189261353
33.20142,5.630469286791118,0.08917947012789552
33.203804,5.6370384592535485,0.08879810729843218
33.206199999999995,5.639743199850003,0.08844995903770353
33.208588,5.646312372312433,0.08806692734519514
33.210972,5.65488364552128,0.08766192152817695
33.213372,5.665457019476543,0.08723541327309328
33.21576,5.685389270857834,0.08669341859924266
33.218143999999995,5.7062526877989015,0.08614238543780726
33.22054,5.724322608060634,0.08561058657777579
33.222928,5.736106686829398,0.08515969304948386
33.225311999999995,5.7441661033590465,0.08473735989748359
33.227708,5.7507352758214765,0.0843522025866135
33.230096,5.759027009776602,0.08396371948007215
33.232479999999995,5.764245707798674,0.08361314549585934
33.234876,5.768113931380386,0.08329419206953899
33.237268,5.775055190895154,0.08294419408766154
33.239647999999995,5.7761299177975305,0.08264669879860706
33.242044,5.77478323507291,0.08239266358341713
33.244436,5.774227948281207,0.08214160935450435
33.246815999999995,5.773672661489504,0.08189166613017118
33.249219999999994,5.776050641003998,0.08161860250377982
33.251608,5.77856839014535,0.0813370852737726
33.253988,5.784950571152677,0.08102582472497903
33.256384,5.792403687346644,0.08070404115428595
33.258768,5.799996573167469,0.0803753700124252
33.261152,5.806518523801655,0.08005984962220206
33.263548,5.805963237009954,0.07981157877517277
33.265936,5.807410050964668,0.07954589056035369
33.268316,5.8100675697328805,0.07925882067977888
33.270712,5.81607766368787,0.07892456603781847
33.2731,5.821668448762279,0.07861299202349407
33.275479999999995,5.834476240889436,0.07823074325274532
33.277876,5.845142162643317,0.07787417705140594
33.280263999999995,5.85366621402392,0.07754193772434648
33.282644,5.8612590998447445,0.07721430837043215
33.285044,5.863916618612958,0.07692739770712102
33.287431999999995,5.870298799620285,0.07662223123081903
33.289812,5.880685182120444,0.07628505605531753
33.292207999999995,5.888138298314409,0.0759692893637349
33.294596,5.893170004881377,0.07569358210521486
33.296976,5.896199610701928,0.07543596758675132
33.299372,5.900160382082257,0.0751739263531032
33.301759999999994,5.903329757529667,0.07490963104656803
33.30414,5.901563765924466,0.07468185052517248
33.30654,5.901380566185101,0.07446157368103654
33.308924,5.901848992751795,0.0742519563669218
33.311304,5.909254887117516,0.07399161383935093
33.3137,5.9158693855503195,0.07372905818148191
33.316088,5.92420644547582,0.07346673887598242
33.318472,5.9342660668940175,0.07320581364687445
33.320868,5.948469659431907,0.0729088469753173
33.323256,5.956806719357408,0.07265246314323304
33.325636,5.969287750402602,0.07236095421791958
33.328032,5.983910651821073,0.0720468916116741
33.33042,5.998533553239544,0.07173218241580989
33.3328,6.0139478505909345,0.07142019260051531
33.335196,6.026568651262989,0.07112061254004194
33.337584,6.03397454562871,0.07086900719146345
33.339963999999995,6.04338254074085,0.070602590351488
33.342364,6.053209844733568,0.07031339186517871
33.344748,6.0599641127932315,0.07004844947404212
