Time,Force,Position
31.88328,0.017322579778239613,0.0
31.885676,0.02501492862969757,0.0
31.888064,0.033778212667794065,0.0
31.890448,0.04188987039983266,0.0
31.892844,0.04785965775859419,0.0
31.895236,0.055971315490632785,0.0
31.897616,0.06622484359594843,0.0
31.900015999999997,0.07512789726090514,0.0
31.902404,0.0828202461123631,0.0
31.904784,0.09209538682965729,0.0
31.907183999999997,0.10043936198717314,0.0
31.909572,0.108783337144689,0.0
31.911956,0.11605637711556636,0.0
31.914356,0.12626268339263885,0.0
31.91674,0.13353572336351618,0.0
31.919124,0.13852712333425624,0.0
31.921519999999997,0.14132062001359122,0.0
31.923908,0.1469076133722611,0.0
31.926292,0.15021296673079376,0.0
31.928692,0.15323878083560596,0.0
31.931079999999994,0.15505389012691945,0.0
31.93348,0.15793993460487152,0.0
31.935875999999997,0.157613173522908,0.0
31.938264,0.15872943467992043,0.0
31.940648,0.16384989732976657,0.0
31.943048,0.16468661923305855,0.0
31.945435999999997,0.15830633408360123,0.0
31.947816,0.1523453578147246,0.0
31.950216,0.148526251919125,0.0
31.952603999999997,0.14312435415768918,0.0
31.954988,0.13865362195603168,0.0
31.957384,0.13124962344817906,0.0
31.959771999999997,0.12491656012696496,0.0
31.962156,0.11471025384989246,0.0
31.964552,0.10743721387901513,0.0
31.966939999999997,0.10244581390827508,0.0
31.969323999999997,0.09945651468395186,0.0
31.971723999999995,0.09260278359365517,0.0
31.974112,0.08574905250335847,0.0
31.976496,0.07810392548014365,0.0
31.978896,0.06859646733737221,0.0
31.981283999999995,0.058018074007962224,0.0
31.983664,0.0495815510518293,0.0
31.986064,0.04035363216277827,0.0
31.988451999999995,0.029263382154170594,0.0
31.990835999999994,0.02031500251883998,0.0
31.993232,0.016441759562981603,0.0
31.995624,0.013499682166901545,0.0
31.998003999999995,0.009626439211043168,0.0
32.000404,0.00575319625518479,0.0
32.002796,0.001879953299326413,0.0
32.00518,0.0009399766496632065,0.0
32.00757599999999,0.0,0.0
32.009964,0.0,0.0
32.012348,0.0,0.0
32.014748,0.0,0.0
32.017135999999994,0.0,0.0
32.019516,0.0,0.0
32.021916,0.0023319853446575793,0.0
32.024308,0.008433958898802349,0.0
32.026692,0.02175104364782717,0.0
32.029087999999994,0.03664902440481896,0.0
32.031476,0.05880744232706472,0.0
32.03386,0.0910197940938994,0.0
32.03626,0.13309908825021963,0.012167234887237581
32.038644,0.18979370039353408,0.023330198121616783
32.041028,0.2609638608969825,0.03394531808064379
32.043423999999995,0.3504740016265384,0.043835850319429444
32.045812,0.45846389220906214,0.05322022290471393
32.048192,0.585213071898274,0.062199487283763455
32.050588,0.7285796703208969,0.0710004414884726
32.052975999999994,0.8927076585966249,0.07946467214940305
32.055356,1.0760142448596215,0.08769562604623737
32.057751999999994,1.2704910261242193,0.0960119398409824
32.06014,1.4774884768307777,0.10433561086687863
32.06252,1.700359172166072,0.11253988172417438
32.064919999999994,1.9408256736227991,0.12060827825810501
32.067304,2.1945116926557873,0.12863900976032905
32.069688,2.457502452054543,0.13665380001504082
32.072084,2.727708322648179,0.1446524060910634
32.074472,3.003034655891662,0.1525886893257063
32.076851999999995,3.289023119173287,0.16042868700795937
32.079248,3.576037191671177,0.16821538786025597
32.081636,3.862773620773217,0.17590099969840406
32.084016,4.148535454202974,0.17129466016226663
32.086412,4.422755005578792,0.16763229456106607
32.088795999999995,4.685851583781253,0.1644421374475716
32.091176,4.929025389891769,0.16198819710102047
32.093571999999995,5.152136654283481,0.16005215663737443
32.09596,5.356628399195366,0.1585129230027869
32.09833999999999,5.547575761306894,0.15709342601609294
32.100744,5.718972438378817,0.1559804872954524
32.103131999999995,5.870538891157413,0.15509825691219528
32.105512,6.012565162628488,0.15407631626335072
32.107907999999995,6.140627742418626,0.15304980553697708
32.110299999999995,6.25230522090083,0.15213186246727955
32.11268,6.342941770276207,0.15138831030521174
32.11508,6.419567406142407,0.1506880395834665
32.117467999999995,6.482833754805484,0.15002334710024254
32.119848,6.535394543317914,0.14935819977695572
32.122248,6.577249771679697,0.1487001127907302
32.124632,6.604999642875814,0.14816596639014895
32.127016,6.627955812504047,0.1476027417141451
32.129411999999995,6.638481964631066,0.14717326858015553
32.1318,6.641326474854382,0.14683836405303388
32.134184,6.642448423585001,0.1465256540085931
32.136579999999995,6.640497336382565,0.1462722487739359
32.138971999999995,6.643481616232743,0.1459351818708916
32.141352,6.647257292015837,0.14559138209705247
32.143747999999995,6.651964133358709,0.1452347964419722
32.146131999999994,6.650152815783135,0.14497303666490938
32.148515999999994,6.642195426341448,0.14482506108857243
32.150912,6.632887562459403,0.14471548242451024
32.153299999999994,6.623812016002834,0.1446327191122264
32.15568,6.619252527718297,0.14449004316684114
32.15808,6.615065126486097,0.1443663989055682
32.160464,6.616185179358848,0.14417752912500956
32.162848,6.62210082965735,0.14391446027174923
32.165251999999995,6.631461602941244,0.1436140022417633
32.16764,6.639611671411641,0.1433430353368102
32.170019999999994,6.6442693950684015,0.14315324939091995
32.172416,6.653210859471715,0.1428779467751878
32.174803999999995,6.656657878314977,0.14271874819560215
32.177187999999994,6.6611758323448775,0.14253676127291612
32.179584,6.660758419322167,0.14243765785080756
32.181971999999995,6.660201236672595,0.14234705401515285
32.184355999999994,6.6617859243963,0.1422142169072924
32.186752,6.6570847706270335,0.14220071683146276
32.189139999999995,6.654385717604185,0.14215281696304743
32.19152,6.649032937528862,0.1421359434234764
32.19392,6.647544589319511,0.14205837994131704
32.196307999999995,6.655554888163048,0.1417975021548553
32.198688,6.669059632566637,0.14142385018699433
32.201083999999994,6.678327858051917,0.14109102389644498
32.203472,6.683871421298082,0.1408118473637618
32.205852,6.690113832678548,0.14049274689114122
32.208256,6.69398205626026,0.14018888179468464
32.210643999999995,6.688398854617328,0.14002046713363417
32.213027999999994,6.681652169989142,0.13983752268912855
32.215424,6.678258060547731,0.13958478806953745
32.217811999999995,6.675143490360039,0.13931485394176019
32.220195999999994,6.669747280172212,0.1390947686004743
32.222592,6.665561774797882,0.13884532406014966
32.224979999999995,6.666032097222444,0.13853320223998322
32.227363999999994,6.6705066211398405,0.13815248885233886
32.22976,6.668183446885067,0.13787518289663142
32.232147999999995,6.659574431137322,0.1377152555270063
32.234531999999994,6.652595429083658,0.13750081366977643
32.236928,6.639889664044464,0.1373726044547126
32.239315999999995,6.6290462301248265,0.13721771136615177
32.241696,6.616572782511109,0.13711724395772718
32.2441,6.596882327844643,0.13714817198329862
32.246488,6.570906031685206,0.13729686778086012
32.248867999999995,6.5486543977648815,0.1373929475908365
32.251268,6.527473699031196,0.13746693413688232
32.253656,6.502800655483876,0.13762199589670213
32.256035999999995,6.479058777496332,0.137762724511732
32.258436,6.463045763240736,0.13778392158660788
32.260824,6.446892979358279,0.1378119196080864
32.263203999999995,6.428598325102545,0.13787990599810213
32.265604,6.414028333085925,0.1378960745511599
32.267992,6.399877649949886,0.13788675001375308
32.270371999999995,6.388008606813982,0.13782693298541274
32.272768,6.37148373587919,0.13782875224538566
32.275156,6.357100735317673,0.13778790915359715
32.277536,6.349375663301465,0.1376525526860541
32.27994,6.346865497591589,0.1374214501505076
32.282328,6.34486718856091,0.1372016549295804
32.284707999999995,6.348595642515761,0.13689643730014833
32.287108,6.350461765351056,0.13661604792991225
32.289496,6.35488906744021,0.1362689841266198
32.29188,6.361830326954975,0.13589836834738678
32.294276,6.372915557589438,0.13545050004548684
32.296664,6.3827900834104,0.1350338586220985
32.299048,6.393316235537421,0.13462281272742704
32.301444,6.4101282291574115,0.13409532475593766
32.303832,6.426660683523683,0.13358569785047264
32.306216,6.443053368263095,0.13309008248111
32.308615999999994,6.458235348189006,0.132623408373518
32.311004,6.471275457741641,0.13219653969600556
32.313388,6.4821736969209995,0.13181276990889265
32.315783999999994,6.492652627219776,0.13145456005433293
32.318172,6.501781083078194,0.13113453370960093
32.320552,6.510629999682891,0.13082868032711162
32.322951999999994,6.513984470727536,0.13063251420075575
32.32534,6.5185496465856785,0.1304094750890732
32.32772,6.5211127216974045,0.13021894107347495
32.330119999999994,6.527540228675105,0.129973881473522
32.332508,6.5369010019589995,0.12968901520736892
32.334888,6.54905527192223,0.12936952554651193
32.337287999999994,6.5632116426318765,0.12902355073899416
32.339676,6.5788582574087435,0.12863594902559963
32.342056,6.59422533293189,0.1282667190956103
32.344455999999994,6.610523574014814,0.12788764250683812
32.346844,6.62467994472446,0.12754648448133585
32.349224,6.633761178754633,0.12728573925208037
32.35162,6.64177147759817,0.12704347697715831
32.354012,6.643775474202454,0.1268903648625571
32.356392,6.646710636366517,0.12672603286015527
32.358791999999994,6.651787668903856,0.1265233453462213
32.36118,6.65528190957536,0.12632670309436783
32.36356,6.658636380620006,0.1261380068505219
32.365956,6.661059686104871,0.1259602941629656
32.36834399999999,6.6676269627094324,0.1257147671512305
32.370728,6.679548915247184,0.12537387222144242
32.373124,6.688258062225022,0.1250910488041027
32.375516,6.699620936255335,0.12478410027479712
32.377896,6.706839839165953,0.12454564190583961
32.380295999999994,6.7100545405837355,0.12436791598222224
32.382684,6.713129472374661,0.12419870002032396
32.385064,6.71271205935195,0.12410028013370523
32.387463999999994,6.710013006329099,0.12404574446838766
32.389852,6.7063827877464695,0.12400161741645384
32.392232,6.700750468417424,0.12398587310482274
32.394631999999994,6.695537457968962,0.12394729587064739
32.39702,6.694188879386472,0.12385931101006273
32.3994,6.694842401550398,0.12374291734018127
32.401796,6.701641995580435,0.12353309644510593
32.404183999999994,6.708301819983613,0.1233310351986296
32.406564,6.716963745133208,0.12310211705611389
32.408964,6.728419166962136,0.12284247698137188
32.411348,6.740293897671645,0.12256061160993571
32.413732,6.752168628381156,0.12227799038712045
32.41612799999999,6.758828452784334,0.12207704347345445
32.418516,6.760552910134898,0.12194266116643718
32.420896,6.7645590074856,0.12176519062423134
32.423292,6.764560903343469,0.12164376616187339
32.42568,6.764982108081921,0.12149915612394119
32.428064,6.764332377633733,0.12137227645215067
32.43046,6.762891251252624,0.12124820914114148
32.432848,6.760146872259399,0.1211138006961035
32.435232,6.760615298826092,0.12092620237534045
32.437628,6.761083725392785,0.12073869265576423
32.440016,6.764625187892532,0.12050609899576456
32.4424,6.772031082258254,0.12022723799699525
32.444796,6.777434875877558,0.11997706170261939
32.447184,6.782187043190805,0.11972258789922699
32.449563999999995,6.784797340130777,0.11950366579092774
32.451964,6.7898290466977445,0.11923685038767047
32.454348,6.790577012518158,0.11903818824038147
32.456731999999995,6.789183107965295,0.11887352340323191
32.459132,6.789371995278267,0.11870516318371764
32.46152,6.7915629833376565,0.11851072299995215
32.463904,6.802041913636433,0.11819858830955109
32.466303999999994,6.817316441360962,0.11783244394746913
32.468692,6.832311429831771,0.11748322058867047
32.471072,6.850798763116216,0.1170698326130746
32.473471999999994,6.873010758639772,0.11662256205591452
32.47585599999999,6.894431358230413,0.116174840427797
32.47824,6.916643353753971,0.11572707436373489
32.480636,6.9415090763300045,0.11525992804239595
32.48302399999999,6.963581302226702,0.11482295450268067
32.485408,6.985141671444202,0.11437396420023521
32.487804,7.002977378422588,0.11396199992046452
32.49019199999999,7.01787981909478,0.11358728285944977
32.492572,7.0329220293938315,0.11320608140418721
32.494972,7.048755635625802,0.11282517858049013
32.49735999999999,7.062866680365076,0.11245382192084244
32.49974,7.0736251499175715,0.11213840582090717
32.502136,7.085734093910429,0.11179133377876468
32.50452799999999,7.10198700902298,0.11139023555124865
32.506908,7.116377593015973,0.11100817169688901
32.509308,7.130907946635827,0.11062149731780495
32.51169599999999,7.1360794228296545,0.11036086891337611
32.514076,7.139248798277066,0.11012494567276218
32.516476,7.1377623459255854,0.10992977559393065
32.51886399999999,7.1339942535739675,0.10977234721670377
32.521248,7.1254305637965984,0.10966315298814186
32.523644,7.117006643646088,0.10954654791535302
32.526031999999994,7.108070866816382,0.10941683334163449
32.528416,7.097272758867118,0.10930316762429995
32.530812,7.0841930109177165,0.10922668710130871
32.533199999999994,7.074558385953709,0.10913103799021417
32.53558,7.067857027295895,0.10900379851586407
32.53798,7.060224503078304,0.10888434368861083
32.540367999999994,7.052591978860713,0.10876468102709722
32.542748,7.042165957963785,0.10866866728962085
32.545148,7.035604368932833,0.10853356997310647
32.547535999999994,7.032255585461795,0.10835398857048084
32.549916,7.034913104230009,0.10810824272853381
32.552316,7.03263525594561,0.10791515554557853
32.554703999999994,7.028634846168514,0.10773009408762661
32.55708799999999,7.021421630831504,0.10758843468736341
32.559484,7.02263612736074,0.10733754904532514
32.561871999999994,7.025061328703476,0.10706596853367972
32.56425599999999,7.033353062658603,0.10673482336828091
32.56666,7.042715731800367,0.1063891623800672
32.569047999999995,7.054499810569129,0.10600075603477019
32.571431999999994,7.070288090830726,0.10556983473170045
32.573832,7.0835151918384645,0.10518753951190227
32.57622,7.095811127286426,0.10481163515199074
32.578599999999994,7.112111264227219,0.10439093949160529
32.581,7.12361580374226,0.10401595279488368
32.583388,7.132838703257165,0.10367704672109809
32.585767999999995,7.139919732398792,0.10336508944142454
32.588168,7.147000761540419,0.1030536569101652
32.590556,7.158737618480939,0.10270631549440234
32.592935999999995,7.166470273928624,0.10240282922579456
32.595336,7.169547101577418,0.10213612779325845
32.597724,7.166757396613822,0.10192797099017116
32.600103999999995,7.166249331650363,0.10168473281022779
32.6025,7.16774336743332,0.10142006496030777
32.604887999999995,7.171519043216417,0.10112015460130624
32.607271999999995,7.168217481573622,0.10089764040167198
32.609672,7.160911718437994,0.10071634993568057
32.61206,7.152674789742589,0.10054224930114684
32.614444,7.14671950104732,0.10033435999470879
32.61684,7.139134198657971,0.10016658279592795
32.619228,7.128475860335568,0.10003217228127838
32.621612,7.122241032386579,0.09983746038665395
32.62401199999999,7.118520161863204,0.09963596643672326
32.6264,7.114939060966688,0.09942828149757937
32.62878,7.11457076563009,0.0991808019984161
32.63117999999999,7.111688512867874,0.09893819845225868
32.633568,7.112019065665576,0.09865472836899894
32.635952,7.112489388090138,0.0983648335893205
32.63834799999999,7.109235048275587,0.09810193218953266
32.640736,7.107982809207453,0.09781876873387008
32.64312,7.11017569312471,0.09752249713275703
32.64552,7.1100869370418325,0.09725812188595015
32.647907999999994,7.110649807265013,0.09700137348082706
32.65029199999999,7.112935238980889,0.09673951771515181
32.652688,7.114149735510125,0.09649068376504703
32.65508,7.118297498345558,0.09621523392643017
32.65745999999999,7.127520397860463,0.09588808449730676
32.659859999999995,7.1347411966289505,0.09558094937443928
32.662248,7.140471751330221,0.095308705468664
32.66462799999999,7.149554881218266,0.09499244080698996
32.667027999999995,7.159569176666088,0.09467016923455764
32.669416,7.166230896927136,0.09439355653054846
32.6718,7.1743828612554,0.09408643547931168
32.674195999999995,7.181463890397028,0.09379287672997401
32.676584,7.18505257472502,0.09354957988380277
32.678968,7.19515941797146,0.09326526622055667
32.681368,7.205126491591039,0.09298821328098417
32.683752,7.211880759650702,0.09274740346362266
32.686136,7.2194264236432835,0.09250729248847192
32.688536,7.228974188382282,0.0922505058427619
32.690923999999995,7.237730557188364,0.09199372094914234
32.693307999999995,7.250491127487278,0.09170053696060103
32.695704,7.259247496293359,0.09144266369320753
32.698091999999995,7.26199756286019,0.09123812573298032
32.700475999999995,7.268612061292994,0.0910053651623637
32.702872,7.277088890845354,0.09076254960644663
32.70526,7.285146411517135,0.09054115108548003
32.707643999999995,7.293995328121833,0.0903207182008042
32.71004,7.298048647300779,0.09013332249533046
32.712428,7.296095664240474,0.08999801479226764
32.714811999999995,7.293863141926449,0.08987565024382278
32.71721599999999,7.2949831947992,0.08971144649597902
32.719604,7.28995717580584,0.08960515878934773
32.721984,7.28493115681248,0.08949877426580256
32.72438,7.284328648192535,0.08933881914533098
32.726768,7.281212182146974,0.0891825364409016
32.729147999999995,7.279958047220971,0.0890162742855673
32.73155199999999,7.284849984161078,0.08879384650257842
32.73394,7.289090294795128,0.08856384871209476
32.73632,7.290257569496122,0.08836236595395723
32.738716,7.292356009756894,0.08815632322446806
32.741104,7.29231257964439,0.08797301618276315
32.743483999999995,7.299346386957775,0.08773023554883803
32.745884,7.314668136510547,0.08741074765193713
32.748272,7.325194288637568,0.08712334658519637
32.750651999999995,7.331995778525475,0.08685584393141964
32.753048,7.336283310987768,0.08659102078692867
32.755436,7.341641778636698,0.08631585276528214
32.757816,7.35300654852488,0.08599305517483952
32.760212,7.37088947733151,0.08563685654714298
32.7626,7.388120779832082,0.08527278881849269
32.764979999999994,7.403349981586238,0.08492687695148361
32.767376,7.425656420766281,0.0845238605001981
32.769763999999995,7.443818888826632,0.08415598242563853
32.772147999999994,7.457977155394149,0.08382039000177151
32.774544,7.469853781961528,0.08351257835512592
32.776931999999995,7.479868077409351,0.08321539041294267
32.779312,7.482805135431285,0.08297468029976154
32.781716,7.486533589386136,0.08273572643662723
32.784104,7.4933350792740425,0.08247175775082788
32.786483999999994,7.498134468415532,0.08222308580814594
32.78888,7.504144562370522,0.08195749680105653
32.791267999999995,7.506010685205817,0.0817294972665436
32.793648,7.501730736175002,0.08155222436440146
32.796043999999995,7.501175449383299,0.08135815362723071
32.798432,7.502482493711153,0.0811553589950448
32.800816,7.504301394718206,0.08096657740707215
32.803211999999995,7.50411819497884,0.08079233373682414
32.805595999999994,7.503934995239477,0.08061913484051797
32.80797999999999,7.502169003634275,0.0804428646846406
32.810376,7.50226534314863,0.08025876747906978
32.812763999999994,7.501011208222627,0.08009647488931187
32.815144,7.499617303669764,0.07994140593403785
32.817547999999995,7.506371571729428,0.07972634281247401
32.819936,7.514708631654927,0.07951513512970493
32.822315999999994,7.527841289006179,0.07927972348465294
32.824712,7.542184651170929,0.07902999304821474
32.827099999999994,7.563325711507848,0.07874231502996094
32.829483999999994,7.586608642218044,0.07843772832131536
32.831883999999995,7.6078894721818235,0.07814834156484862
32.834272,7.631451942145741,0.0778353375917044
32.836651999999994,7.657947678415852,0.07750860936912082
32.839051999999995,7.6836520187530475,0.07717982155076664
32.84144,7.711358459836658,0.0768379513171636
32.843819999999994,7.737202569800712,0.07650512557267326
32.846219999999995,7.7629069101379065,0.07617885958310402
32.848608,7.789030559355683,0.07583596961141063
32.850987999999994,7.818227244506512,0.07547297899971483
32.853384,7.844350893724287,0.0751331812876267
32.855776,7.867541276635865,0.07480977094492411
32.858155999999994,7.8910111988011655,0.07447724036407258
32.860552,7.914760660220186,0.07413270492726695
32.862939999999995,7.933574754586594,0.07381702103268577
32.865323999999994,7.950386748206586,0.07351721521164592
