Time,Force,Position
6.77572,0.04381006795515481,0.0
6.77812,0.05059611538135178,0.0
6.780507999999999,0.061526133927242654,0.0
6.782903999999999,0.07445825321955038,0.0
6.785299999999999,0.08538827176544127,0.0
6.787687999999999,0.09538712475155382,0.0
6.790068,0.10552574736452658,0.0
6.792463999999999,0.1178062403507764,0.0
6.794851999999999,0.13022650296388547,0.0
6.797231999999999,0.143869121136465,0.0
6.799631999999999,0.16007291856290218,0.0
6.802019999999999,0.1750660111758406,0.0
6.804399999999999,0.18712583748258393,0.0
6.806799999999999,0.19718356304291035,0.0
6.809187999999999,0.20644989267031866,0.0
6.811567999999999,0.21986019341742088,0.0
6.813967999999999,0.22684488304469194,0.0
6.816355999999999,0.23038444968657013,0.0
6.818736,0.2368572826346435,0.0
6.821131999999999,0.2411882452094398,0.0
6.823519999999999,0.2423064022243205,0.0
6.825904,0.24114291923906492,0.0
6.828299999999999,0.23476452994747687,0.0
6.830687999999999,0.22638403990947203,0.0
6.833067999999999,0.21907448505810573,0.0
6.835467999999999,0.21190469983359955,0.0
6.837855999999999,0.2045951449822332,0.0
6.84024,0.19231465199598338,0.0
6.842632,0.1798943893828743,0.0
6.84502,0.1654720260233484,0.0
6.847411999999999,0.1487680226636852,0.0
6.849815999999999,0.13220378893088217,0.0
6.852203999999999,0.1185728215042744,0.0
6.854583999999999,0.10694395482408345,0.0
6.856983999999999,0.09317321777061544,0.0
6.859371999999999,0.07726061034387036,0.0
6.861747999999999,0.06603940179828834,0.0
6.864144,0.05747192030518105,0.0
6.866531999999999,0.04904420843893399,0.0
6.868912,0.04126812287874483,0.0
6.871307999999999,0.036704842878471255,0.0
6.873692,0.03321249806483525,0.0
6.876087999999999,0.02958038362433902,0.0
6.878483999999999,0.025028754370036176,0.0
6.880868,0.021408290675511647,0.0
6.883248,0.018579222913905232,0.0
6.885651999999999,0.015750155152298814,0.0
6.888036,0.015750155152298814,0.0
6.890416,0.015750155152298814,0.0
6.892819999999999,0.015750155152298814,0.0
6.8952079999999984,0.015750155152298814,0.0
6.897587999999999,0.015750155152298814,0.0
6.899991999999999,0.015750155152298814,0.0
6.902379999999999,0.015750155152298818,0.0
6.904755999999999,0.015750155152298818,0.0
6.907152,0.015750155152298818,0.0
6.90954,0.014271561831051353,0.0
6.911919999999999,0.011861802950025566,0.0
6.914323999999999,0.00838110888236125,0.0
6.916708,0.006250889255055885,0.0
6.919087999999999,0.003049734441111989,0.0
6.921491999999999,0.000919514813806624,0.0
6.923876,0.0,0.0
6.926255999999999,0.0,0.0
6.928659999999999,0.0,0.0
6.931047999999999,0.0,0.0
6.933423999999999,0.0008269670151895648,0.0
6.93582,0.0008269670151895647,0.0
6.938208,0.0015141644035189194,0.0
6.940588,0.002201361791848274,0.0
6.942983999999999,0.002201361791848274,0.0
6.945367999999998,0.002201361791848274,0.0
6.947763999999999,0.002201361791848274,0.0
6.950168,0.002201361791848274,0.0
6.952556,0.002201361791848274,0.0
6.954936,0.002201361791848274,0.0
6.957339999999999,0.002201361791848274,0.0
6.959728,0.002201361791848274,0.0
6.962107999999999,0.002201361791848274,0.0
6.964504,0.002201361791848274,0.0
6.966887999999999,0.002201361791848274,0.0
6.969268,0.002201361791848274,0.0
6.971663999999999,0.002201361791848274,0.0
6.974051999999999,0.0022013617918482742,0.0
6.976431999999999,0.0022013617918482742,0.0
6.978835999999999,0.0022013617918482742,0.0
6.981223999999999,0.0013743947766587093,0.0
6.983604,0.0013743947766587093,0.0
6.986008,0.0006871973883293546,0.0
6.988396,0.0,0.0
6.990775999999999,0.0,0.0
6.993172,0.0,0.0
6.995555999999999,0.0006399755600862035,0.0
6.997935999999999,0.0006399755600862034,0.0
7.0003319999999984,0.0013724989187894683,0.0
7.00272,0.007132937128721813,0.0
7.005096,0.008097777912902344,0.0
7.007491999999999,0.008097777912902344,0.0
7.009879999999999,0.008783079443362457,0.0
7.01226,0.008783079443362457,0.0
7.014676,0.013332812839796062,0.0
7.017064,0.01695138067645135,0.0
7.019444,0.0235032148193018,0.0
7.021839999999999,0.027261552282817292,0.0
7.024227999999999,0.030368263440274886,0.0
7.026608,0.03561684497100954,0.0
7.029003999999999,0.03914286500904777,0.0
7.031391999999999,0.03914286500904776,0.0
7.033771999999999,0.039735618740890814,0.0
7.036168,0.03973561874089082,0.0
7.038556,0.03973561874089082,0.0
7.040951999999999,0.04703162698841623,0.0
7.043348,0.053967198929575855,0.0
7.045736,0.0623341423637398,0.0
7.048115999999999,0.07415975538713754,0.0
7.050512,0.07099417165546511,0.0
7.052899999999999,0.07648861721551796,0.0
7.05528,0.08322744281347179,0.0
7.057684,0.08914119725410528,0.0
7.060072,0.09695095803869763,0.0
7.062451999999999,0.098580971732777,0.0
7.064852,0.1072410010245023,0.0
7.067235999999999,0.11017426733069746,0.0
7.069619999999999,0.12069662774197941,0.0
7.072016,0.13061268781757737,0.0
7.074404,0.1431352531174069,0.0
7.076784,0.15989433733554742,0.0
7.079187999999999,0.18017944159172616,0.0
7.081576,0.19759015211592462,0.0
7.083955999999999,0.21782803454386024,0.0
7.086352,0.23517987249384378,0.0
7.08874,0.24034755697193308,0.0
7.09112,0.24174335738266595,0.0
7.09352,0.241137057046982,0.0
7.095903999999999,0.23256767969600448,0.0
7.098287999999998,0.23940880798067787,0.0
7.100683999999999,0.2406157210784381,0.0
7.103067999999999,0.24405705234809244,0.0
7.105452,0.25108327622999993,0.0
7.107847999999999,0.2620664797764979,0.0
7.110232,0.27603017145743425,0.0
7.112627999999999,0.2827315301152474,0.0
7.115024,0.291946846198675,0.0
7.117412,0.2960870256026304,0.0
7.119795999999999,0.3032549149692673,0.0
7.122192,0.29864441314074963,0.0
7.12458,0.2867243564608655,0.0
7.126959999999999,0.2782494227663744,0.0
7.129363999999999,0.2744303168707748,0.0
7.131751999999999,0.2714498287363365,0.0
7.134136,0.27386934250546474,0.0
7.136531999999999,0.28355118929771617,0.0
7.138919999999999,0.29909956870235793,0.0
7.141299999999999,0.31865214959983346,0.0
7.143699999999999,0.34025405307196893,0.0
7.146087999999999,0.3565485024391549,0.0
7.148463999999999,0.3778255406871961,0.0
7.150855999999999,0.39686816076334314,0.0
7.153243999999999,0.4095323915479022,0.0
7.15564,0.4133042756152586,0.0
7.158043999999999,0.41637731154831403,0.0
7.160428,0.42205685270560095,0.0
7.162808,0.4274568546091675,0.0
7.165199999999999,0.43471918763229067,0.0
7.167587999999999,0.43993219808075384,0.0
7.1699639999999984,0.4545494119256173,0.0
7.172359999999999,0.477127806927905,0.0
7.174743999999999,0.49626107894479987,0.0
7.177119999999999,0.513439472043521,0.0
7.179516,0.5247513325298518,0.0
7.181899999999999,0.5336890052174283,0.0
7.184279999999999,0.5402524901062506,0.0
7.186691999999999,0.5450008657037593,0.0
7.189079999999999,0.5460245790621546,0.0
7.191459999999999,0.5523557465254996,0.0
7.193855999999999,0.5621320369742373,0.0
7.196244,0.5684159826093391,0.0
7.198623999999999,0.5740010801101397,0.0
7.201035999999998,0.5819603654096948,0.0
7.20342,0.5964378096276979,0.0
7.2058,0.6113345627262818,0.0
7.2082,0.62492806321275,0.0
7.210583999999999,0.6390806422066589,0.0
7.212963999999999,0.6496483285883148,0.0
7.215375999999999,0.659145079783332,0.0
7.217759999999998,0.6664074128064551,0.0
7.220139999999999,0.6678504350454313,0.0
7.222536,0.6700848532173254,0.0
7.224919999999999,0.6725515888146968,0.0
7.227316,0.6795343825840995,0.0
7.229711999999999,0.6851667019131433,0.0
7.232099999999999,0.6894485468018282,0.0
7.23448,0.6935434002354098,0.0
7.236884,0.7012231462812443,0.0
7.239267999999999,0.7034556685952692,0.0
7.241648,0.697167931244429,0.0
7.244052,0.6900887979606707,0.0
7.24644,0.6872934054234664,0.0
7.2488199999999985,0.6865473354609222,0.0
7.251211999999999,0.6819368336324044,0.0
7.253599999999999,0.6730425910573327,0.0
7.255975999999999,0.6641483484822609,0.0
7.258372,0.6569766673998855,0.0
7.260755999999999,0.6535296485566234,0.0
7.263135999999999,0.6557168449002744,0.0
7.2655319999999985,0.6614889338561784,0.0
7.267916,0.675361973596367,0.006197733317817028
7.270296,0.6913768837098326,0.012127350759613503
7.272691999999999,0.7079508723307391,0.01789103826907952
7.2750759999999985,0.7233141561381466,0.02374131885705552
7.277455999999999,0.7438923462518868,0.02926546436656434
7.279852,0.7661005500597063,0.03469972383751758
7.282235999999999,0.7888678323749665,0.04008361449196532
7.284616,0.8077706828242532,0.04560776000147413
7.287007999999998,0.8276046988333184,0.051185822911475824
7.289396,0.8531654778279136,0.05675525545428605
7.291775999999999,0.8836616238751209,0.062080853610830204
7.294172,0.9092224028697162,0.06749640835579727
7.296555999999999,0.9328736289165116,0.07304138382647535
7.29894,0.9573162508962253,0.07867369995815121
7.301335999999999,0.9866942399285509,0.084245819423764
7.303723999999999,1.0145819848936573,0.08999992624457043
7.306108,1.0399557724331494,0.09576487513053632
7.3085239999999985,1.0648177032934436,0.10138824826339704
7.310912,1.0832540230339065,0.10720966180911722
7.313288,1.0951721838559214,0.11321243463039539
7.315683999999999,1.1007119553863483,0.11308227414646688
7.318071999999999,1.1011765902373027,0.1134608261157938
7.320456,1.1002907506478983,0.11405762060624615
7.322847999999999,1.0971704928866,0.11466786690811227
7.3252359999999985,1.0865536888188314,0.11615516172505583
7.3276119999999985,1.0773799069900394,0.11760408768938585
7.330012,1.0672749596014686,0.11910338247022136
7.332395999999999,1.058380717026397,0.1204624223959958
7.3347799999999985,1.0530713670635783,0.1215650255243428
7.337175999999999,1.0488329522873983,0.1225184545843313
7.339559999999999,1.041801040831883,0.12359052911997422
7.341939999999999,1.0329067982568112,0.12485564041335584
7.344355999999999,1.0235006990025417,0.12607484938718633
7.346748,1.017447174935048,0.12686227178237275
7.349124,1.009671089374858,0.12770989084362228
7.35154,1.0038971045610845,0.12840402555887334
7.353923999999999,1.001708012359564,0.12887882312603519
7.356304,0.9988200720237428,0.12957123521061445
7.358696,1.0016588946734517,0.12985998295308263
7.361084,1.0090137754951918,0.12989496671316722
7.36346,1.0191621529962673,0.12975573003162136
7.365876,1.0334545016170364,0.12923341196677635
7.368264,1.0485382461707238,0.1286878856312143
7.370643999999999,1.0682778185233026,0.1278636420559684
7.373056,1.0899269438236812,0.1265042190934628
7.375444,1.10598907576539,0.1255085031349462
7.377823999999999,1.1229823732668769,0.12446122735410572
7.380236,1.1398359011415036,0.1234540984494147
7.382624,1.152033601217239,0.12279744697078643
7.385003999999999,1.1622292005465573,0.12234059544392407
7.387399999999999,1.1701431598757386,0.12215220705361757
7.389783999999999,1.1829924862575316,0.12152359120187992
7.392163999999999,1.1983557700649394,0.12078458748388747
7.394579999999999,1.2092955434989328,0.12056862211386767
7.396963999999999,1.2234481224928417,0.12007010005447202
7.399343999999999,1.2390909455539698,0.11936973270944773
7.401747999999999,1.2527316678686808,0.11886891939833927
7.404135999999999,1.264137972011498,0.11834813808285613
7.406516,1.2693056564895873,0.1181427030291536
7.408919999999998,1.2716798442883417,0.11810252167751265
7.411303999999999,1.2703293698479827,0.1182823848457339
7.413684,1.2689788954076238,0.11845342161414671
7.4160879999999985,1.2688391257807632,0.11849253728925516
7.418476,1.2646951546610696,0.11880095464701602
7.420855999999999,1.2638565368999084,0.11903120143345594
7.423252,1.268465142870557,0.11900460013753984
7.425635999999999,1.272142583281427,0.1190295586639476
7.428015999999999,1.2770307285057956,0.11892948627532807
7.43042,1.285923075222998,0.11855522735995658
7.432808,1.2960261267536994,0.11806096268315572
7.435187999999998,1.3036152208587863,0.11759955257230839
7.437583999999999,1.3078517397770972,0.11745740065422618
7.439967999999999,1.3138580420163477,0.11705348981356187
7.442352,1.324567393882733,0.11620906295269189
7.444747999999999,1.329642530562205,0.11586626967375686
7.447135999999999,1.3305736961219832,0.1158204298325933
7.449515999999999,1.3289909042561472,0.11583852530484472
7.451919999999999,1.3331348753758414,0.11555117919795974
7.454303999999999,1.342586300600485,0.11506904620118592
7.456688,1.3561816969448222,0.11431810857062538
7.459079999999998,1.372850129222215,0.11335900593566163
7.461468,1.388447626312969,0.11251845510105912
7.463863999999999,1.3993892956048317,0.11188142656085306
7.46626,1.4124728352699711,0.11108756547990686
7.468643999999999,1.427838014935248,0.1101683827074292
7.471027999999999,1.445904143481243,0.10904451094915943
7.473424,1.4650412072138763,0.10786764401533919
7.475807999999999,1.4851094365062878,0.10670028604321709
7.478192,1.5031755650522827,0.10565915656871881
7.480587999999999,1.5188202839712799,0.10480145441320833
7.482971999999998,1.542845492928282,0.10364931316289143
7.485367999999999,1.57022327707206,0.10226596510714579
7.48776,1.594108716402202,0.10119642077844217
7.490148,1.6124997101722913,0.10048455787557406
7.492523999999999,1.6345228183828766,0.09947964140204545
7.494928,1.6593394232727974,0.09835458373724927
7.497316,1.6889516255884696,0.09706212704478026
7.499695999999998,1.7126972952917514,0.0960599510479992
7.502087999999999,1.7317871371961415,0.09521086452529022
7.504475999999999,1.749666274287033,0.09449460315744514
7.506871999999999,1.7683368073108425,0.09381007839364666
7.509264,1.78193220365518,0.09331840562321417
7.511652,1.8001834277984088,0.0926817508354663
7.5140319999999985,1.8192260478745557,0.09206874931169516
7.516435999999999,1.834264466457869,0.09164350600142586
7.51882,1.842877273921351,0.0915372088138903
7.5211999999999986,1.8499998373176139,0.09155994100297174
7.523603999999999,1.8529784295941831,0.09175751180515693
7.525991999999999,1.8608923889233644,0.09178826286709998
7.528371999999999,1.8715072971332634,0.09161927626113228
7.530775999999999,1.8793287086638275,0.09152819617733177
7.533159999999999,1.8886403642616105,0.09133474543617598
7.535539999999999,1.895298292806919,0.09117035887021067
7.537935999999998,1.9048894876584226,0.09091488897591003
7.540319999999999,1.914340912883066,0.09069222991746385
7.5427,1.9271449132944853,0.09033148968734701
7.545095999999999,1.9375275040789068,0.09011045873534247
7.547479999999998,1.9496326563560253,0.08987019662046919
7.549875999999999,1.965602240499117,0.08952972478258975
7.5522719999999985,1.9806406590824301,0.08921670355217487
7.554659999999998,1.99167487617291,0.08902264445576039
7.557043999999999,2.0095067914355584,0.0886418095352763
7.559439999999999,2.0285494115117055,0.08821864813481849
7.561824,2.0446587652816572,0.08787322415492724
7.564203999999998,2.05941764461125,0.08760537738463405
7.566607999999999,2.074316293567703,0.08729816073304132
7.5689959999999985,2.0909847258450958,0.08683525688610175
7.571375999999999,2.1108659636824045,0.08623656817663063
7.573779999999999,2.122878568160905,0.08587291916715462
7.576167999999999,2.134471863758826,0.085587504798432
7.578548,2.142480266744493,0.08535336476690336
7.580947999999999,2.144854454543247,0.0853680312812112
7.583335999999999,2.149882369394476,0.08535058473663142
7.585716,2.155329593126286,0.08526732002226103
7.588111999999999,2.1604972776043754,0.08523020527665628
7.590499999999999,2.1592393509626335,0.08542829191005072
7.592879999999999,2.1565384020819156,0.08559474842488644
7.595275999999998,2.15290628764142,0.085780468928007
7.597664,2.1495537124546438,0.08591732649748661
7.600043999999999,2.144478575775172,0.08606521154517652
7.60244,2.142988331707952,0.08616917375240662
7.604827999999999,2.141126000588396,0.08620107238555211
7.607223999999999,2.135399237602866,0.08631435859988627
7.609615999999999,2.133536906483309,0.08634480304794616
7.612003999999999,2.1353066898042483,0.08620578622392856
7.614383999999999,2.140940904991161,0.08598494574022515
7.6167799999999986,2.1480181424170506,0.08580295518083954
7.619164,2.1543039839100215,0.08561836630132666
7.621544,2.163383322082327,0.08538499400686997
7.623947999999999,2.172742199508354,0.08511621731422617
7.6263359999999984,2.1838236384270764,0.08483657006512989
7.628715999999999,2.1998404443984114,0.08444284964570015
7.631119999999999,2.220140991116301,0.08392635700395944
7.633507999999999,2.236949193020553,0.08354803847371137
7.635888,2.2540369341785262,0.08313496523604053
7.638283999999999,2.277690056083191,0.08250719869288262
7.640671999999999,2.302925969853693,0.08189109181812324
7.643051999999999,2.3350993514232226,0.08114291632950356
7.645455999999999,2.3652706322463355,0.08045928080051952
7.647839999999999,2.3979558704950628,0.07977901539879287
7.650219999999999,2.4312001872512314,0.07904017846018864
7.652616,2.462023094380402,0.0784160847412715
7.654999999999999,2.4934976278156307,0.0778132351276194
7.65738,2.5215270382654666,0.07723437793478
7.659796,2.547135039088305,0.07676351791431854
7.662179999999999,2.5753042191650013,0.07620976780940104
7.66456,2.5980261755098875,0.07570406591108311
7.666955999999999,2.6211202189071114,0.07526107892447256
7.66934,2.6434228663714174,0.07480656468281813
7.671723999999999,2.667168536074699,0.07439568802512428
7.674123999999999,2.694638868017094,0.07395455945188754
7.676511999999999,2.7193157032801545,0.0735502508884362
7.678891999999999,2.7395690281698,0.07327694902440228
7.681296,2.765316798619499,0.07285973245022445
7.683679999999999,2.7890624683227805,0.07247932531416193
7.686059999999999,2.8083846276526483,0.07222795320322065
7.688464,2.826123995116679,0.07196144341003333
7.690847999999999,2.834132398102347,0.07183095662857707
7.693227999999999,2.844794528140489,0.07169443671401211
7.695635999999999,2.850009434446821,0.07158945098574461
7.69802,2.8500094344468216,0.07158945098574462
7.700399999999998,2.8502889737005415,0.07155749036838822
7.702803999999999,2.847495477021207,0.07158363577002477
7.7051919999999985,2.8460052329539876,0.07165723861809771
7.707571999999999,2.8446547585136286,0.07171472835627214
7.709975999999999,2.8364593640728573,0.07196837155991331
7.712363999999999,2.8338509629907573,0.07216971890687743
7.714744,2.827797438923263,0.07237560658406167
7.717148,2.82761044746816,0.07249487764581919
7.719531999999999,2.822907397841025,0.07263978417037878
7.721912,2.8116861892954423,0.07284254136582131
7.724307999999999,2.800325211122999,0.0730619441393133
7.726692,2.789243772204277,0.07325098597503091
7.729075999999999,2.773878592539,0.0735333019003242
7.731471999999998,2.7603757439932797,0.073798869436731
7.73386,2.7479438306341977,0.07403992953495406
7.736239999999999,2.7390968098873683,0.07426084339709393
7.738643999999999,2.733834681752793,0.07446934229692968
7.741031999999999,2.7257790569388827,0.07470038211017348
7.743411999999999,2.725592065483779,0.07481740770784878
7.745816,2.731690915521647,0.07480762872244529
7.748203999999999,2.7397918663059313,0.07476810537159011
7.750584,2.7572516945162424,0.07455360038355421
7.752984,2.7723373349277987,0.07431410188176185
7.755367999999999,2.788773449779714,0.07402490932616831
7.757752,2.809772844631904,0.0736101438492313
7.760147999999999,2.825836872431482,0.07326675972499722
7.762535999999999,2.84748789358973,0.07287680727333608
7.764915999999999,2.8663454180686427,0.0725261173280063
7.76732,2.888275978480611,0.07212464316695927
7.769708,2.9120688700121358,0.0717010206463754
7.772088,2.9341392000509647,0.07127184825092674
7.774483999999999,2.9555579037837347,0.07082034660599006
7.776871999999999,2.9823312834496987,0.07026667305018576
7.779252,3.0092444327425216,0.06970439386820045
7.781647999999999,3.032432919796232,0.06916627218600978
7.784035999999999,3.0531074494243278,0.06862881480503946
7.786415999999999,3.0766226975600017,0.06798246232334998
7.788812,3.0984153842029785,0.06733124086229364
7.7912,3.1131308334200667,0.06679058198878174
7.793583999999999,3.122771145957683,0.06633022123503997
7.795979999999998,3.1324114584953,0.06587897049526252
7.798368,3.1363250080473843,0.06548756618514476
7.800747999999999,3.1451739246520827,0.06504526222550187
7.803151999999999,3.1506702660700046,0.06467363827678725
7.805539999999999,3.15430427636837,0.06431570672864993
7.807919999999999,3.1619424881595695,0.06391083127395557
7.810324,3.1701397784582097,0.06346179428786076
