Time,Force,Position
8.671499999999998,0.16865758765098168,0.0
8.67388,0.15998933416305255,0.0
8.676283999999999,0.1514608503019836,0.0
8.678671999999999,0.14279259681405448,0.0
8.681052000000001,0.13305340813948682,0.0
8.683456,0.12317444983805895,0.0
8.685839999999999,0.11050199485729609,0.0
8.688219999999998,0.09661883506303451,0.0
8.690624,0.08445823676146938,0.0
8.693012,0.07402019995260163,0.0
8.695391999999998,0.06572403351700996,0.0
8.697796,0.05370320484230502,0.0
8.700184,0.04075121060782176,0.0
8.702563999999999,0.027938986000198708,0.0
8.70496,0.0192789567084734,0.0
8.707348,0.01634569040227823,0.0
8.709731999999999,0.01620592077541802,0.0
8.712124,0.024865950067143323,0.0
8.714512,0.032455044172230094,0.0
8.716891999999998,0.04218600865059393,0.0
8.719296,0.05499823325821698,0.0
8.721684,0.06594812674628339,0.0
8.724063999999998,0.07475614986107273,0.0
8.726464,0.08556627372227893,0.0
8.728852,0.09530546239684659,0.0
8.731231999999999,0.10476511181769385,0.0
8.733628,0.1150161571714592,0.0
8.736016,0.12619836808500287,0.0
8.738395999999998,0.1384515141851851,0.0
8.740796,0.15177559547200584,0.0
8.743179999999999,0.15988477045249413,0.0
8.745560000000001,0.16813371505984265,0.0
8.747959999999999,0.18052663078688508,0.0
8.750343999999998,0.19184861132728898,0.0
8.752724,0.19901839655179512,0.0
8.755128,0.19738838285771576,0.0
8.757515999999999,0.1949669732307183,0.0
8.759895999999998,0.1843973909911932,0.0
8.762291999999999,0.17769224061764158,0.0
8.764679999999998,0.17298919099050683,0.0
8.76706,0.16227983912412153,0.0
8.769455999999998,0.15329304875043265,0.0
8.771843999999998,0.14858999912329787,0.0
8.774228,0.13988274800332942,0.0
8.776623999999998,0.13131526651022116,0.0
8.779011999999998,0.1251691946441104,0.0
8.781392,0.11944243165858026,0.0
8.783787999999998,0.11078240236685498,0.0
8.786176000000001,0.09863002826149364,0.0
8.788556,0.0853059469746729,0.0
8.790972,0.07822870954878383,0.0
8.793356,0.0707321632423141,0.0
8.795735999999998,0.05833924751527168,0.0
8.798131999999999,0.04701726697486779,0.0
8.800519999999999,0.03876832236751928,0.0
8.802903999999998,0.035454744812782796,0.0
8.805299999999999,0.032001397631186104,0.0
8.807687999999999,0.031760856009505005,0.0
8.810068000000001,0.028726817708488936,0.0
8.812463999999999,0.023690678661056022,0.0
8.814851999999998,0.02158780591981828,0.0
8.817232,0.019624702805440746,0.0
8.819631999999999,0.015519729317786153,0.0
8.822019999999998,0.01341685657654841,0.0
8.8244,0.012245149395088984,0.0
8.826795999999998,0.0089315718403525,0.0
8.829183999999998,0.004407289472117274,0.0
8.831579999999999,0.001885107850298899,0.0
8.833976,0.0017843358554780063,0.0
8.836364,0.0017843358554780063,0.0
8.838743999999998,0.0007523983008787934,0.0
8.84114,0.0,0.0
8.843528,0.0,0.0
8.845911999999998,0.0,0.0
8.848303999999999,0.0,0.0
8.850691999999999,0.0,0.0
8.853075999999998,0.0,0.0
8.855471999999999,0.0,0.0
8.857859999999999,0.0,0.0
8.860240000000001,0.0,0.0
8.862635999999998,0.0,0.0
8.865023999999998,0.0,0.0
8.867415999999999,0.0,0.0
8.869816,0.0,0.0
8.8722,0.0,0.0
8.874583999999999,0.0,0.0
8.87698,0.0,0.0
8.879368,0.0,0.0
8.881747999999998,0.0,0.0
8.884144,0.0,0.0
8.886531999999999,0.0,0.0
8.888911999999998,0.0,0.0
8.891312,0.0,0.0
8.893695999999998,0.0,0.0
8.896079999999998,0.0,0.0
8.898475999999999,0.0,0.0
8.900863999999999,0.0,0.0
8.903244,0.0009393897559821542,0.0
8.905639999999998,0.004160419512101579,0.0
8.908031999999999,0.007381449268221004,0.0
8.910412,0.010882018278060849,0.0
8.912811999999999,0.015173983220818804,0.0
8.915199999999999,0.01774338667088033,0.0
8.917583999999998,0.021383725307580388,0.0
8.919988,0.0238133591307817,0.0
8.922376,0.026242992953983017,0.0
8.924755999999999,0.026242992953983017,0.0
8.927152,0.026242992953983017,0.0
8.92954,0.026242992953983017,0.0
8.931919999999998,0.02788123084426622,0.0
8.934315999999999,0.02965923836140964,0.0
8.936703999999999,0.03329957699810969,0.0
8.9391,0.03693991563480974,0.0
8.941496,0.037507218338454426,0.0
8.94388,0.0380745210420991,0.0
8.946264,0.038502054118883564,0.0
8.94866,0.038502054118883564,0.0
8.951048,0.03756266436290141,0.0
8.953427999999999,0.03434163460678199,0.0
8.955824,0.031548137927447026,0.0
8.958212,0.030337433113948292,0.0
8.960591999999998,0.027404166807753115,0.0
8.962992,0.02483476335769159,0.0
8.965376,0.021342418544055577,0.0
8.967759999999998,0.019200548170778507,0.0
8.970156,0.016770914347577194,0.0
8.972544,0.019060778543918296,0.0
8.97494,0.020279707553620876,0.0
8.977336000000001,0.020279707553620872,0.0
8.979724000000001,0.01864146966333767,0.0
8.982104,0.020875887835231793,0.0
8.984507999999998,0.02138774451442948,0.0
8.986895999999998,0.02054912675326822,0.0
8.989276,0.02264377529830213,0.0
8.991679999999999,0.02259655347005898,0.0
8.994067999999999,0.022169020393274518,0.0
8.996448000000001,0.022169020393274518,0.0
8.998852,0.022169020393274518,0.0
9.001235999999999,0.022169020393274518,0.0
9.003616000000001,0.021741487316490053,0.0
9.00602,0.019451623120148948,0.0
9.008404,0.018092924483586164,0.0
9.010784,0.018092924483586164,0.0
9.013188,0.01794493066052212,0.0
9.015576,0.017657167210597867,0.0
9.017955999999998,0.017657167210597867,0.0
9.020352,0.01536730301425676,0.0
9.022735999999998,0.014148374004554183,0.0
9.025116,0.014148374004554185,0.0
9.02752,0.014148374004554185,0.0
9.029908,0.01013594831551665,0.0
9.032287999999998,0.005983752999618904,0.0
9.034692,0.0031820321240801086,0.0
9.037076,0.0005200808754015235,0.0
9.039459999999998,0.0,0.0
9.041864,0.0,0.0
9.044248,0.0,0.0
9.046627999999998,0.0,0.0
9.04902,0.0,0.0
9.051408,0.001031937554599213,0.0
9.053788,0.0010319375545992128,0.0
9.056179999999998,0.0010319375545992128,0.0
9.058568,0.001031937554599213,0.0
9.060948,0.001031937554599213,0.0
9.063351999999998,0.001031937554599213,0.0
9.065739999999998,0.006532711452986667,0.0
9.06812,0.007237887925622308,0.0
9.070524,0.009665625890954384,0.0
9.072907999999998,0.011162198296508136,0.0
9.075288,0.011162198296508137,0.0
9.077683999999998,0.011162198296508137,0.0
9.080068,0.011162198296508137,0.0
9.082448,0.011162198296508137,0.0
9.084844,0.011162198296508137,0.0
9.087228,0.011162198296508137,0.0
9.089624,0.01596412406059454,0.0
9.092019999999998,0.020114423518623043,0.0
9.094407999999998,0.024404492603511758,0.0
9.096792,0.029765496875039002,0.0
9.099187999999998,0.03209246284555018,0.0
9.101572,0.0384771804754728,0.0
9.103952,0.05096074814326304,0.0
9.106348,0.06851945249052552,0.0
9.108736,0.08915119277084335,0.0
9.111116,0.10996992450626457,0.0
9.113519999999998,0.11676762267843324,0.0
9.115908,0.13473930756794175,0.0
9.118292,0.147543307979361,0.0
9.120687999999998,0.16234940913719703,0.0
9.123076,0.18158534900678203,0.0
9.125456,0.19681708738353332,0.0
9.127852,0.2132123087455402,0.0
9.13024,0.2336117316003808,0.0
9.13262,0.2532197585223033,0.0
9.135027999999998,0.2702666061903681,0.0
9.137411999999998,0.28581688145287915,0.0
9.139792,0.29973714302131077,0.0
9.142191999999998,0.31151553421646533,0.0
9.144576,0.31994135022484416,0.0
9.146956,0.33195205884547596,0.0
9.149356,0.3408444055626786,0.0
9.15174,0.3394013833237025,0.0
9.15412,0.3273887788452014,0.0
9.156516,0.3136063910457608,0.0
9.158904,0.3038735307095277,0.0
9.161288,0.3066651315309934,0.0
9.163684,0.29893437194117717,0.0
9.166072,0.2970229231355081,0.0
9.168451999999998,0.2942728565686778,0.0
9.170848,0.28910138037485,0.0
9.173236,0.29165876791296924,0.0
9.175615999999998,0.295893390973411,0.0
9.178031999999998,0.2922593806750455,0.0
9.180416,0.292861889294991,0.0
9.182811999999998,0.3000297786616279,0.0
9.185208,0.2985848605647826,0.0
9.187592,0.30114414396077116,0.0
9.189972,0.30793994627507054,0.0
9.192367999999998,0.3235355475079555,0.0
9.194755999999998,0.33689673056894637,0.0
9.197136,0.3499311525479735,0.0
9.199531999999998,0.365292540497512,0.0
9.201919999999998,0.39080420180599484,0.0
9.204316,0.40835468195705343,0.0
9.20672,0.4178042113238276,0.0
9.209108,0.4218990647574092,0.0
9.211488,0.43013788931068464,0.0
9.213884,0.4380046268116226,0.0
9.216268,0.4428455502077483,0.0
9.218652,0.4470348472978162,0.0
9.221048,0.45015320920124546,0.0
9.223436,0.45108247890315445,0.0
9.225815999999998,0.45266337491112146,0.0
9.22822,0.45065937830683533,0.0
9.230608,0.44423187132913494,0.0
9.232988,0.44548600625513834,0.0
9.235384,0.446228284501944,0.0
9.237772,0.4468780149501327,0.0
9.240151999999998,0.4388677161065961,0.0
9.242548,0.4329520658080933,0.0
9.244936,0.42945782513658814,0.0
9.247315999999998,0.4293633814801018,0.0
9.249712,0.42382171409180575,0.0
9.2521,0.42852286786107124,0.0
9.25448,0.43815938868294874,0.0
9.256875999999998,0.450357088758684,0.0
9.259263999999998,0.46213547995383863,0.0
9.261644,0.472423627081774,0.0
9.264048,0.4889503938744373,0.0
9.266436,0.506548095853739,0.0
9.268819999999998,0.5184190348475108,0.0
9.271224,0.5301502042144222,0.0
9.273612,0.5488188413803625,0.0
9.275996,0.566835852240245,0.0
9.278392,0.5864828767942069,0.0
9.28078,0.6026847783627757,0.0
9.283164,0.6183276014239037,0.0
9.28556,0.6307576189251163,0.0
9.287948,0.6473316075460226,0.0
9.290332,0.6615314083681747,0.0
9.292728,0.6717270076974932,0.0
9.295116,0.6821549244522889,0.0
9.297496,0.6941656330729206,0.0
9.299892,0.7047333194545765,0.0
9.302284,0.7167440280752082,0.00610333236863644
9.304664,0.7275440318823413,0.01220666473727288
9.30706,0.7431868549434693,0.017739047576933883
9.309448,0.757666195019342,0.023226922365332324
9.311827999999998,0.76977134729646,0.028600967685829218
9.314224,0.780293707707742,0.03392868249864699
9.316612,0.7960309744253564,0.03904280205764725
9.318991999999998,0.8083231181575781,0.04437654210937191
9.321392,0.8196840963300212,0.049540758982014294
9.32378,0.8326278663683009,0.05470202158727812
9.326159999999998,0.8422190612198045,0.06007606690777501
9.328556,0.8516704864444479,0.06561797983346761
9.330939999999998,0.8599112068555925,0.07137938318442164
9.33332,0.8709454239460722,0.07706096864198511
9.335715999999998,0.875042173237523,0.08322523325220399
9.338103999999998,0.880070088088752,0.08938949786242287
9.340484,0.8889624348059545,0.09539401055265746
9.342896,0.8959924504036003,0.10145674166344958
9.345284,0.9023708396951883,0.10746125435368417
9.347663999999998,0.9055364234268609,0.11360365125339414
9.350068,0.9040461793596418,0.1075003188847577
9.352456,0.9061408279046756,0.10755583572692361
9.354831999999998,0.9016700957030183,0.10847048974080198
9.35724,0.9005047168598933,0.10923538536028389
9.359624,0.8993393380167685,0.10997952636526627
9.362008,0.9024104780919547,0.11054161446558317
9.364404,0.9024085822340855,0.11138431792970695
9.366788,0.9094839238021053,0.1116108954562376
9.369167999999998,0.9119034375712336,0.11212293549792605
9.371572,0.9153938865270003,0.11252199047091758
9.373956,0.9242390114159597,0.11241667112687888
9.37634,0.9396495170516105,0.11172550403934094
9.378744,0.9569695756350611,0.110663926301614
9.381132,0.9756401086588706,0.10951215260378205
9.383512,1.0031104406012656,0.10772978642194947
9.385915999999998,1.0344452044096344,0.1058150866170493
9.388303999999998,1.0657799682180027,0.10401431024091605
9.390684,1.0980458975861496,0.10216340246342102
9.393088,1.1308236836334944,0.10040860752941175
9.395476,1.1656035704272558,0.09849371324356701
9.397856,1.2048069675944317,0.10259222542456464
9.40026,1.2384233714029378,0.10060183471423445
9.402648,1.2731107103980817,0.09837454159498381
9.405027999999998,1.304213156780973,0.09636386652383944
9.407432,1.3342446679772255,0.09448777553509616
9.40982,1.360691286561225,0.09284006795869745
9.4122,1.3867185962646442,0.09124100766455542
9.414604,1.4064600644750922,0.09015289062685065
9.416988,1.4279240941782365,0.08898113151646832
9.419372,1.4461753183214654,0.08805190137429095
9.421768,1.4607944280241987,0.08751453242560422
9.424156,1.466566516980103,0.08766930542408949
9.426536,1.4727106929883444,0.0879393809358703
9.428932,1.472569027503615,0.08859920981129762
9.431316,1.467631764593134,0.08944720591874214
9.433695999999998,1.4578989042569008,0.09046896743302493
9.4361,1.4452327776144727,0.09161839632561272
9.438488,1.4339171254124032,0.09259876901470324
9.440867999999998,1.4248831132104711,0.09338987978983261
9.44326,1.4187823673147342,0.09403181520122894
9.445647999999998,1.414124643657973,0.09468039491245188
9.448024,1.4093271503743523,0.09538378313659249
9.450419999999998,1.4103961897031214,0.09585734081942586
9.452808,1.4142587257112258,0.09625495069364794
9.455192,1.4179814920924698,0.09668216823494852
9.457587999999998,1.42328705033955,0.09711545524123871
9.459976,1.4338075148929628,0.09730558514126024
9.462356,1.448332180939209,0.09733521718535551
9.464752,1.4649987173587324,0.09726220286433042
9.46714,1.483295267472335,0.09701040278157905
9.46952,1.5029422920262967,0.0966378657524054
9.471916,1.527152596580533,0.09594573500519757
9.474304,1.5489887133360152,0.0952578637561968
9.4767,1.5760397363978298,0.09428741899144306
9.479095999999998,1.6038821553925626,0.09330159007014376
9.481479999999998,1.6305138695737964,0.09236340778193265
9.483864,1.65700581412817,0.09141558703805382
9.486259999999998,1.681076349055546,0.09068109581616968
9.488647999999998,1.6990008121168116,0.09024695419358582
9.491028,1.7098480377521879,0.09014480847154112
9.493424,1.7109642989092,0.09043168697680345
9.495812,1.7143622000663499,0.09056227486174079
9.498192,1.7098914678646924,0.09103609006776792
9.500588,1.6996939726775047,0.09174672988608519
9.502976,1.6894964774903172,0.09246314999963885
9.505371999999998,1.6758538593177363,0.09325586456485764
9.507768,1.6563447085327656,0.0943010134741728
9.510151999999998,1.6349732266282384,0.09539222242784563
9.512536,1.6146726799103492,0.09635114309468536
9.514927999999998,1.594744220244798,0.09739311948887025
9.517316,1.5749555302061065,0.09838048584555534
9.5197,1.5573087105406924,0.09920116810442252
9.522104,1.5429672442338107,0.09998476008059672
9.524492,1.5266236771805128,0.10083118606237285
9.526872,1.511351045313853,0.10162054412827831
9.529272,1.5000826149400268,0.10225870430279534
9.53166,1.491095824566338,0.10276472736719981
9.53404,1.4813176382597313,0.10327832677260378
9.536435999999998,1.4758231926996783,0.1035830073910477
9.538823999999998,1.4755436534459576,0.10364087767751508
9.541204,1.4852746179243215,0.10327168929577452
9.543599999999998,1.4977990790820204,0.10283638505188857
9.545987999999998,1.5152589072923313,0.10219194999785554
9.548368,1.5384454984881721,0.10132162285023882
9.550771999999998,1.565776060803707,0.10028748696063672
9.553159999999998,1.5940377886790202,0.09918997219903802
9.555543999999998,1.6284455884204438,0.09782439832109502
9.55794,1.6615029137215087,0.09654605944285863
9.560327999999998,1.6893453327162415,0.09555528758456952
9.562708,1.718677995778193,0.09444872649714034
9.565112,1.748010658840145,0.09337614666865789
9.5675,1.7729198115286822,0.09258025587873542
9.569879999999998,1.7933129060451882,0.09189021397520462
9.572276,1.8147769357483328,0.09115756614752303
9.574664,1.8365205047051978,0.09039209042337024
9.577044,1.858543612915783,0.08960863176815566
9.579439999999998,1.8813581170592866,0.08885271520532234
9.581827999999998,1.9064542612029272,0.08797715780304617
9.584208,1.9314106357197078,0.08714648655903659
9.586616,1.9534337439302933,0.0864170707729836
9.589,1.9733149817676015,0.08581819902858147
9.591383999999998,1.9913338884853533,0.08528119660052957
9.59378,2.00669906815063,0.08478156261287093
9.596168,2.0212728518829888,0.08428933091906257
9.598548,2.0309112685627353,0.08393943452304581
9.600948,2.0405496852424827,0.08358471333110763
9.603331999999998,2.0411087637499232,0.08349320545783917
9.605716,2.047302057444277,0.08316541849069531
9.608111999999998,2.0585704878181033,0.08269047174684402
9.610499999999998,2.066626112632014,0.08233494387382004
9.612884,2.071468931886009,0.0820916108484803
9.615279999999998,2.0775224559535026,0.08178370479156416
9.617667999999998,2.08730064226011,0.08140982554888501
9.620048,2.0949369581934394,0.08111426689072698
9.622452,2.1032249004328274,0.08085524838827485
9.62484,2.1075086411793817,0.08070481820392365
9.627219999999998,2.113142856366295,0.08048175318643581
9.62962,2.1186373019263476,0.08028475090641704
9.632008,2.127484322673176,0.07997456064574747
9.634391999999998,2.1394043793530604,0.07958875164222966
9.636788,2.147739543420691,0.07923466827350718
9.639176,2.1528619019284068,0.07897790174907066
9.641555999999998,2.1618486923020956,0.0786560647939195
9.643956,2.1716268786087025,0.0783487632169418
9.646344,2.181265295288449,0.07805700031108392
9.648723999999998,2.1949079134610296,0.07768290399886152
9.65112,2.217350330552195,0.07713299939851517
9.653512,2.2355090068968075,0.0767321388923376
9.655891999999998,2.246869985069251,0.07644921798720053
9.658288,2.2605126032418315,0.0760853144140691
9.660676,2.276436861414548,0.07563195383590927
9.663056,2.2934320547739047,0.07515138455863501
9.665451999999998,2.3087046866405645,0.07468126483236122
9.667839999999998,2.322906383320586,0.07422994702654731
9.670224,2.3332436481346335,0.0738447485400497
9.672619999999998,2.3451637048145177,0.07346885479492264
9.675007999999998,2.355733287054043,0.07317823349051474
9.677404,2.364952394853209,0.0729585832747238
9.6798,2.365604021159267,0.07298646522270835
9.682188,2.3619719067187708,0.07313797231490667
9.684572,2.358991418584332,0.07332002869833344
9.686968,2.3602946711964483,0.0733762861313037
9.689352,2.3593162838084267,0.07351266727402432
9.691736,2.354613234181293,0.07369362755546359
9.694132,2.3521918245542945,0.07379355584121507
9.69652,2.3494908756735766,0.07392777388506354
9.698899999999998,2.344136199740384,0.07406875848703072
9.701296,2.33971268936697,0.07419930333660782
9.703684,2.342226646792585,0.074207206503539
9.706063999999998,2.345392230524257,0.07424272515829594
9.708464,2.351491080562125,0.0742343640589281
9.710852,2.3575899305999926,0.07422737342920938
9.713231999999998,2.3624780758243613,0.07426434427344485
9.715628,2.3727208969819227,0.07417056334262424
9.718016,2.387899085192096,0.07399955635225591
9.720399999999998,2.4044277478426292,0.07376703501267508
9.722796,2.4172317482540486,0.07356882677075541
9.725184,2.4305948271729085,0.07330015228933993
9.72758,2.4494523516518214,0.07287235072652778
9.729976,2.473664552063927,0.07231373297343305
9.732364,2.5017411843420057,0.07170454532549314
9.734748,2.529538277366364,0.07114793285039185
9.737144,2.5557525785248867,0.07057372650304376
9.739532,2.5838292108029655,0.06997566703241094
9.741916,2.6125574693871028,0.06941786388767544
9.744312,2.6404943320383216,0.06886793696052985
9.7467,2.666009785062543,0.06840251848074093
9.74908,2.6876608062207907,0.06798018822795307
9.751476,2.7051678562593446,0.06764638098687754
9.753864,2.7210921144320626,0.0673002867562983
9.756244,2.7319412359253077,0.06704422643924376
9.75864,2.7427903574185537,0.066792171029009
9.761028,2.7565727452179942,0.06650243142706415
9.763407999999998,2.768073493017298,0.06628312116840165
9.765804,2.7747786433908495,0.0661150928295401
9.768192,2.7814837937644006,0.0659494779695853
9.770575999999998,2.7883287137648125,0.06576531923241737
9.772972,2.7968961952579208,0.06558752314426167
9.77536,2.80425297193753,0.06544956047480402
9.777743999999998,2.8093281086170023,0.06537387197204504
9.78014,2.8128204534306382,0.06528068242134874
9.782528,2.813519301564939,0.06520438673148007
9.784924,2.8130074448857414,0.06516374056615572
9.787319999999998,2.8155686241395994,0.06507679598905579
9.789704,2.8181298033934574,0.06499116907013604
9.792084,2.8146846804080647,0.06498240198370342
9.794484,2.8155232981692255,0.06489218675169123
9.796872,2.821437052609859,0.0647300070228393
9.799252,2.8294926774237696,0.06452700763232472
9.801655999999998,2.835266662237543,0.06437911035137374
9.804044,2.8470469492905663,0.06415618536778368
9.806424,2.8576165315300917,0.06396945620481287
9.80882,2.866603321903781,0.06376587489666904
9.811208,2.8757298819043298,0.06354968626690374
9.813592,2.8865790033975753,0.06333602466854499
9.815988,2.8992904560103776,0.06311744326007981
