Time,Force,Position
14.367604,0.24294803654212443,0.0
14.369992,0.23787289986265217,0.0
14.372372,0.22648686333036025,0.0
14.374775999999995,0.21496105717120811,0.0
14.37716,0.20422664694497408,0.0
14.379544,0.19135036634546299,0.0
14.38194,0.17726338093245317,0.0
14.384328,0.16224522995966503,0.0
14.386708,0.14950871898701415,0.0
14.389111999999995,0.1393112237998275,0.0
14.391499999999995,0.12084794984164655,0.0
14.39388,0.09945140957727039,0.0
14.396276,0.08380669065827402,0.0
14.398664,0.07202640360525116,0.0
14.401044,0.06532125323169954,0.0
14.40344,0.056753771738592265,0.0
14.405828,0.045113254312429615,0.0
14.408212,0.03882741281945962,0.0
14.410608,0.03961880875237772,0.0
14.412992,0.04427463655126932,0.0
14.415388,0.043436018790109034,0.0
14.417783999999996,0.047672537708420976,0.0
14.420171999999996,0.05435552461357912,0.0
14.422552,0.0611782811455965,0.0
14.424948,0.07107407361066925,0.0
14.427336,0.08096986607574201,0.0
14.42972,0.09058611928709437,0.0
14.432115999999995,0.10141307731194546,0.0
14.434504,0.11224003533679654,0.0
14.436884,0.11345074015029526,0.0
14.43928,0.11934233112253433,0.0
14.441668,0.12337159097521676,0.0
14.444063999999996,0.1204132663091719,0.0
14.446459999999998,0.11897024407019491,0.0
14.448847999999998,0.11352302033838521,0.0
14.451228,0.11021766697985158,0.0
14.453623999999998,0.11585188216676368,0.0
14.456011999999998,0.12134632772681556,0.0
14.458392,0.1257698381002299,0.0
14.460795999999998,0.12753962142116948,0.0
14.463183999999998,0.1329415191826043,0.0
14.465564,0.132616653958509,0.0
14.467959999999998,0.1330831846673318,0.0
14.470347999999998,0.13327017612243514,0.0
14.472731999999995,0.1283820308980663,0.0
14.475127999999998,0.12070038899436249,0.0
14.477511999999995,0.11236712078460075,0.0
14.479896,0.10154016275974967,0.0
14.4823,0.09071320473489858,0.0
14.484687999999998,0.08596482913738895,0.0
14.487067999999995,0.08172831021907799,0.0
14.489463999999998,0.08321855428629715,0.0
14.491851999999998,0.08911014525853621,0.0
14.494232,0.09516177346816164,0.0
14.496636,0.10577668167806162,0.0
14.499024,0.11331855395490621,0.0
14.501403999999996,0.11806692955241585,0.0
14.503804,0.1160176069777568,0.0
14.506192,0.1148994499628761,0.0
14.508575999999998,0.11191896182843875,0.0
14.510972,0.1142459277989509,0.0
14.51336,0.1190868511950776,0.0
14.515743999999998,0.12579010571076094,0.0
14.51814,0.13570616578635986,0.0
14.520528,0.14669316104859734,0.0
14.522907999999996,0.15940271780353124,0.0
14.525312,0.17211227455846512,0.0
14.5277,0.18717575150162816,0.0
14.530079999999998,0.20130806288501285,0.0
14.532476,0.21080481408003116,0.0
14.534864,0.22095319158110738,0.0
14.537243999999998,0.231381108335904,0.0
14.539644,0.2435788084116402,0.0
14.542027999999998,0.250423728412051,0.0
14.544411999999998,0.2548000169572222,0.0
14.546808,0.264530981435586,0.0
14.549191999999998,0.26383213330128497,0.0
14.551575999999995,0.27179331445870925,0.0
14.553971999999998,0.27211817968280355,0.0
14.556359999999998,0.28040422606432214,0.0
14.558743999999995,0.27951838647491767,0.0
14.561139999999998,0.2807744172587903,0.0
14.563523999999996,0.2765360024826102,0.0
14.565908,0.26959663882571205,0.0
14.568303999999998,0.26824426852748384,0.0
14.570688,0.2696853949085906,0.0
14.573087999999998,0.2727093131555336,0.0
14.575484,0.27624508808167425,0.0
14.577872,0.28136365487365117,0.0
14.580256,0.2945378464795386,0.0
14.582652,0.3013808706220812,0.0
14.58504,0.2987252477117372,0.0
14.587419999999998,0.295929855174533,0.0
14.589816,0.2935990974882843,0.0
14.592208,0.29052416569735967,0.0
14.594587999999998,0.28619130726469316,0.0
14.596984,0.29880642036313976,0.0
14.599372,0.31021082864808763,0.0
14.601755999999998,0.32873969618716775,0.0
14.604152,0.34517391518121393,0.0
14.606535999999998,0.3637027827202941,0.0
14.608915999999995,0.38237141988623435,0.0
14.611316,0.4058828763061697,0.0
14.613703999999998,0.42529758343465424,0.0
14.616083999999995,0.43684365720433155,0.0
14.618479999999998,0.4485295006008691,0.0
14.620867999999998,0.46035511362426673,0.0
14.623251999999995,0.4698065388489102,0.0
14.625647999999998,0.4801891296333319,0.0
14.628035999999998,0.4914556641492888,0.0
14.630432,0.5097522142628917,0.0
14.632828,0.5349862321755233,0.0
14.63522,0.5550053437818226,0.0
14.6376,0.5791684265078157,0.0
14.639996,0.604774531472785,0.0
14.642384,0.6256322608402455,0.0
14.644764,0.6350364642366457,0.0
14.64716,0.6416471709537112,0.0
14.649548,0.643694597670502,0.0
14.651927999999998,0.6446710892006542,0.0
14.654328,0.648860386290722,0.0
14.656712,0.6516992089404308,0.0
14.659095999999998,0.6507661475227833,0.0
14.661492,0.6554200794638055,0.0
14.66388,0.6642179825245218,0.0
14.666259999999998,0.6716654111448791,0.0
14.66866,0.6793923790189571,0.0
14.671043999999998,0.6907042395052878,0.0
14.673427999999998,0.7005730777526424,0.0
14.675824,0.7031323611486309,0.0
14.678211999999998,0.7024788389847038,0.0
14.680595999999998,0.7011736905147188,0.0
14.682992,0.7050834483510662,0.0
14.68538,0.7057804006274979,0.0
14.687763999999998,0.705266648090431,0.0
14.69016,0.7069873137252584,0.0
14.692548,0.7141552030918953,0.0
14.694927999999996,0.7251875243245056,0.0051271074914740694
14.697328,0.7391531118633111,0.01025159335122083
14.699716,0.7517682249617577,0.015486495249944474
14.702095999999996,0.762800546194368,0.020666014009845655
14.704496,0.7753231114941976,0.02562812809455454
14.706884,0.7873338201148294,0.030752613954301303
14.70928,0.7993445287354612,0.03576687645489026
14.711675999999995,0.8122864029158715,0.04067948143942521
14.714067999999996,0.8269980604172213,0.04535569915809355
14.716448,0.8423613442246289,0.04999570813407721
14.718843999999995,0.8527892609794248,0.054814260271292846
14.721232,0.8627978688536396,0.05972904139075688
14.723616,0.8766709085938281,0.06459736341670452
14.726011999999995,0.8906837179608769,0.06951318124860695
14.728399999999995,0.9037653617681473,0.07442899908050936
14.730784,0.9185695670681142,0.07917124000803183
14.733179999999996,0.936866117181717,0.08375131429447284
14.735567999999995,0.9595861776687342,0.08811825287393579
14.737952,0.9859383525962476,0.09228866028039208
14.740347999999996,1.0057723686053128,0.09660847666298478
14.742735999999995,1.023604283867961,0.0957805062814862
14.745116,1.04185550801119,0.09485285271807144
14.747512,1.0611776673410573,0.09382459132513489
14.7499,1.080080517790344,0.09292466183899266
14.752284,1.093349153052718,0.09252445076734453
14.754683999999996,1.1096908242481471,0.09188983527364535
14.757071999999996,1.1209573587641042,0.09158961425290643
14.759456,1.134086224399618,0.09124976821573125
14.761851999999998,1.1418604141019386,0.09133206287799435
14.764239999999996,1.1494948341773992,0.09145646955921694
14.76662,1.161412994999414,0.09125395496251179
14.769019999999998,1.1729590687690914,0.09091193279040752
14.771404,1.188369574404742,0.09042696320345574
14.773788,1.2011263529879184,0.08998244604776948
14.776183999999995,1.2136035923173738,0.08961227339644251
14.778572,1.219422903101521,0.08955509062258829
14.780952,1.222820804258671,0.0897394319933535
14.783348,1.2192812376167914,0.09029556188027699
14.785736,1.2111783909746376,0.09122081870408708
14.78812,1.208802307318014,0.09190875297288689
14.790519999999995,1.201118769556441,0.09275387802231813
14.792907999999995,1.192736383660567,0.09378870887337852
14.795288,1.1855647025781915,0.09467610973382781
14.797687999999996,1.178952100003257,0.09540465132761376
14.800075999999995,1.1790446478018741,0.09560716397175925
14.802456,1.1802081307871297,0.09573333114622215
14.804855999999996,1.1897993256386332,0.09534033202438966
14.807243999999995,1.1938035271314666,0.09514365974782561
14.809628,1.200880764557356,0.09476123403768984
14.812023999999996,1.2006484471318788,0.09459826539584418
14.814411999999995,1.2019989215722378,0.09445352853154979
14.816792,1.204932187878433,0.09432190098507297
14.819191999999996,1.198925885639182,0.09462360669974533
14.821579999999996,1.19943774231838,0.09470336691257529
14.823964,1.1963647063853247,0.09488236575168779
14.826359999999998,1.1960851671316042,0.09496172325522578
14.828751999999998,1.1982270375048811,0.09481334513853004
14.831132,1.2042333397441318,0.09447334293487977
14.833531999999998,1.2146631523567968,0.09379635704962194
14.835919999999998,1.223230633849905,0.093207284743238
14.838303999999995,1.2361744038881848,0.09248838866683785
14.840704,1.2488858565009868,0.09161239689521714
14.843087999999998,1.261737078740649,0.09075388680925864
14.845464,1.2761710928461476,0.08993294568351062
14.847867999999998,1.2853902006453135,0.0894375086477173
14.850251999999998,1.2941899995638992,0.08907372959938994
14.852632,1.2936309210564587,0.08921312085320149
14.855024,1.2958653392283526,0.08926893070789683
14.857408,1.301033023706442,0.0892106892794241
14.859787999999998,1.3170026078495336,0.08871627718770661
14.862184,1.3281765945668733,0.08840419965208736
14.864567999999998,1.3402817468439916,0.08807918908566685
14.866951999999998,1.3578813446811624,0.08740111942843123
14.869363999999996,1.3746895465854152,0.08677290425703632
14.871748,1.4013684825948922,0.08579410828617848
14.874128,1.4303290586045065,0.08469675631773316
14.876524,1.4562165986810656,0.08376127234848706
14.878912,1.483826700250321,0.08284369554187385
14.881291999999998,1.5072928306998823,0.08212864598323182
14.883703999999998,1.5329008315227208,0.0813382122972855
14.886087999999996,1.5594399979053375,0.08054028258214019
14.888468,1.5846286898475954,0.07984858539778811
14.890871999999998,1.6015294395504651,0.07946293830275478
14.893259999999998,1.6173592540666966,0.079135964392428
14.89564,1.6371932700757617,0.0786711048920606
14.898035999999998,1.654233789405492,0.07826351071733141
14.900423999999996,1.678211776534251,0.07760301036703608
14.902804,1.6973941662372583,0.0770573275710086
14.905207999999998,1.7116411888876535,0.07668516075361331
14.907591999999998,1.721744240418355,0.07650693096318797
14.909972,1.7339891623223334,0.07623392155205468
14.912367999999995,1.7482361849727286,0.07591773397912603
14.914755999999995,1.7611327331827646,0.0757106787442272
14.917151999999998,1.7683025184072712,0.07563249734402999
14.919548,1.7685348358327484,0.07574686512666999
14.921936,1.7656941173251701,0.07595590678335952
14.924315999999996,1.7627136291907317,0.07619432037504667
14.926716,1.7572191836306787,0.07642117491862799
14.929104,1.7550773132574016,0.07650026925852123
14.931483999999998,1.7495828676973486,0.07672190878470359
14.933879999999998,1.7425056302714599,0.07691822070618883
14.936263999999998,1.740643299151903,0.07694438391858648
14.938644,1.7518645076974861,0.07662909019722179
14.941052,1.762434089937011,0.0762808000112337
14.943435999999998,1.7710015714301195,0.07598860653567023
14.945815999999995,1.7795690529232275,0.07568954336469783
14.948211999999998,1.7856225769907212,0.07538947753356523
14.950599999999998,1.797263094416885,0.07500461853305351
14.95298,1.813978748522521,0.0744863928702834
14.955375999999998,1.8289718411354605,0.07397279734445421
14.957763999999996,1.8419628330019828,0.07351131522510976
14.960159999999998,1.8521603281891705,0.07310484848913341
14.962564,1.8642201544959145,0.07268027868357843
14.964952,1.8850797797212444,0.07210026996322401
14.967332,1.9048684697599358,0.07154022365903812
14.969728,1.927450656477962,0.0709487704855502
14.972116,1.9551079798754603,0.07024642583476387
14.974495999999998,1.9836964688327372,0.06954493747977084
14.976899999999995,2.008932382603238,0.06897883686567628
14.979284,2.0373811019336547,0.0683133481831827
14.981668,2.0646191164505723,0.06769948920328109
14.984064,2.0834294191012424,0.06732622957669195
14.986448,2.094371088393105,0.06711643972294719
14.988827999999998,2.107175088804524,0.06689386346462328
14.991235999999995,2.121050024402581,0.06664428970970733
14.993624,2.1400000966801116,0.06629543839438151
14.996004,2.1616038960101163,0.0659551454708007
14.9984,2.181485133847425,0.06561336524866923
15.000784,2.1993642709383163,0.06532147249215207
15.003163999999998,2.2198971350816827,0.06503046546431059
15.00556,2.2424320999714658,0.06470680978876558
15.007948,2.260962863368415,0.06444890326884856
15.010327999999998,2.2756291948993908,0.06423917149870172
15.012732,2.2801452530714226,0.06422261389117602
15.015116,2.2905278438558443,0.06412491451076158
15.017495999999998,2.300119038707347,0.06401808152654949
15.019892,2.3018416002000435,0.06402364172871707
15.02228,2.3003513561328246,0.06410729559677121
15.024659999999995,2.300863212812022,0.06415794643991532
15.027064,2.2992331991179427,0.06426004724366552
15.029448,2.300815990983779,0.0642844645402552
15.031827999999996,2.3128285954622805,0.06409178934257419
15.034223999999998,2.3216283943808658,0.06396945887930885
15.036611999999998,2.3254928262468395,0.06392125539377941
15.039008,2.3261444525528976,0.06395280524908722
15.041404,2.3210693158734257,0.0640454048050896
15.043792,2.3141318480743958,0.0641481821888353
15.046172,2.308405085088866,0.0642052301941801
15.048575999999995,2.3003966821031985,0.06433202207910578
15.050964,2.2903861783711146,0.0644896866610851
15.053344,2.279304739452392,0.06467047788803736
15.05574,2.273298437213141,0.06476388791521705
15.058128,2.2694340053471675,0.06480814553882996
15.060508,2.2707844797875265,0.06474444305200709
15.062904,2.2705521623620495,0.0646583689308992
15.065292,2.2724617153098494,0.06452648089326798
15.067671999999998,2.2831710671762346,0.06429180908522723
15.070076,2.2963018286696175,0.06397078594767268
15.072464,2.306639093483665,0.06366540043526975
15.074844,2.3195375375515703,0.0632647960025258
15.07724,2.3285715497535024,0.06290666125050194
15.079628,2.3285262237831286,0.062687139121825
15.082012,2.337979544865641,0.0622869096433159
15.084408,2.3522284633739057,0.06184212845971349
15.086796,2.3709008922555843,0.061290594593260216
15.089175999999998,2.3911561130030994,0.060759674966962225
15.091572,2.4064759666980025,0.06028294451839358
15.09396,2.4196539500196286,0.05985482021488421
15.096339999999998,2.434042638154753,0.05938096653297394
15.098736,2.4459173688642633,0.05887939107013395
15.101124,2.4577920995737736,0.05837781560729398
15.103516,2.4653830895367297,0.057969802446349784
15.105912,2.4757675761790208,0.057554294927042615
15.1083,2.4881541635677284,0.05712239244825147
15.11068,2.4951860750232435,0.05680037821262733
15.11308,2.4957923753589273,0.05661034432423902
15.115464,2.489600977522443,0.05648592532974073
15.117843999999998,2.4862030763652934,0.0563501570114205
15.120244,2.4896028733803117,0.056157308102896646
15.122632,2.491512426328111,0.056037744737587256
15.125011999999998,2.496075706328386,0.05592523028330308
15.127408,2.5057141230081323,0.055746890229097436
15.129796,2.5110687989413254,0.05565278698385828
15.132175999999998,2.516982553381959,0.05549795417655892
15.134572,2.5206146678224557,0.05539711820786522
15.136959999999998,2.525597256703311,0.055247812078891345
15.139356,2.538308709316113,0.05505075574101553
15.141752,2.5568866945413053,0.054815912840502135
15.14414,2.5806795860728307,0.05452085315120174
15.14652,2.6120615717094426,0.05420443349335097
15.14892,2.643443557346054,0.0538880138355002
15.151308,2.6789695141023597,0.053516998644685676
15.153688,2.712772909365969,0.05314618753762766
15.156084,2.7394990672036887,0.05284458124514563
15.158472,2.7705089657879634,0.052474231280494554
15.160856,2.8047316699321527,0.052042365844250246
15.163259999999998,2.8389543740763425,0.05160362255748986
15.165644,2.86810194154106,0.05122416193703976
15.168024,2.8895206452738305,0.050894139658206695
15.17042,2.9110791186334612,0.05055281712985608
15.172804,2.929704325686897,0.05022843587062694
15.1752,2.949120928673251,0.049926934053592414
15.177595999999998,2.9634623949801324,0.049672380374216216
15.17998,2.974311516473378,0.049498951348717624
15.182364,2.985300407593484,0.04931135979201032
15.184759999999995,2.9947990546463696,0.04918452893124489
15.187144,3.0025751402065604,0.04904919548246995
15.189528,3.002622362034803,0.04894984174817176
15.191931999999998,2.99345047606388,0.04894149613053703
15.194315999999995,2.9764099567341504,0.04897948249667581
15.196696,2.960440372591059,0.04900187623301963
15.199092,2.94260845732841,0.049023337890817614
15.20148,2.9235658372522635,0.04907117054659727
15.20386,2.9097381234824486,0.04906176049035135
15.206263999999996,2.893489000085636,0.049109132003724076
15.208648,2.8775194159425452,0.049126868548835044
15.211028,2.8682077603447618,0.049128575953398694
15.213431999999996,2.862108910306893,0.049087877576591374
15.215819999999995,2.85880355694836,0.0490464199806751
15.2182,2.849491901350577,0.04904821672367028
15.220599999999996,2.8431135120589888,0.04903555292480975
15.222987999999996,2.828726719781733,0.0490836293281392
15.225368,2.8200666904900076,0.04911690973279599
15.227764,2.812477596384921,0.049135670995969806
15.230152,2.803677797466335,0.04918429872188441
15.232532,2.7940866026148314,0.04922052686432317
15.234931999999995,2.778349335897218,0.04932066753257476
15.23732,2.7644744002991604,0.049420849107329703
15.2397,2.7536725006341576,0.049491366182324234
15.242096,2.7490166728352654,0.04949501430687974
15.244484,2.7403566435435405,0.049532464905811854
15.246879999999996,2.731556844624955,0.0495847779430641
15.249275999999998,2.720754944959953,0.04965508801060846
15.251663999999998,2.70967350604123,0.049754283523016925
15.254044,2.7030155774959215,0.04977351226061461
15.256439999999998,2.695938340070033,0.04983801103358263
15.258823999999995,2.682342943725695,0.04990391512172754
15.261204,2.6653949721945827,0.05003190529413748
15.2636,2.6512404973428056,0.05015716580269215
15.265988,2.6450944254766946,0.050219704152313846
15.268368,2.640298828050943,0.050235759262579845
15.270768,2.643791172864578,0.05016038361314953
15.273152,2.644909329879459,0.05004151984140919
15.275531999999998,2.644165155774783,0.049922246192113176
15.277928,2.6457026216702446,0.04975786005381492
15.280316,2.65180336756598,0.049506645222689556
15.282695999999998,2.66204808458141,0.04920625130486419
15.285092,2.6721530319699793,0.04891820653478057
15.28748,2.682118209731688,0.04864270196547707
15.289863999999998,2.6827245100673713,0.04847328302532377
15.29226,2.6833308104030547,0.04829996113933147
15.294648,2.6811436140594025,0.04812559400383889
15.297027999999996,2.6810982880890277,0.04791725307027655
15.299423999999998,2.6782594654393184,0.047708994655185466
15.301811999999998,2.669134801296637,0.047582481970768524
15.304192,2.6582875756612605,0.047439810709098716
15.306607999999995,2.6490231418917194,0.0473283590832531
15.308996,2.6432510529358146,0.04713321835468594
15.311391999999998,2.633754301740796,0.04694028668051643
15.313788,2.620253349052944,0.04678030481636111
15.316176,2.6024686556185372,0.04668314516710842
15.318555999999996,2.5804002214375785,0.04664810468917012
15.320956,2.5579124783760387,0.0466599081972224
15.323344,2.5382182319938336,0.04667226699660225
15.325723999999996,2.5151714104248537,0.04674933560961119
15.328119999999998,2.4866301432958204,0.04691572186650874
15.330507999999998,2.4598114376594844,0.04709585637660464
15.332888,2.4363453072099235,0.047209367296575044
15.335283999999998,2.4180940830666944,0.04725914978318168
15.337667999999995,2.407991031535993,0.04723744091956884
15.340048,2.4046856781774606,0.047187861655464715
15.342464,2.4029631166847643,0.04717092618739498
15.344848,2.4001696200054297,0.047169477399429414
15.347227999999998,2.3990986848187914,0.047185320737912415
15.349632,2.401240555192068,0.047153125030748116
15.35202,2.4032426559384845,0.04713703054788074
15.354395999999998,2.4015200944457877,0.047119578020272376
15.356792,2.3950944833259578,0.0472219997285677
15.359175999999998,2.3855958362730716,0.047362857568025885
15.361556,2.375817649966466,0.04754211110490255
15.36396,2.368041564406277,0.047705216047687835
15.366348,2.3585429173533914,0.047854203525713
15.368727999999996,2.3493238095542264,0.04796757019414868
15.371119999999998,2.337031665822006,0.04812183956879854
