Time,Force,Position
14.479148,0.0,0.0
14.481544,0.004314663714814508,0.0
14.483932,0.012493759295602508,0.0
14.486312000000002,0.019462150062891766,0.0
14.488716,0.02829287194973766,0.0
14.491104,0.03712359383658356,0.0
14.493480000000002,0.04502315016365113,0.0
14.495888,0.05213131055780061,0.0
14.498272,0.05830830539217175,0.0
14.500656,0.06034132910684899,0.0
14.50306,0.060341329106848994,0.0
14.505444,0.060341329106848994,0.0
14.507828,0.060341329106848994,0.0
14.510224,0.060341329106848994,0.0
14.512608,0.060341329106848994,0.0
14.514992,0.06102387838116728,0.0
14.517392,0.06328921952132276,0.0
14.51978,0.06328921952132276,0.0
14.522164,0.06328921952132276,0.0
14.52456,0.06328921952132276,0.0
14.526944,0.06328921952132277,0.0
14.529324,0.05897455580650826,0.0
14.531724,0.05079546022572026,0.0
14.534108,0.043827069458431005,0.0
14.536488,0.03499634757158511,0.0
14.538884,0.0261656256847392,0.0
14.541272,0.018266069357671617,0.0
14.543652000000002,0.011157908963522152,0.0
14.546052,0.004980914129151002,0.0
14.548436,0.0029478904144737655,0.0
14.550820000000002,0.0029478904144737655,0.0
14.553216,0.0029478904144737655,0.0
14.555599999999998,0.0029478904144737655,0.0
14.558,0.0029478904144737655,0.0
14.560396,0.0029478904144737655,0.0
14.562784,0.00226534114015548,0.0
14.565164,0.0,0.0
14.56756,0.0,0.0
14.569948,0.0,0.0
14.572328,0.0,0.0
14.574724,0.0,0.0
14.577112,0.0009148666997965288,0.0
14.579491999999998,0.0021092726533134777,0.0
14.581892,0.0021092726533134777,0.0
14.58428,0.0021092726533134777,0.0
14.586659999999998,0.002512282673912317,0.0
14.589056,0.006128098254425775,0.0
14.591444,0.008672978648300701,0.0
14.593827999999998,0.015361830161869537,0.0
14.596224,0.018186249809464886,0.0
14.598612,0.020870899830200018,0.0
14.601004,0.02676835541085075,0.0
14.6034,0.028521839871807567,0.0
14.605788,0.03274205993013674,0.0
14.608168,0.04119879890677689,0.0
14.61056,0.04928345083107956,0.0
14.612948,0.05815949868830034,0.0
14.615344,0.07052789135915713,0.0
14.61774,0.08354791033607184,0.0
14.620128,0.09605607263378885,0.0
14.622508,0.10907609161070354,0.0
14.624911999999998,0.12225217907446023,0.0
14.627300000000002,0.13673151915033271,0.0
14.62968,0.15454713555299923,0.0
14.632076,0.17129181676902722,0.0
14.63446,0.1837690560984829,0.0
14.636844,0.1927539506143035,0.0
14.63924,0.20001628363742768,0.0
14.641628,0.19885090479430384,0.0
14.644008,0.2084402037879392,0.0
14.646412000000002,0.22454766170002277,0.0
14.6488,0.23450904774599562,0.0
14.65118,0.2534100023374142,0.0
14.653576,0.2665860898011709,0.0
14.655964,0.270869830547725,0.0
14.658344,0.2774805372647903,0.0
14.66074,0.28278799136973976,0.0
14.663128,0.28311285659383406,0.0
14.665508,0.27906143327275723,0.0
14.667912,0.274031622563659,0.0
14.6703,0.27086414297411726,0.0
14.67268,0.2651354841307179,0.0
14.675076,0.25437891043608946,0.0
14.677464,0.23677741674104916,0.0
14.679844,0.22369198121804026,0.0
14.68224,0.22019774054653501,0.0
14.684628,0.21526047763605372,0.0
14.687024,0.21469950327074364,0.0
14.689428,0.2234974063314599,0.0
14.691812,0.22051691819702157,0.0
14.694192,0.20743337853188196,0.0
14.696596,0.20273032890474718,0.0
14.698984,0.191369350732304,0.0
14.701364000000002,0.18284719520956966,0.0
14.703768,0.1777701626722282,0.0
14.706156,0.17246081270940944,0.0
14.708536,0.16817517610498606,0.0
14.710932,0.1637497698737025,0.0
14.71332,0.16370065218759008,0.0
14.715704,0.16900621043467035,0.0
14.7181,0.1715654938306588,0.0
14.720488,0.1714710501741725,0.0
14.722867999999998,0.17947755730197065,0.0
14.725264,0.19339781887040236,0.0
14.727652,0.20415249670716157,0.0
14.730035999999998,0.2090406419315304,0.0
14.732432,0.2153718093948753,0.0
14.73482,0.2221222857388008,0.0
14.7372,0.22337831652267345,0.0
14.739596,0.23296761551630785,0.0
14.741984,0.2453504111892772,0.0
14.744364,0.248933407943661,0.0
14.746759999999998,0.2573120021237967,0.0
14.749148000000002,0.2650389699978744,0.0
14.751532,0.27704967861850627,0.0
14.753927999999998,0.28775713462702235,0.0
14.756316000000002,0.300234373956478,0.0
14.758696,0.31862536772656713,0.0
14.761092,0.3383668359370152,0.0
14.76348,0.35410410265462955,0.0
14.765864,0.3711446219843597,0.0
14.76826,0.3941914435533405,0.0
14.770644,0.41230289806970927,0.0
14.773028,0.4309262092652757,0.0
14.775428000000002,0.4500613771400398,0.0
14.777816,0.4671944442683871,0.0
14.780196,0.4844672810235945,0.0
14.7826,0.4994584777786647,0.0
14.784984,0.5139378178545372,0.0
14.787368,0.5231097038254602,0.0
14.78976,0.5341439209159398,0.0
14.792144,0.5477393172602771,0.0
14.79454,0.5584014472984192,0.0
14.796944,0.570925908456118,0.0
14.799328,0.5813084992405397,0.0
14.801708,0.5908524722638002,0.0
14.804112,0.5955536260330657,0.0
14.8065,0.5976936005484735,0.0
14.808879999999998,0.5969003087576861,0.0
14.811272,0.5971779521535373,0.0
14.81366,0.5971760562956683,0.0
14.81604,0.5965225341317412,0.0
14.818435999999998,0.5932152849153391,0.0
14.82082,0.588976870139159,0.0
14.823216,0.5830158938702823,0.0
14.82562,0.5790570183478225,0.0
14.828008,0.5820356106243916,0.0
14.830384,0.5862249077144593,0.0
14.832792,0.5914851399911657,0.0
14.835176,0.5991195600666264,0.0
14.837556,0.6064744408883667,0.0
14.839952,0.616762588016302,0.0
14.84234,0.6247690951441002,0.0
14.84472,0.6347777030183153,0.0
14.847124,0.6429239797729736,0.0
14.849508,0.6516293350350728,0.0
14.851888,0.6659689054840852,0.004932600461826801
14.854284,0.6756526481342059,0.0049326004618268
14.856672,0.6881298874636614,0.0049326004618268
14.859051999999998,0.6993964219796184,0.004932600461826801
14.861444,0.7120134309359342,0.009923112195923135
14.863832,0.7280755628776429,0.014655293294167655
14.866212,0.7485139833645228,0.019444847203412264
14.868607999999998,0.7703028782917617,0.024051328463645244
14.870996000000002,0.7930229387787789,0.028657809723878228
14.873387999999998,0.8166741648255743,0.03327008626335146
14.875792,0.8293837215805072,0.038208358639339024
14.87818,0.841301882402522,0.04309569340226322
14.88056,0.8529405039708164,0.04803396577825078
14.882964,0.8652779736734119,0.052823519687495386
14.885348,0.8771035866968097,0.05756384294782428
14.887732,0.8885098908396266,0.06226437240075789
14.890128,0.9083439068486918,0.06656745032961163
14.892512,0.9264553613650606,0.07079918586452714
14.894896,0.9470807733070438,0.07505107180889074
14.897292,0.9674266459953065,0.07934219854593513
14.899676,0.9865618138700707,0.07864250058197296
14.902056000000002,1.011423744730365,0.08279448595381897
14.904452,1.035354510030881,0.08692106195239276
14.90684,1.0615669153315341,0.09096458500809251
14.90922,1.0848460543259921,0.09004104373131845
14.911616,1.1014672647751416,0.08946084800491992
14.914003999999998,1.1186475537317322,0.08873826455299759
14.9164,1.1334064330613252,0.08826874751866759
14.918804000000002,1.1470943772042794,0.08786026768860983
14.921192,1.1609220909740938,0.08742017827377518
14.923572,1.178474466983022,0.08676067752936248
14.925968,1.195467764484509,0.08626009359240318
14.928352,1.2133922275457745,0.08571581664161336
14.930732,1.2296866769129604,0.08542836357914411
14.933136,1.2467725222130643,0.08516017997651318
14.935524,1.2630669715802503,0.08490267029284496
14.937904,1.272796040200745,0.08514866240426289
14.940308000000002,1.2855981447542948,0.08525120907174048
14.942692,1.299238867069006,0.0851560962909541
14.945076,1.3127398197568567,0.0850851783176855
14.94748,1.3223763405787343,0.08515358198409191
14.949864000000002,1.3284279687883591,0.08529515521652277
14.952244,1.3372730936773187,0.08536558347823638
14.954648,1.3442558874467216,0.08548773378428938
14.957036,1.3520300771490423,0.08561776758725449
14.959412,1.3627375331575586,0.08564016554184027
14.96182,1.3735847587929348,0.08564399474302528
14.964204,1.388715725174865,0.08544334074424842
14.966584,1.4097132241691859,0.08507080878954658
14.968988,1.431781658350145,0.08466774678885683
14.971376,1.4554801062251836,0.08409293805632544
14.973756000000002,1.4806687981674416,0.08337159132908781
14.976152,1.5058574901096993,0.08265455673968246
14.97854,1.5306740949996196,0.08181785999163432
14.98092,1.5564218654493183,0.08098522755983746
14.983316,1.5832405710856554,0.080133085908362
14.9857,1.6086162544830167,0.07919923068679728
14.988084,1.6254244563872695,0.07865981179284438
14.990480000000002,1.6375296086643878,0.078408085095473
14.992868,1.6500540698220867,0.07806630960502413
14.995248,1.6675138980323974,0.07757057383249011
14.997652,1.6876274532951827,0.07705330086419206
15.000036,1.7020142455724379,0.07668747173184072
15.002416,1.7178440600886695,0.0763733956923865
15.00482,1.735815744978178,0.07597360414886441
15.007208,1.7517853291212697,0.07563578292869193
15.009588,1.7645421077044456,0.07544184227267829
15.011984000000002,1.7722237496081497,0.07542367009105909
15.014372000000002,1.771245362220128,0.07561058533942157
15.016752,1.769475578899189,0.07578294818300893
15.019156,1.765983234085553,0.0759574185572924
15.021540000000002,1.7634220548316952,0.07611269892139769
15.02392,1.7642134507646132,0.07612405433908191
15.026324,1.769800444123283,0.07604941408993866
15.028712,1.7715230056159794,0.07604839530559616
15.031092,1.77003276154876,0.07615699275466482
15.033487999999998,1.7693339134144592,0.07627920447439454
15.035876000000002,1.7761316115866275,0.07613417141734216
15.038256,1.7842797841991553,0.07589152620609495
15.040652,1.7924279568116828,0.07565158137432663
15.04304,1.7967116975582371,0.07549706376553743
15.04542,1.800064272745013,0.07535926657111719
15.047824,1.8055587183050659,0.07514273894687408
15.050208,1.807747810506586,0.07490635644328245
15.052588,1.8051413052823544,0.07476278436715048
15.054992,1.8043971311776792,0.07459162635961841
15.057379999999998,1.8045841226327828,0.07440508818757177
15.05976,1.8049108837147465,0.07419091304110832
15.062164,1.8109644077822402,0.07385548915306489
15.064547999999998,1.8156674574093752,0.07361567744176001
15.066932,1.8216737596486257,0.07345007773316554
15.069328,1.824607025954821,0.07338073156564093
15.071716,1.81846095408871,0.07357084858549119
15.074096,1.8073795151699872,0.07387497102876356
15.076492000000002,1.8003022777440982,0.07407260923677238
15.078880000000002,1.79364434919879,0.07419860314538718
15.08126,1.7889885213998982,0.0742711771596277
15.083656,1.7812596576679514,0.07443134746091712
15.086044,1.7744619594957824,0.07457894675863566
15.088428,1.766453556510115,0.07479236607100306
15.090824,1.7613784198306426,0.0749361765964955
15.093212,1.7545807216584743,0.075081647468767
15.095592,1.7497851242327223,0.07517096286411752
15.097984,1.7455013834861681,0.07532487316935943
15.100372,1.7458734705385057,0.07541162197985082
15.102768,1.744802535351867,0.07545018078016703
15.105172,1.748155110538643,0.07531494527348839
15.107556,1.7525786209120573,0.07514225684045475
15.109936,1.759423540912469,0.07486212134390341
15.11234,1.766408230539741,0.07455727042691312
15.114728,1.7735326897938735,0.07423175709938103
15.117108000000002,1.782938789048143,0.0738143803544676
15.119512,1.8032865575942751,0.07315804112425396
15.121896,1.8256364268868241,0.07245767607866496
15.12428,1.8450530298731778,0.07182312044053366
15.126672,1.8660524247253678,0.07121250564959193
15.12906,1.8882625243910565,0.0705633785947394
15.13144,1.9106123936836052,0.06989439001839866
15.133844,1.9348245940957107,0.06921283853040251
15.136232,1.961830291187151,0.06849640402932118
15.138608,1.9859027219723966,0.0678432041221071
15.141016,2.0116977142503383,0.06719471806112166
15.1434,2.033348735408586,0.06665827244647055
15.145779999999998,2.0554190654474147,0.06604350811568416
15.148184,2.077768934739964,0.0654061550620094
15.150572,2.104634862204544,0.0647637915720417
15.152952,2.1301503152287657,0.06423649161533648
15.155348,2.157667868999404,0.06368775337133802
15.157736,2.1776888764635727,0.06334195958668165
15.160116,2.1986410494875197,0.06299100710726574
15.162512,2.2225264888176617,0.06261220380583946
15.164896,2.2501365903869166,0.0622307010716289
15.167280000000002,2.2695985193436443,0.0620034290909178
15.169676,2.2909227794199287,0.061773960102139674
15.172064,2.3141093706157694,0.06153332903249296
15.174444,2.3367841051324123,0.06124642148849793
15.17684,2.3551750989025018,0.06105477309494539
15.179224,2.372355387859092,0.0609041537533603
15.181604,2.389815216069403,0.0607241175856606
15.184012,2.4076943531602946,0.06049646358836043
15.186395999999998,2.4275755909976025,0.060242821130703096
15.188776,2.4485277640215495,0.05997259333886695
15.191172000000002,2.4721336640979716,0.05969866879494942
15.193560000000002,2.5016060967867837,0.059375487855891855
15.19594,2.525863623169263,0.05914363253323231
15.198336,2.5442546169393525,0.05897562586463135
15.200724,2.555428603656692,0.058921153994730045
15.203119999999998,2.5663230511203117,0.0589037557869321
15.205516,2.579499138584068,0.05882192073323876
15.2079,2.5928149956746847,0.058725001150015374
15.21028,2.604268521645745,0.058641809665866504
15.212675999999998,2.6098555150044143,0.05861838874695969
15.215064000000002,2.6195864794827783,0.05852946222548462
15.217444,2.6253132424683088,0.05848973541862062
15.219848,2.6341130413868945,0.05840893420362803
15.222236,2.645706336984815,0.058321419571826565
15.224616,2.662514538889068,0.058154623334965544
15.227011999999998,2.682256007099516,0.0579614728874255
15.229399999999998,2.700786770496465,0.057807758414008835
15.23178,2.7194573035202745,0.05764722375899385
15.234184,2.7379880669172243,0.057504309872090285
15.236572,2.7514436936347013,0.057419410217580805
15.238952,2.766529334046258,0.057259014521400184
15.241348,2.7754689025917036,0.05717732430939254
15.243732,2.789483607816622,0.057037252527566654
15.246128,2.805640183414817,0.05686079746878499
15.248524,2.8263600390132857,0.05657675659544022
15.250912,2.8461487290519774,0.056299093317673306
15.253291999999998,2.8708727861432815,0.05598348593036668
15.255688,2.892384037674668,0.05571847739967522
15.258076,2.908959922153444,0.0554963440976775
15.260456,2.9255358066322197,0.05527240751267094
15.262852,2.938247259245022,0.05507550418707301
15.26524,2.9513780207384044,0.05483261760384238
15.26762,2.9586422496193965,0.05463858419084703
15.27002,2.961762507380695,0.05450066337771162
15.272408,2.9610183332760203,0.05438810204256304
15.274788,2.956689266559093,0.05426978655409467
15.277183999999998,2.9535709046556633,0.05412122420731559
15.279568,2.9480311331252365,0.054034624313650435
15.281964,2.94277090084853,0.05391962361754203
15.284364,2.943656740437935,0.053736759141269914
15.286748,2.9433318752138398,0.05358581339702098
15.289128000000002,2.9452886499898825,0.05338972787699694
15.291528,2.9455228632732293,0.053184428913165285
15.293912,2.945896846183436,0.05296561061915493
15.296296000000002,2.948133160213199,0.0527463765683722
15.298692,2.9454341071903505,0.05255848182055474
15.30108,2.939150161555249,0.05236290975257798
15.30346,2.9362187911069224,0.05210920215162435
15.305856,2.9354292910318738,0.05182269808040175
15.308243999999998,2.933429086143326,0.05156239713404328
15.31064,2.9375749531208895,0.05124277763972191
15.313036,2.9440950078972072,0.0509631824383533
15.31542,2.951546228233303,0.05067995017667365
15.317799999999998,2.9580662830096207,0.05039401078242954
15.320204,2.9655175033457164,0.05010707616667599
15.322588,2.9737601196147305,0.04983111287739953
15.324972,2.9761362032713543,0.049588066087943916
15.327376,2.976929495062141,0.049316304160311714
15.32976,2.97665185166629,0.04906091634744019
15.33214,2.971438841217827,0.048837847443748035
15.334536,2.9612904637167516,0.04864414960591652
15.336924,2.9469981150959823,0.04849421671266241
15.339303999999998,2.9332176231544107,0.048386881889224145
15.341704,2.919948987892037,0.04832186858800096
15.344088,2.903607316696608,0.04828537785900401
15.346472,2.889687055128176,0.048189306711981836
15.348868,2.8730658446790267,0.048181369491281406
15.351252,2.85444253348346,0.04818594047725028
15.353636000000002,2.837821323034311,0.048172838053817786
15.356032,2.8225505870255208,0.04811612063416411
15.358415999999998,2.7989919087773423,0.048146565411851736
15.360816,2.7710569419839923,0.04814763755995619
15.363208,2.743261744817503,0.0481322492036822
15.365596,2.71774818765115,0.04807032231474158
15.367976,2.691163695298158,0.04802170743368988
15.370372,2.6667210733184437,0.047940697423034286
15.37276,2.6440010128314255,0.047874981769119467
15.375139999999998,2.623143283463964,0.04780685838796421
15.377536,2.598932978909728,0.04780213515719888
15.379924,2.576724775101907,0.04778068033753071
15.38232,2.560383103906477,0.0477290363844167
15.384716,2.5499079653234373,0.04764751855440852
15.387104,2.5369188693147833,0.04753330589625301
15.389484,2.523138377373211,0.04740426265733247
15.39188,2.509357885431639,0.047274261909817546
15.394268,2.4971601853559027,0.04717430016473319
15.396652,2.4863129597205256,0.047027040676589686
15.399056000000002,2.473044324458151,0.04694447769623702
15.40144,2.4584252147554175,0.0469104435701374
15.40382,2.443806105052684,0.046874241036512554
15.406224000000002,2.4330514272159243,0.04682374786558506
15.408612000000002,2.4258816419914178,0.04678938357932741
15.410992,2.4173613823265527,0.04680628724290713
15.413396,2.408282044154247,0.04689149620338329
15.415784,2.399854332288001,0.0470126709308065
15.418164,2.392218016354672,0.047147421020274985
15.420568,2.3884461322873167,0.04726583213398808
15.422956,2.3834635434064624,0.04741868937877334
15.425336,2.380762594525745,0.04752295299359721
15.427732,2.3799239767645846,0.047625780133858854
15.430116000000002,2.3773627975107274,0.04771021886003146
15.4325,2.3689350856444804,0.04782778495010131
15.434904,2.364092266390487,0.04796238766562147
15.437288,2.3593892167633532,0.048079656529313675
15.439668,2.3554775630691376,0.04821497499585038
15.442072,2.3512863701212017,0.04838508454219006
15.44446,2.3458844723597667,0.048592657355073884
15.446840000000002,2.3436953801582474,0.04875080535414889
15.449236,2.339783726464031,0.04889348517050842
15.451624,2.336523699075873,0.049071955974884805
15.454004,2.3295390094486006,0.04925625083073484
15.456408,2.3205522190749117,0.049460646071499796
15.458796,2.3158491694477767,0.049589941960377734
15.461175999999998,2.307700996835249,0.04968848619193034
15.46358,2.3019742338497196,0.04971124307232093
15.465968,2.2880992982516615,0.04983801302451439
15.468348,2.268078290787493,0.05005642299148417
15.470752,2.2439133122036306,0.05035962869969247
15.47314,2.2208192688064066,0.0506398772293779
15.47552,2.1899963616772355,0.05098498584685431
15.477916,2.155820879361289,0.05142718831730349
15.480304,2.123647497791759,0.05185637568481628
15.482684,2.0868182884233377,0.05230239433641609
15.485084,2.0479869783084994,0.05277716406369105
15.487468,2.008364272260743,0.05324051175111944
15.489848,1.9713027454668444,0.05357890146843961
15.492244,1.9366626282999435,0.05382868565756221
15.494632,1.9044439207600394,0.05397000856915272
15.497012000000002,1.8742273139665526,0.05408462134055376
15.499408,1.8442902464267863,0.05415632532125025
15.501796,1.82021971149941,0.054176160691304126
15.504176,1.7944266150793375,0.05418157555350774
15.50658,1.7655604827262095,0.05422931138107961
15.508968,1.7416297174256934,0.05422055114711684
15.511348000000002,1.7126238154457052,0.054282201104884485
15.513744,1.6908349205184663,0.05423137782762647
15.516132,1.6737490752183624,0.05401417190969216
15.518512,1.6641597762247282,0.0536197621931871
15.520908,1.6525683764846772,0.05324735401588296
15.523295999999998,1.6476349052899342,0.05282873858945284
15.525676,1.6447035348416086,0.052372165307186885
15.528072000000002,1.6397700636468655,0.05193659527972373
15.53046,1.6366989235716796,0.05148526568139707
15.53284,1.632417078682995,0.051078381315339406
15.535244,1.6281352337943098,0.05066673177941335
15.537632,1.6186384825992923,0.05037773738319418
15.540012,1.607931026590776,0.05014226695791904
15.542407999999998,1.5915893553953468,0.0501126735872927
15.544796000000002,1.5749681449461972,0.0501389343347424
15.547176,1.5543427330042139,0.05023798329600492
