Time,Force,Position
15.98286,0.016493684225342274,0.0
15.985236,0.021716814727878547,0.0
15.987644,0.026008779670636504,0.0
15.990028,0.028298643866977613,0.0
15.992408,0.03137990399623683,0.0
15.994812,0.0325988330059394,0.0
15.9972,0.0325988330059394,0.0
15.999580000000002,0.0325988330059394,0.0
16.001976,0.0325988330059394,0.0
16.004364,0.0325988330059394,0.0
16.006747999999998,0.03151967362309704,0.0
16.009144,0.03189176067543452,0.0
16.011532,0.03440571810104906,0.0
16.013912,0.039209539723004706,0.0
16.016316,0.04708639727801573,0.0
16.018704,0.05696535557944361,0.0
16.021084,0.06912595388100876,0.0
16.023488,0.07927622723995321,0.0
16.025876,0.08970603985261713,0.0
16.028256,0.0981337517188642,0.0
16.03066,0.1012067876519196,0.0
16.033048,0.10800448582408825,0.0
16.035428,0.11745591104873165,0.0
16.037832,0.1278385018331534,0.0
16.04022,0.13756946631151723,0.0
16.0426,0.15130463228271476,0.0
16.044996,0.16532756170383656,0.0
16.047384,0.181212822244515,0.0
16.049764,0.1969583131583332,0.0
16.05216,0.2085598329524575,0.0
16.054548,0.21829902162702516,0.0
16.056928,0.22444509349313593,0.0
16.059332,0.2272385901724709,0.0
16.06172,0.22789021647852878,0.0
16.0641,0.2214646053586976,0.0
16.066504,0.21158564705726973,0.0
16.068888,0.200596755937164,0.0
16.071268,0.19254113112325347,0.0
16.073672,0.17916982800819053,0.0
16.07606,0.16686946007976616,0.0
16.07844,0.1577429000792171,0.0
16.08084,0.14572207140451215,0.0
16.083228,0.13197868123711082,0.0
16.085608,0.11996607675860968,0.0
16.088004,0.10715385215098662,0.0
16.090392,0.09219975717008651,0.0
16.092772,0.07817682774896471,0.0
16.095176,0.06229156720828628,0.0
16.09756,0.04692638754300938,0.0
16.099944,0.0359847182511468,0.0
16.10234,0.026245529576579125,0.0
16.104724,0.018508441648428308,0.0
16.107104,0.012913224093554554,0.0
16.1095,0.0074577761655410055,0.0
16.111884,0.006006529730361161,0.0
16.114268,0.006006529730361161,0.0
16.116664,0.004834822548901737,0.0
16.119048,0.002731949807663994,0.0
16.121432,0.002731949807663994,0.0
16.123828,0.002731949807663994,0.0
16.126212,0.0017000122530647808,0.0
16.128595999999998,0.0017000122530647808,0.0
16.130992,0.0017000122530647808,0.0
16.13338,0.001040161750803047,0.0
16.13576,0.0010401617508030473,0.0
16.138156,0.0010401617508030473,0.0
16.140544,0.0010401617508030473,0.0
16.14294,0.0010401617508030473,0.0
16.145336,0.0006598505022617339,0.0
16.147724,0.0,0.0
16.150104,0.0,0.0
16.152508,0.002102872741237744,0.0
16.154896,0.005089689214010658,0.0
16.157276,0.013431181619976225,0.0
16.159672,0.02270383958572011,0.0
16.16206,0.03197649755146399,0.0
16.16444,0.04232009070384641,0.0
16.166836,0.05238414460250841,0.0
16.169224,0.0709684581660355,0.0
16.171604,0.09048393728934091,0.0
16.174008,0.109068250852868,0.0
16.176396,0.12965466516281193,0.0
16.178776,0.1521034105923125,0.0
16.181176,0.17427261676809264,0.0
16.18356,0.20072556369042693,0.0
16.185944,0.22717851061276123,0.0
16.18834,0.2517691264155389,0.0
16.190724,0.2772909077780949,0.0
16.193103999999998,0.3017417539540123,0.0
16.195508,0.32419049938351285,0.0
16.197896,0.3507832159327074,0.0
16.200276,0.37336350679286434,0.0
16.202676,0.4008338387352594,0.0
16.20506,0.4170829621320715,0.0
16.20744,0.43612558220821857,0.0
16.209844,0.45488866303064523,0.0
16.212232,0.47537430534576824,0.0
16.214608,0.4987932139670864,0.0
16.217004,0.5074532432588118,0.0
16.219388,0.5135993151249226,0.0
16.221784,0.5219798051629275,0.0
16.22418,0.5302205255740722,0.0
16.226568,0.5370182237462409,0.0
16.228948,0.5459577922916866,0.0
16.231352,0.5456782530379661,0.0
16.233736,0.544979404903665,0.0
16.23612,0.5529405860610893,0.0
16.238516,0.5546159257255426,0.0
16.2409,0.5588052228156104,0.0
16.24328,0.565648246958153,0.0
16.245684,0.5675086822198404,0.0
16.248068,0.5705344963246526,0.0
16.250448,0.556844656323829,0.0
16.252852,0.55698253009282,0.0
16.25524,0.5447357123309723,0.0
16.25762,0.5298351675166499,0.0
16.260016,0.513863687515689,0.0
16.262404,0.4907224222902219,0.0
16.264784,0.4761939645282371,0.0
16.267188,0.46548271680398257,0.0
16.269576,0.4520251942286362,0.0
16.27196,0.4362860316531525,0.0
16.274356,0.4231533743019005,0.0
16.276744,0.40815838583109176,0.0
16.279124,0.39660852034567595,0.0
16.281528,0.38720052523353715,0.0
16.283916,0.37192599750900807,0.0
16.286296,0.36801244795692223,0.0
16.2887,0.3626558761658604,0.0
16.291088,0.3581379221359598,0.0
16.293468,0.3528757940013842,0.0
16.295864,0.3545964596362114,0.0
16.298252,0.3696802041898986,0.0
16.300632,0.37680276758616155,0.0
16.303036,0.3963100225132631,0.0
16.305424,0.4196817093063382,0.0
16.307804,0.4389094249797193,0.0
16.310204,0.46451552994468853,0.0
16.312588,0.4825325408045709,0.0
16.314972,0.5051128316647279,0.0
16.317368,0.5299275406967789,0.0
16.319752,0.5531594578629938,0.0
16.322132,0.5715032298048398,0.0
16.324528,0.5898470017466859,0.0
16.326916,0.6126142840619462,0.0
16.329296,0.6310052778320356,0.0
16.331696,0.6452523004824308,0.0
16.33408,0.6542844168264934,0.0
16.336464,0.6623853676107778,0.0
16.33886,0.6675058302606239,0.0
16.341248,0.6779337470154196,0.0
16.34364,0.6782586122395141,0.0
16.346044,0.6816092915684205,0.0
16.348432,0.6830976397777704,0.0
16.350812,0.6788592250015902,0.0
16.353216,0.6784852420913835,0.0
16.3556,0.6821626825022538,0.0
16.35798,0.6849089573533453,0.0
16.360384,0.6970141096304635,0.004233594024109309
16.362772,0.6956636351901045,0.0042335940241093085
16.365152,0.6964550311230226,0.0042335940241093085
16.367548,0.7001796933621359,0.004233594024109309
16.369936,0.7039043556012492,0.004233594024109309
16.372316,0.7084204137732807,0.004233594024109309
16.374708,0.712936471945312,0.00850797360108703
16.377096,0.7178246171696809,0.008507973601087028
16.379476,0.7268567335137438,0.008507973601087028
16.38188,0.7343060579919706,0.00850797360108703
16.384268,0.744548879149532,0.012893152162542415
16.386648,0.7582840451207296,0.017140297533446702
16.389052,0.7627075554941438,0.0171402975334467
16.39144,0.7767222607190617,0.02133484138437021
16.393816,0.7823564759059747,0.021334841384370213
16.396212,0.7918551229588613,0.025568435408479518
16.3986,0.8040074970642225,0.029868520406968205
16.40098,0.8084310074376369,0.029868520406968208
16.403384,0.8118761304230298,0.03442271600944883
16.405772,0.8131793830351456,0.03442271600944884
16.408152,0.8106182037812879,0.030189121985339525
16.410556,0.8185793849387122,0.03455373484125389
16.412944,0.8236072997899412,0.03891834769716825
16.415324,0.8297061498278088,0.04315333992349182
16.41772,0.8406005972914282,0.04723689316951412
16.420108,0.8507036488221296,0.05132044641553642
16.422488,0.8598755347930525,0.05102354025425684
16.424892,0.8764041974435849,0.054749073416829525
16.427276,0.8910705289745608,0.05849699059380498
16.429656,0.907459421998233,0.06222252375637767
16.43206,0.9201236527827923,0.06160841421164388
16.434448,0.9335792795002695,0.06106514824019867
16.436828,0.9582088929350864,0.06465261755693776
16.439224,0.9712452107719829,0.06424033966494527
16.441612,0.9878664212211326,0.06807805159770967
16.443992,1.002345761297005,0.06772133913500968
16.446392,1.0181755758132365,0.06721376798579126
16.448776,1.03894075738208,0.07092742319925271
16.45116,1.0590543126448655,0.07008688281023352
16.453556,1.0831720694004847,0.07374321705608831
16.455944,1.1078016828353017,0.07741569882265506
16.458324,1.126424994030868,0.07683218669914842
16.46072,1.1447687659727142,0.07632028170319438
16.463108,1.1593878756754468,0.07594559836913048
16.465488,1.1710737190719842,0.07572235401536785
16.467884,1.1844821239612184,0.07549150862930586
16.470272,1.194817492917397,0.07542538957144858
16.472656,1.2008691211270215,0.0756248149726709
16.475052,1.2095744763891203,0.07579268489753856
16.47744,1.2181400620243594,0.07599596039834494
16.479836,1.2302905402718514,0.07614477578540185
16.482232,1.2375056514667315,0.07647504689897201
16.48462,1.2382026037431633,0.0769457695043582
16.487,1.2486305204979589,0.07709587438662904
16.4894,1.2616196165066123,0.07703351836068022
16.491788,1.2766108132616825,0.07689651974462224
16.494168,1.2908106140838347,0.07676619054923474
16.496564,1.3037997100924879,0.07672876169534906
16.498952,1.3159974101682232,0.07667729113577039
16.501332,1.3266123183781222,0.07660796084104031
16.503724,1.3362960610282428,0.07655211236981842
16.506112,1.347050738865002,0.07643319629129347
16.508496,1.3580849559554813,0.07624267308521591
16.510892,1.3734954615911321,0.07602734080417302
16.513279999999998,1.3898371327865613,0.07579694974060387
16.515676,1.4044562424892943,0.07557415970933407
16.518072,1.4181441866322486,0.07535277748491778
16.52046,1.4291784037227282,0.07515064188722659
16.52284,1.4398405337608708,0.07485148808072835
16.525236,1.449571498239234,0.07456905330626426
16.527624,1.4586508364115403,0.07425077727857245
16.530003999999998,1.4701515842108435,0.0737598690843142
16.532404,1.4845855983163418,0.07318918039001099
16.534788,1.4943637846229492,0.07272896845943966
16.537171999999998,1.5018603309294187,0.07241293931940233
16.539568,1.507494546116332,0.07213238314082927
16.541956,1.513780387609303,0.07190475931805923
16.544336,1.5183436676095774,0.07167533056732613
16.546732,1.527562775408744,0.07138625713659232
16.54912,1.5335690776479944,0.07122185950262565
16.551516,1.541857019887382,0.07095203178422604
16.553912,1.552426602126907,0.07057438022795111
16.5563,1.5640671195530704,0.0701615800981864
16.55868,1.5751957803000365,0.0696982778827163
16.561076,1.5873953762336408,0.0692095795568751
16.563464,1.6038787129137997,0.06859950751799138
16.565844,1.6243662510867922,0.06789497599919282
16.56824,1.6479268251928398,0.0671080182329066
16.570628,1.66906598967189,0.06645461733399129
16.573008,1.689553527844882,0.06575465858328138
16.575404,1.7092496700849562,0.06505492471237283
16.577792,1.7297372082579485,0.06438672665371989
16.580176,1.7465000841918281,0.06376134307181289
16.582572,1.764845751991543,0.06316888627775867
16.58496,1.7813290886717015,0.0625940113491628
16.58734,1.7950189286725255,0.06203396478212122
16.589736,1.8048443368073754,0.06153268364664952
16.592124,1.8186739464350594,0.06095732842385539
16.594504,1.8267767930772132,0.06046536457680587
16.596904,1.8398150067719785,0.05988699866564784
16.599288,1.8476383141604118,0.05944461905151662
16.601668,1.855182082295125,0.05905936615364548
16.604064,1.8616549152431991,0.058709261829264094
16.606452,1.8649149426313576,0.058455363837686534
16.608832,1.864962164459601,0.05829484797990566
16.611228,1.8616568111010685,0.05824969637579392
16.613616,1.8563493569961191,0.058238949946862975
16.616,1.8516935291972276,0.05826612438528798
16.618396,1.8501107373313914,0.05823220713722497
16.620784,1.8533235428913069,0.05815178568326894
16.623164,1.8593298451305575,0.05806131527523063
16.62556,1.8642652121831693,0.057997675112252435
16.627948,1.871854306288256,0.05794319174891347
16.630328,1.8798627092739235,0.05782678192606077
16.632724,1.8898732130060079,0.05768230651647742
16.635112,1.9056104797236222,0.057494625696667696
16.637491999999998,1.9254917175609305,0.0572294857472007
16.639888,1.9412289842785446,0.05704769832585551
16.642276,1.9588285821157159,0.056856205914459404
16.64466,1.9725637480869134,0.056704146129538946
16.647056,1.9924449859242217,0.056446761421433844
16.649444,2.010324123015113,0.05621562096787118
16.651828,2.0282032601060047,0.05598448051430851
16.654224,2.0471533323835347,0.055724843856313426
16.656612,2.066522713541645,0.05539544657389542
16.658992,2.082167432460642,0.05507873761061245
16.661392,2.0998142521260563,0.054738269540401445
16.663776,2.1135966399254973,0.05443321512457092
16.66616,2.1224436606723263,0.054189132896837085
16.668556,2.1263553143665423,0.05401099224313922
16.670944,2.1249122921275667,0.05395551905047201
16.673324,2.1256111402618676,0.05385241863725107
16.675736,2.124447657276612,0.053755946650573115
16.678124,2.1237960309705537,0.05371846631533651
16.680504,2.1211423039180795,0.05370730039023292
16.6829,2.1156950801862697,0.05370400469422487
16.685288,2.1070350508945443,0.05376772936776841
16.687672,2.10466086309579,0.05371644732729161
16.690068,2.1024264449238963,0.05364560460892671
16.692456,2.103265062685057,0.053530144166658945
16.694836,2.0999597093265248,0.053480659024851995
16.697236,2.098935995968129,0.05337016959494453
16.699624,2.100845548915929,0.05323713484065997
16.702004,2.1018239363039504,0.05310525512934741
16.70442,2.1035937196248904,0.05299020880155844
16.706803999999998,2.1098795611178613,0.05288457630314
16.709184,2.113092366677777,0.05282257957550096
16.7116,2.1223114744769433,0.052695265985711816
16.713984,2.136465949328721,0.052520991174341676
16.716368,2.1506204241804996,0.052345000907347665
16.718764,2.167196308659275,0.05208323041308015
16.721152,2.181490553137913,0.05188678949271842
16.723548,2.197507359109248,0.05170418599334316
16.725944,2.2091478765354116,0.05149209030546675
16.728331999999998,2.22358189064091,0.05127514256552846
16.730712,2.2380159047464088,0.05106099929181468
16.733108,2.251658522918989,0.05082485858549128
16.735496,2.2560820332924036,0.05072274569612622
16.737876,2.2611571699718755,0.050657577325536586
16.740272,2.2650216018378493,0.050633209870718454
16.742656,2.2690258033306834,0.05058929763356529
16.74504,2.27060859519652,0.05062414014928397
16.747436,2.2676753288903244,0.050646685473661066
16.749824,2.2698171992636014,0.05060776415272051
16.752216,2.2741009400101553,0.05053137418292313
16.754612,2.2749395577713165,0.05042175425811146
16.757,2.2749867795995597,0.05029300607223828
16.75938,2.2690276991885523,0.05022536778026122
16.761776,2.259064417284711,0.05019772557752991
16.764164,2.2509634665004263,0.05016844435470681
16.766548,2.2428625157161424,0.05013787624160661
16.768944,2.2359722697453566,0.05007026858022458
16.771332,2.2295013326551514,0.049948476018527165
16.773712,2.2266152881771992,0.049841455153949915
16.776108,2.220004581460134,0.049736434691452176
16.778496,2.2151164362357654,0.04964896968728036
16.78088,2.217025989183565,0.04952445779922054
16.783276,2.2258730099303934,0.04934294233112338
16.785664,2.2322060732516076,0.049126031009655284
16.78806,2.2378875102667637,0.04887588310029299
16.790464,2.2435689472819202,0.048623680996696644
16.792852,2.2507406283642957,0.04829799443748088
16.795232,2.259495101312507,0.04800715039398381
16.797628,2.260101401648191,0.04780807579142704
16.80002,2.260428162730155,0.04764808437542925
16.8024,2.260475384558398,0.047521564038704465
16.8048,2.2642472686257546,0.04739562104209012
16.807188,2.271092188626166,0.047233254184153084
16.809568,2.281801540492552,0.04705214309225318
16.811964,2.2907883308662407,0.04685366490414053
16.814356,2.298564416426431,0.04669073908974442
16.816736,2.3044781708670645,0.04652874591721095
16.819136,2.309041450867339,0.04642185633145179
16.821524,2.312673565307835,0.04631503957448476
16.823904,2.3170970756812492,0.04622507802033377
16.8263,2.3167249886289114,0.04615151760266903
16.828688,2.308624037844627,0.04611176638990233
16.831068,2.294516784821092,0.04612538379957248
16.833464,2.2809213884767545,0.046195965791038504
16.835852,2.263973416945642,0.0463418519974213
16.838236,2.248748006907225,0.04650820170891172
16.840632,2.236316093548143,0.046668140720973375
16.84302,2.225746511308618,0.04682757876142438
16.8454,2.21731879944237,0.046956059934891395
16.8478,2.203024554963732,0.04712461698306386
16.850188,2.1907324112315103,0.04727684021784544
16.852568,2.1737844397003974,0.04742974379423763
16.854972,2.1557655329826457,0.04759951909327846
16.85736,2.134953129585559,0.04776845041054132
16.85974,2.1147923524945305,0.04797667209898131
16.86214,2.0947713450303618,0.04816924498831374
16.864524,2.074331028685613,0.048424557879291716
16.866908,2.052028381221307,0.0486872893110148
16.8693,2.028794568197223,0.04895168872932775
16.871688,2.005700524799999,0.04920078819617102
16.874071999999998,1.9855397477089698,0.04943363342155418
16.876468,1.9681724672972762,0.04966815302273826
16.878852,1.9529470572588594,0.049867508626437816
16.881236,1.9438677190865534,0.049976035348138985
16.883632,1.9386528127802207,0.05006416200825603
16.88602,1.9319948842349124,0.050090542136691334
16.8884,1.9222639197565485,0.050157968463938364
16.8908,1.9097394585988496,0.05022684644327283
16.893184,1.9030815300535415,0.05024961638310094
16.895568,1.8996364070681486,0.050210121509266605
16.897963999999998,1.8960515144558954,0.05019169395883091
16.900352,1.8975417585231145,0.05010844635292497
16.902732,1.896238505910999,0.0500248851722973
16.905132,1.8961459581123818,0.0498985152946193
16.907516,1.8963329495674852,0.04972999023880387
16.909916,1.8974511065823672,0.04956055085200856
16.912312,1.8988488028509694,0.04934605729910729
16.914696,1.9014572039330702,0.049084483745759015
16.91708,1.9031344394553924,0.04881931080416002
16.919476,1.9058826101643533,0.04853076655840489
16.921864,1.9076996153135364,0.04824101144071873
16.924244,1.9055124189698853,0.04799181980844093
16.926648,1.9042563881860126,0.047740890809780855
16.929036,1.892198457737138,0.04758540655399771
16.931416,1.87655563467601,0.04740823114786789
16.933812,1.8644977042271347,0.047249861391809096
16.9362,1.8473646370987875,0.04716610325667978
16.938584,1.8314422747839392,0.0470290945814125
16.94098,1.8064405742967844,0.04701874391323574
16.943368,1.7803679386229916,0.047030041714957144
16.945748,1.7544350725760587,0.04702027219327992
16.948148,1.7288742935814636,0.04709944404655303
16.950532,1.7071779464528414,0.047150707264366806
16.952916,1.6850622904436392,0.047271457426441954
16.955312,1.6608047640611594,0.04744307520030547
16.9577,1.6336139713724849,0.04764800074785943
16.96008,1.6065629483106705,0.04782558205249047
16.96248,1.5803033211817739,0.04802520809739876
16.964864,1.555766255545574,0.04825659181124752
16.967244,1.533231290655791,0.04844820414317076
16.96964,1.512698426512425,0.04861167371366332
16.972032,1.499242799794948,0.04867858863452347
16.974412,1.4860667123311913,0.048691465983822096
16.976812,1.4758238911736297,0.04868615090782048
16.9792,1.4714476026284586,0.0486299054131503
16.981584,1.461204781470897,0.04862114467974264
16.983988,1.4561768666196677,0.04850987885558484
16.986376,1.4476566069548027,0.04853431885489862
16.988756,1.4431405487827715,0.04850724511995704
16.99116,1.4423491528498533,0.04847872639903258
16.993548,1.435830993931405,0.04848297203777266
16.995928,1.4210721146018122,0.04846547372187835
16.998324,1.4032401993391637,0.048513720684771715
17.000712,1.384616888143597,0.048536057442052034
17.003092,1.3692063825079464,0.04845546091451599
17.005496,1.357800078365129,0.048306330672564825
17.007884,1.3481163357150086,0.04818555238379939
17.010264,1.3384325930648877,0.04806477409503396
17.01266,1.3271660585489309,0.04787822991660728
17.015048,1.3106846177266416,0.04782485985507506
17.017428,1.2891280402248801,0.047882921590162386
17.019824,1.2612856212301475,0.0481329474306764
17.022212,1.2310217926084175,0.04853837254204091
17.024592,1.20597287029302,0.04877342029359941
17.026988,1.172915544991955,0.049178766508159714
17.029376,1.143210794877666,0.049414498986357996
17.031772,1.1133662751365165,0.04967812493437694
17.034176,1.0865947913284226,0.04990648589062435
17.036564,1.0622447171473257,0.04996035926251879
17.038944,1.0361720814735327,0.04996838207368012
17.041348,1.017828309531687,0.04989868128100224
17.043736,1.0019984950154555,0.0499172364455458
17.046116,0.9881707812456408,0.04989826854148276
17.048512,0.9723409667294095,0.04741041536791109
17.0509,0.9522274114666239,0.044995594136337635
17.05328,0.9279698850841444,0.04261599884548888
17.05568,0.8987769916490529,0.04023611456190492
17.058063999999998,0.8687927022810433,0.03785623027832096
17.060444,0.8385288736593133,0.035512285617118625
17.06284,0.8113380809706386,0.033096607378731
17.065228,0.7872203242150193,0.03059885097708553
17.067608,0.7635218763399806,0.02796512163423742
17.070004,0.740382506972383,0.025230030592100345
17.072392,0.7117486920447322,0.022639940904878704
17.074772,0.688981409729472,0.01993179790998722
