Time,Force,Position
23.253724,0.00244744808080142,0.0
23.256112,0.0036248982218935995,0.0
23.258496,0.00601305317648452,0.0
23.260892,0.00854097775793565,0.0
23.26328,0.010137736779608462,0.0
23.26566,0.011454956547560853,0.0
23.268056,0.011454956547560853,0.0
23.270444,0.011454956547560853,0.0
23.27284,0.011454956547560853,0.0
23.275236,0.011454956547560853,0.0
23.277624,0.011454956547560853,0.0
23.280004,0.011454956547560853,0.0
23.282408,0.011454956547560853,0.0
23.284796,0.011454956547560853,0.0
23.287176,0.011454956547560853,0.0
23.289576,0.011454956547560853,0.0
23.291964,0.011454956547560853,0.0
23.294344,0.011454956547560855,0.0
23.29674,0.011454956547560855,0.0
23.299128,0.009905419354131195,0.0
23.301512,0.009007508466759434,0.0
23.303916,0.007830058325667254,0.0
23.3063,0.005441903371076334,0.0
23.30868,0.0029139787896252023,0.0
23.311076,0.0013172197679523906,0.0
23.313464,0.0,0.0
23.315844,0.0,0.0
23.318248,0.001269997939710214,0.0
23.320636,0.0037507006929181947,0.0
23.32302,0.006091633819265964,0.0
23.325416,0.010574437318890795,0.0
23.327804,0.012123974512320456,0.0
23.330184,0.012123974512320454,0.0
23.332584,0.012742346145971797,0.0
23.334968,0.012742346145971795,0.0
23.337352,0.012742346145971795,0.0
23.339748,0.012742346145971795,0.0
23.342136,0.012742346145971795,0.0
23.344516,0.012742346145971795,0.0
23.34692,0.012742346145971795,0.0
23.349308,0.012742346145971795,0.0
23.351688,0.012742346145971795,0.0
23.354084,0.012742346145971795,0.0
23.356468,0.012742346145971795,0.0
23.358852,0.012742346145971797,0.0
23.361248,0.012742346145971797,0.0
23.363632,0.012742346145971797,0.0
23.366016,0.011472348206261583,0.0
23.368412,0.008991645453053601,0.0
23.3708,0.006650712326705831,0.0
23.37318,0.0021679088270809997,0.0
23.375584,0.0006183716336513399,0.0
23.377968,0.0006183716336513399,0.0
23.380348,0.0,0.0
23.382744,0.0,0.0
23.385132,0.0,0.0
23.387528,0.0,0.0
23.389924,0.0,0.0
23.392312,0.0,0.0
23.394692,0.0015967590216728112,0.0
23.397088,0.0031935180433456225,0.0
23.399476,0.006652608184575074,0.0
23.401856,0.010903094258722636,0.0
23.404252,0.015944976265788308,0.0
23.40664,0.021918023832632298,0.0
23.40902,0.0240266395335028,0.0
23.411424,0.02506432004773477,0.0
23.413808,0.02506432004773477,0.0
23.416192,0.026102000561966737,0.0
23.418588,0.026102000561966737,0.0
23.420976,0.026102000561966737,0.0
23.423356,0.026102000561966737,0.0
23.42576,0.026102000561966737,0.0
23.428148,0.026102000561966737,0.0
23.430528,0.026102000561966737,0.0
23.432928,0.026102000561966737,0.0
23.435316,0.026102000561966737,0.0
23.437696,0.02648805477014081,0.0
23.440104,0.027665504911232992,0.0
23.442488,0.026315030470874044,0.0
23.444872,0.024718271449201232,0.0
23.447268,0.021259181307971782,0.0
23.449656,0.017008695233824218,0.0
23.452036,0.011966813226758544,0.0
23.454436,0.005993765659914549,0.0
23.456824,0.006924931219692869,0.0
23.459204,0.009066801592969931,0.0
23.4616,0.014248453226895812,0.0
23.463988,0.018532193973449938,0.0
23.466368,0.02799758635392994,0.0
23.468764,0.03639204354777141,0.0
23.471152,0.04357579592811415,0.0
23.473532,0.050619778681596665,0.0
23.475928,0.055661660688662344,0.0
23.478316,0.05763050676267263,0.0
23.480712,0.05763050676267263,0.0
23.483108,0.05773702171712629,0.0
23.485496,0.05759725209026608,0.0
23.487876,0.058388648023184185,0.0
23.490276,0.06025097914274083,0.0
23.492664,0.06743473152308355,0.0
23.495044,0.07261638315700943,0.0
23.49744,0.0777980347909353,0.0
23.499828,0.08405062161149973,0.0
23.502208,0.08736994212586897,0.0
23.504608,0.08564738063317255,0.0
23.506996,0.08592691988689298,0.0
23.50938,0.08527529358083508,0.0
23.511776,0.08434412802105676,0.0
23.514164,0.07526478984875082,0.0
23.516544,0.06818755242286173,0.0
23.518944,0.06660476055702551,0.0
23.521332,0.0691659398108832,0.0
23.523712,0.07666248611735291,0.0
23.526108,0.0904448739167936,0.0
23.5285,0.10526494223046626,0.0
23.53088,0.12011826521654546,0.0
23.533276,0.13390065301598617,0.0
23.535664,0.14316698264339545,0.0
23.538048,0.14922050671088916,0.0
23.540444,0.14726562779271546,0.0
23.542832,0.14274956962068405,0.0
23.545212,0.14554306630001904,0.0
23.547612,0.148336562979354,0.0
23.549996,0.15392355633802393,0.0
23.552392,0.16686732637630336,0.0
23.554788,0.175108046787448,0.0
23.557172,0.18162620570589627,0.0
23.559552,0.18414016313151085,0.0
23.561956,0.19051855242309887,0.0
23.564344,0.1970367113415471,0.0
23.566728,0.1971292591401642,0.0
23.569124,0.19000479988603192,0.0
23.571508,0.178876139139066,0.0
23.573888,0.163124905265615,0.0
23.576284,0.14830483695194233,0.0
23.578672,0.13334499901140945,0.0
23.581052,0.11931632663065492,0.0
23.583448,0.10837276148092408,0.0
23.585836,0.10021062171255987,0.0
23.588232,0.09498174825039085,0.0
23.590628,0.09530661347448616,0.0
23.593016,0.08733146516122532,0.0
23.595396,0.07828538166132594,0.0
23.597796,0.06937906778828677,0.0
23.60018,0.05511807798205495,0.0
23.602564,0.04341826742968083,0.0
23.60496,0.032370083183364595,0.0
23.607348,0.02546587005674228,0.0
23.609728,0.018701426556980177,0.0
23.612124,0.010866047870579543,0.0
23.614512,0.005172539557455968,0.0
23.616896,0.002691836804247987,0.0
23.619292,0.0012820692376785368,0.0
23.62168,0.0012820692376785368,0.0
23.62406,0.0012820692376785368,0.0
23.626456,0.0012820692376785368,0.0
23.628844,0.0012820692376785368,0.0
23.63124,0.000990458685989795,0.0
23.633636,0.000990458685989795,0.0
23.636024,0.000990458685989795,0.0
23.638404,0.0,0.0
23.640804,0.0,0.0
23.643192,0.0,0.0
23.645572,0.0,0.0
23.647968,0.0,0.0
23.65036,0.0,0.0
23.65274,0.0017327369327955109,0.0
23.655136,0.006957818679227028,0.0
23.657524,0.01497639710499351,0.0
23.659904,0.023786371463678103,0.0
23.6623,0.029802849143027735,0.0
23.664688,0.03810096682251464,0.0
23.667068,0.048401185248418396,0.0
23.669468,0.06363677072693417,0.0
23.671852,0.07780142101881142,0.0
23.674236,0.0930370064973272,0.0
23.67664,0.10785328309526233,0.0
23.679028,0.12467166043961433,0.0
23.681408,0.13906862815696885,0.0
23.683804,0.15770211479263432,0.0
23.686192,0.17875701105529732,0.0
23.688576,0.19701841063862532,0.0
23.690972,0.21765399802070765,0.0
23.69336,0.23964005984314893,0.0
23.69574,0.26283682647908896,0.0
23.698136,0.288827089794364,0.0
23.700524,0.3161576521098988,0.0
23.702908,0.33692283367874226,0.0
23.705304,0.35382358338161224,0.0
23.707692,0.3756597001370943,0.0
23.710088,0.4004290831987714,0.0
23.712484,0.42063518626017404,0.0
23.714868,0.4420047723068323,0.0
23.717248,0.4568561994350423,0.0
23.719644,0.4695657561899752,0.0
23.722032,0.484369961489942,0.0
23.724416,0.49815045343151343,0.0
23.726812,0.5125825716791427,0.0
23.7292,0.5314382003001865,0.0
23.73158,0.5398186903381913,0.0
23.733984,0.5442875266819795,0.0
23.736372,0.5562056875039945,0.0
23.738752,0.5612336023552235,0.0
23.741148,0.5654228994452912,0.0
23.743536,0.5699842835876965,0.0
23.74592,0.5698898399312103,0.0
23.748316,0.562718158848835,0.0
23.750704,0.5602023055653512,0.0
23.753084,0.5607594882149227,0.0
23.75548,0.5517254760129907,0.0
23.757868,0.5458570475427311,0.0
23.760264,0.5405476975799124,0.0
23.76266,0.5304899720195849,0.0
23.765044,0.5233182909372095,0.0
23.767424,0.5197787242953303,0.0
23.769828,0.510419846869304,0.0
23.772216,0.5059491146676465,0.0
23.774596,0.4940290579877625,0.0
23.776992,0.48355202354685445,0.0
23.77938,0.4878338684355393,0.0
23.781764,0.4936059573914434,0.0
23.78416,0.4945824489215957,0.0
23.786548,0.5070124664228082,0.0
23.788928,0.5172080657521265,0.0
23.791328,0.5279627435888857,0.0
23.793716,0.539508817358563,0.0
23.7961,0.5541279270612958,0.0
23.798496,0.5688868063908886,0.0
23.800884,0.5815038153472045,0.0
23.803264,0.6010582921025492,0.004893105735622213
23.805664,0.6162364803127228,0.0048931057356222125
23.808048,0.6377930578144844,0.009632012504834619
23.810432,0.6597217223685834,0.014529893274363485
23.812828,0.6803471343105667,0.01942777404389235
23.815216,0.7061402307306393,0.02404136453648649
23.8176,0.7344472845763264,0.02870299835902988
23.819996,0.7593092154366207,0.03336463218157327
23.822384,0.7909688444690836,0.037897303582032006
23.824764,0.817321019396597,0.042510894074626146
23.827164,0.8322196683530502,0.047309412546363575
23.829552,0.8452559861899467,0.05220877133839708
23.831936,0.8585718432805636,0.057054309935781006
23.834332,0.8628083621988746,0.06212025851198842
23.83672,0.8676965074232433,0.06730499363108226
23.839104,0.8690923078339762,0.06730499363108226
23.8415,0.8735611441777644,0.07254393640271385
23.843888,0.8828255779473045,0.07749839484065536
23.846272,0.8926490902242854,0.08220388866272776
23.848668,0.9035435376879049,0.08686552248527116
23.851056,0.9113649492184688,0.08663405057219234
23.85344,0.9213282311223099,0.09120642891460508
23.855836,0.9277066204138978,0.09095438399214302
23.85822,0.9365064193324834,0.09041694883706616
23.860616,0.9471685493706254,0.08981208865107514
23.863012,0.9503813549305411,0.08955894377293301
23.8654,0.9566671964235122,0.0891166379374571
23.86778,0.9630928075433434,0.08863285419677946
23.870176,0.9675163179167577,0.08827803287818646
23.872564,0.974733324969507,0.08781287910206736
23.874944,0.9830212672088948,0.08722262949241526
23.877348,0.9930317709409792,0.08657380643220762
23.879736,1.0036939009791215,0.08598928402735137
23.882116,1.0154269662039022,0.08525906055901505
23.884512,1.0308846936677958,0.08435542512182687
23.886896,1.0518368666917428,0.08840756063565493
23.889276,1.0706471693424127,0.08725822096738309
23.89168,1.089457471993082,0.08626050645753973
23.894068,1.102913098710559,0.08565607995144615
23.896448,1.1134354591218412,0.08518715286718442
23.898844,1.123818049906263,0.08475687656176539
23.901232,1.1343404103175447,0.0843117417984061
23.903612,1.1425811307286897,0.0840562374687801
23.906008,1.1506820815129744,0.08386084999462369
23.908396,1.1550583700581454,0.0837890637432736
23.910792,1.163950716775348,0.08360421760984929
23.913196,1.1671163005070204,0.08364545881972787
23.915584,1.1700023449849726,0.08376770140522483
23.917964,1.1736797853958425,0.08389905892872924
23.920368,1.1787077002470716,0.08388887074126418
23.922752,1.188111903643472,0.0838143576767855
23.925136,1.2035224092791228,0.08349299437211165
23.92754,1.2172103534220773,0.08318186678499079
23.929924,1.2321090023785304,0.0827632471873525
23.932304,1.2457043987228675,0.08228287091020009
23.934704,1.2540848887608724,0.08208267176959089
23.937088,1.2646072491721543,0.08177545884576641
23.939472,1.2663298106648508,0.08176579084060133
23.941868,1.274989839956576,0.08149736730123075
23.944252,1.2877938403679954,0.08103828560134627
23.946636,1.30381064633933,0.08043188730301709
23.949032,1.3183372082434457,0.07998859451803728
23.951416,1.33407447496106,0.07944118779498659
23.9538,1.3515343031713711,0.07891396878423075
23.956196,1.3708564625012385,0.07833057358158277
23.95858,1.3887355995921298,0.0777221693780385
23.960964,1.41341243485519,0.07692328955296641
23.96336,1.437297874185332,0.07609693740552687
23.965744,1.4636047231424714,0.07514920025814444
23.968128,1.4853482920993362,0.07447264110100844
23.970524,1.5039262773245285,0.07375940956739034
23.972912,1.5157065643775527,0.0732624387340341
23.975292,1.5353554847893836,0.0725943516219599
23.977696,1.5577979018805495,0.07190832608670955
23.980084,1.579821010091135,0.07133028187711926
23.982464,1.603054823115219,0.07067767638368709
23.98486,1.6242865353928864,0.07009461708393852
23.987248,1.6536664202830813,0.06925588877011969
23.989628,1.680252808493941,0.06850260752656986
23.992024,1.7045575567046638,0.06787048460986772
23.994412,1.7277913697287477,0.0673120222337048
23.996808,1.7525154268200511,0.06664551530109683
23.999204,1.7803125198444096,0.06592078783507922
24.001592,1.8034537850698766,0.06525251510365555
24.003972,1.8305992517881775,0.06452354345380348
24.006372,1.8565340136929795,0.06386521565600775
24.00876,1.8823290059709215,0.06327550225575429
24.01114,1.9110572645550583,0.06264675512929004
24.01354,1.9364329479524196,0.062149292973053195
24.015924,1.9651612065365565,0.06152887595027521
24.018304,1.9965431921731684,0.06092387661794596
24.020708,2.0280649474366403,0.060292043713762865
24.023096,2.0446408319154163,0.05991910970011797
24.025476,2.059214615647775,0.05959240895393704
24.027872,2.070575593820218,0.059344380535095054
24.03026,2.0816570327389408,0.059140215514465855
24.032644,2.092738471657664,0.05893605049383666
24.03504,2.101398500949389,0.05883792725621691
24.037428,2.1069854943080593,0.05880073484442475
24.039808,2.1115015524800906,0.058789532497131744
24.042204,2.1108027043457893,0.05889866533714426
24.044592,2.107030820278433,0.05907192622469057
24.046976,2.100185900278021,0.059303407645646504
24.04938,2.0962742465838047,0.05949476391190073
24.051768,2.087427225836976,0.05975420332183793
24.054148,2.077649039530369,0.06002117130545329
24.056544,2.05734849281248,0.06040653700375171
24.058932,2.035977010907952,0.060809949314416245
24.061312,2.0136743634436463,0.06122774250599791
24.063716,1.9943049822855357,0.061585801036688655
24.066104,1.9729335003810082,0.061969606984816086
24.068484,1.9543555151558158,0.06232995536525616
24.07088,1.948069673662845,0.06246594349810984
24.073268,1.9409924362369557,0.06258483981990336
24.075652,1.9404805795577582,0.06252827604447216
24.078048,1.9422503628786978,0.062401811514232276
24.080436,1.946022246946054,0.06224752424183967
24.082816,1.9470006343340756,0.06210600119926279
24.085212,1.9499811224685142,0.06193253240691419
24.0876,1.9584560561630053,0.061617952836002673
24.089984,1.9713545002309105,0.0611770311294359
24.09238,1.9891883113514282,0.06067605981647206
24.094764,2.0070221224719456,0.06017508850350822
24.097148,2.0237849984058247,0.05970389927518605
24.099544,2.0425499750861205,0.059204830374256494
24.101932,2.0641084484457513,0.05869390991347502
24.104312,2.096329051843524,0.05805880935408457
24.106712,2.1266873241217406,0.05743438586847562
24.109096,2.158396070840316,0.0567420273308165
24.111492,2.187451090506415,0.056079558939782205
24.113888,2.2165061101725145,0.055417090548747924
24.116276,2.2424880939055605,0.05481143747610531
24.11866,2.2632551713322733,0.05432286905551757
24.121056,2.284813644691904,0.05385465750233264
24.123444,2.299294880625646,0.05349536216211251
24.125824,2.3107030806263325,0.053186734694613796
24.12822,2.318386618387904,0.052890585620304374
24.130608,2.3312850624558084,0.05251076347666488
24.132988,2.3464651465238497,0.0520783393275492
24.135388,2.3593635905917543,0.05172158800069519
24.137776,2.374264135406076,0.051356542643521214
24.140156,2.385020709100704,0.051052624835436586
24.142552,2.3949858868624134,0.05073212718851879
24.14494,2.4049510646241226,0.05041162954160101
24.147336,2.411843206452777,0.0501279267151621
24.149736,2.4132881245496214,0.04983088636123082
24.152124,2.408447201153494,0.04962878967822302
24.154508,2.405748148130644,0.04938984546835193
24.156904,2.402629786227214,0.0492028848972538
24.159292,2.393877209136872,0.049141165589212374
24.161676,2.38526440167339,0.04906125017859193
24.16408,2.379864399769822,0.0489265094172825
24.166468,2.379399764918866,0.04875546376115722
24.168848,2.379214669321631,0.048551783199273536
24.171248,2.3839649407770085,0.048311799109567746
24.173636,2.3915087089117204,0.04807172028021363
24.176016,2.403568535218465,0.04784870172977101
24.178412,2.411624160032376,0.04766486984159295
24.1808,2.4153960440997317,0.0475485876938558
24.183184,2.410368129248503,0.04747989259808042
24.18558,2.3981232073445247,0.047494840892188944
24.187968,2.385086889507628,0.04749341193999705
24.190348,2.375775233909845,0.04749106960687085
24.192748,2.3673947438718397,0.047488978505805954
24.195136,2.363158224953528,0.04743639697661358
24.197516,2.3662312608865834,0.04740347408150039
24.199912,2.3729364112601354,0.04726900146920734
24.2023,2.37735992163355,0.04718545058413078
24.20468,2.382854367193603,0.04708518899768778
24.20708,2.393703488686849,0.04689656407331639
24.209468,2.4041333012995136,0.046759022778857684
24.211848,2.4104191427924846,0.04667365129623409
24.214244,2.408696581299788,0.046656044950586374
24.216632,2.4056235453667325,0.046689699523703325
24.219012,2.3982667686871224,0.04679121518884016
24.221408,2.384112293835344,0.04692966126945168
24.223796,2.364370825624897,0.047067963225421436
24.226176,2.343139113347229,0.047282644173018015
24.228572,2.3248406673757565,0.047481308290049595
24.23096,2.31520225069601,0.04764761085385393
24.233344,2.3095680355090966,0.04777957628550687
24.23574,2.306867086628379,0.04789183434358995
24.238128,2.298159835508411,0.0480630703290481
24.240508,2.2865193180822474,0.04825643931003884
24.242908,2.272736930282807,0.04848399934603101
24.245292,2.254438484311335,0.04869097445691352
24.247676,2.2355809598324217,0.048965816310742115
24.250072,2.2188653057267858,0.049203701965796855
24.25246,2.200566859755314,0.04940252885608873
24.254844,2.1794749171045065,0.04959885508995022
24.25724,2.162015088894196,0.04968239942782895
24.259628,2.1453466566168027,0.04978950579453249
24.262012,2.1306803250858266,0.04988469326269692
24.264408,2.1141516624352947,0.049984068351192214
24.266796,2.1006960357178177,0.05004736672085999
24.269192,2.0953885816128683,0.05001142542015256
24.271588,2.09487672493367,0.04995431990803292
24.273976,2.0958551123216917,0.04981825836353227
24.276356,2.0949711685901566,0.049683138476428544
24.278756,2.096368864858759,0.04949452180593518
24.28114,2.0966956259407223,0.049324106456230164
24.283524,2.094880516649409,0.049192188049285775
24.28592,2.094276112171594,0.04901819521348981
24.288308,2.0948824125072782,0.04880199208842955
24.290688,2.097351043962519,0.048586730397403396
24.293088,2.1004713017238172,0.048409237585488506
24.295476,2.1006582931789204,0.048251761763544815
24.297856,2.0956303783276917,0.04817702322111538
24.300256,2.088181053849465,0.04818494884183383
24.302644,2.0821747516102147,0.048253746616129425
24.305024,2.0688116726913552,0.04845326624878402
24.30742,2.0578700033994926,0.048567427763476015
24.309808,2.0500013700406856,0.04863747946191827
24.312192,2.0442746070551556,0.048664215402549504
24.314588,2.0366855129500685,0.048692863023095626
24.316976,2.024812678098428,0.048805939074848266
24.31936,2.007864706567315,0.048988795099726694
24.32176,1.9946413972753152,0.04916293506183993
24.324148,1.9803471527966765,0.049363234240678795
24.326532,1.958184274959231,0.049627059987567786
24.328928,1.9361611667486456,0.04987477853412043
24.33132,1.9122757274185043,0.0501353969478833
24.333704,1.8903923888347793,0.05037170297715679
24.3361,1.868369280624194,0.050630121629287685
24.338488,1.8426215101744954,0.05089233054952636
24.340872,1.8160823437918785,0.051137806245166936
24.343268,1.791033421476481,0.05129466670205917
24.345656,1.773481045467553,0.051284036520028733
24.34804,1.760072640578319,0.05120384167629098
24.350436,1.746012609383027,0.0510813248378664
24.352824,1.731812808560874,0.0509879097951495
24.355208,1.7156109069923051,0.050915516511333275
24.357608,1.696335969490681,0.050895802353843715
24.359996,1.6750589312426396,0.05090072348411366
24.36238,1.65285072743482,0.050907585337552165
24.364776,1.629851127694083,0.05089436446531657
24.367168,1.6089933983266225,0.05083263323062849
24.369548,1.58320030190655,0.05083312359118501
24.371952,1.5564760399266988,0.05084681483595221
24.37434,1.5322657353724625,0.05092142339590985
24.37672,1.5080554308182261,0.050997972235016564
24.379116,1.488780493316601,0.05100256002338015
24.381504,1.468434620628338,0.05103547688370832
24.383884,1.4460866471936584,0.05111162007905512
24.38628,1.4217365730125633,0.05123870080370778
24.388668,1.3953843980850504,0.05142022373283427
24.391048,1.3676817487171788,0.05170698111866277
24.393444,1.3336932578563365,0.05216913524796031
24.395832,1.2958403351295207,0.05268829192298469
24.398212,1.2571960164697868,0.05318207729057565
24.400608,1.2220440426236892,0.053509170942785046
24.402996,1.1844706591505938,0.051025344591728625
24.40538,1.1470370453043583,0.04851218439243087
24.407776,1.1105345970179012,0.045996114224391
