Time,Force,Position
23.571116000000004,0.03829301757820973,0.0
23.573504,0.028303856577378893,0.0
23.575884,0.024320997815798613,0.0
23.578279999999992,0.020338139054218333,0.0
23.580668000000003,0.019288546598833226,0.0
23.583051999999995,0.016748710076228957,0.0
23.585448,0.014208873553624688,0.0
23.587836,0.010877641098102308,0.0
23.590216,0.00768617826944014,0.0
23.592615999999992,0.0037033195078598593,0.0
23.595004000000003,0.0,0.0
23.59738399999999,0.0,0.0
23.599784,0.0,0.0
23.602172,0.0,0.0
23.604552,0.0,0.0
23.606948000000003,0.0,0.0
23.609340000000003,0.0,0.0
23.61171999999999,0.0,0.0
23.614116,0.0,0.0
23.616508,0.0,0.0
23.618888,0.0,0.0
23.621287999999996,0.0,0.0
23.623676000000003,0.0004905139479442673,0.0
23.62605599999999,0.0028433590154451757,0.0
23.628456,0.007989700762281043,0.0
23.630844,0.016209078442172294,0.0
23.633228000000003,0.025359621681841867,0.0
23.635628,0.03157689861531626,0.0
23.638015999999997,0.03686300998901234,0.0
23.640396,0.0412179558029301,0.0
23.642792,0.046643836803486396,0.0
23.645184,0.05006761705762583,0.0
23.647564000000003,0.05549349805818212,0.0
23.649959999999997,0.05784634312568303,0.0
23.652348000000003,0.06033895782004415,0.0
23.654732,0.06190040695462694,0.0
23.657128,0.06190040695462694,0.0
23.659516,0.061900406954626945,0.0
23.661900000000003,0.061900406954626945,0.0
23.6643,0.061900406954626945,0.0
23.666687999999997,0.06190040695462696,0.0
23.669072,0.06190040695462696,0.0
23.67146799999999,0.06140989300668269,0.0
23.673856,0.05905704793918178,0.0
23.676239999999996,0.05391070619234591,0.0
23.678636,0.04569132851245466,0.0
23.681023999999997,0.036540785272785085,0.0
23.683408,0.030323508339310683,0.0
23.68580399999999,0.025037396965614606,0.0
23.68819599999999,0.020682451151696847,0.0
23.690575999999997,0.015256570151140554,0.0
23.692976,0.011832789897001114,0.0
23.695364,0.006406908896444826,0.0
23.697748000000004,0.004054063828943917,0.0
23.700148,0.0015614491345827982,0.0
23.702535999999995,0.0,0.0
23.704916,0.00505379394821881,0.0
23.707312,0.01224945826971468,0.0
23.7097,0.019584892218070762,0.0
23.71208399999999,0.02785149172620516,0.0
23.714479999999995,0.03839973123447683,0.0
23.71686799999999,0.048668431489028094,0.0
23.719252,0.05800596618380103,0.0
23.721648,0.06762304013229438,0.0
23.724036,0.07323591258795403,0.0
23.72641999999999,0.07791761948383537,0.0
23.728815999999995,0.08339072231263481,0.0
23.73120399999999,0.0868617243950174,0.0
23.733588,0.0872596905443446,0.0
23.735984,0.0872596905443446,0.0
23.738372,0.0883092829997297,0.0
23.74075599999999,0.09229214176131,0.0
23.743151999999995,0.09520406533625174,0.0
23.74553999999999,0.0990471544709718,0.0
23.747924,0.09904715447097179,0.0
23.75032,0.09953766841891606,0.0
23.752708,0.09448387447069724,0.0
23.755088,0.08728821014920139,0.0
23.757487999999995,0.08058305977564977,0.0
23.75987599999999,0.07231646026751537,0.0
23.762255999999997,0.061768220759243715,0.0
23.764656,0.05149952050469247,0.0
23.767044,0.04216198580991953,0.0
23.76942799999999,0.03254491186142617,0.0
23.771823999999995,0.031007445965963856,0.0
23.77421199999999,0.032263476749836505,0.0
23.776591999999997,0.032867881227651254,0.0
23.778992,0.038687192011798446,0.0
23.78138,0.05158374022183473,0.0
23.78376,0.06408685864828009,0.0
23.786159999999995,0.07474898868642225,0.0
23.78854799999999,0.08247785241836922,0.0
23.790927999999997,0.09220881689673305,0.0
23.793324,0.09807534950912339,0.0
23.795711999999995,0.10885590644287235,0.0
23.798096,0.11993734536159514,0.0
23.80049199999999,0.1353737300942357,0.0
23.80288,0.14880801408045935,0.0
23.805260000000004,0.15467454669284972,0.0
23.807655999999994,0.16331323325332162,0.0
23.810047999999995,0.1688788838807381,0.0
23.812428,0.17551546969479315,0.0
23.814824,0.1782876236428747,0.0
23.817216,0.17891790721767917,0.0
23.819599999999998,0.17484250065748183,0.0
23.821996,0.16890476297772786,0.0
23.824383999999995,0.16282725567111364,0.0
23.826768,0.15353694280458388,0.0
23.829168,0.1402424284452204,0.0
23.831555999999992,0.127739310018775,0.0
23.83394,0.11602758752524775,0.0
23.836339999999996,0.10431586503172048,0.0
23.838728000000003,0.0916729769784149,0.0
23.84110799999999,0.0836645739927475,0.0
23.843508,0.07486477507416199,0.0
23.845896,0.06462195391660044,0.0
23.848276,0.05158563607970397,0.0
23.850675999999996,0.039480483802585814,0.0
23.853064000000003,0.03938793600396875,0.0
23.855448,0.03529118671251798,0.0
23.857844,0.03654911335425987,0.0
23.860236,0.035804939249584916,0.0
23.862616000000003,0.041718693690218404,0.0
23.865016,0.05084525369076749,0.0
23.867403999999997,0.06060209726612105,0.0
23.869788,0.06928800565483607,0.0
23.872184000000004,0.07597181329713426,0.0
23.87457599999999,0.08451795205898907,0.0
23.876955999999996,0.0930640908208439,0.0
23.879356,0.0997478984631421,0.0
23.881739999999997,0.10442960535902343,0.0
23.884124,0.10804037706826623,0.0
23.886523999999994,0.10804037706826625,0.0
23.88891199999999,0.10633915830682325,0.0
23.891296,0.10435840029165981,0.0
23.893692,0.10302926858255429,0.0
23.896075999999997,0.10062920168681022,0.0
23.89846,0.0993000699777047,0.0
23.900852,0.09289580158912693,0.0
23.90324,0.08835386432010581,0.0
23.90562,0.08153028705094742,0.0
23.908024,0.07563787534156734,0.0
23.910411999999997,0.0669519669528523,0.0
23.912792,0.05719512337749874,0.0
23.915188,0.04743827980214517,0.0
23.917576,0.038752371413430145,0.0
23.919956,0.032068563771131965,0.0
23.922352000000004,0.023522425009277138,0.0
23.92474,0.014976286247422314,0.0
23.927123999999992,0.00829247860512413,0.0
23.92952,0.0036107717092428,0.0
23.931904000000003,0.0,0.0
23.93428399999999,0.0,0.0
23.936684,0.0,0.0
23.939072,0.0,0.0
23.941452,0.0,0.0
23.943848000000003,0.0,0.0
23.946236,0.0,0.0
23.94861999999999,0.0,0.0
23.951016,0.0,0.0
23.953403999999992,0.0,0.0
23.955783999999998,0.0,0.0
23.958187999999996,0.0,0.0
23.960576000000003,0.0,0.0
23.962959999999995,0.0,0.0
23.965356,0.0,0.0
23.967744,0.0,0.0
23.970124,0.0,0.0
23.972523999999996,0.0017465447318169148,0.0
23.974912000000003,0.002189836851518031,0.0
23.97729199999999,0.009151287889667391,0.0
23.979688,0.014669716688840737,0.0
23.982075999999992,0.021770937353850304,0.0
23.98446,0.028639840593382603,0.0
23.986856000000003,0.034018499765695744,0.0
23.989244,0.04256274266968132,0.0
23.991624,0.044449057028358455,0.0
23.994024,0.049920263999288644,0.0
23.996411999999992,0.04992026399928865,0.0
23.998791999999995,0.053389370223801996,0.0
24.001192000000003,0.05406497976898038,0.0
24.00358,0.058605021180132263,0.0
24.00596,0.0606311051656696,0.0
24.00836,0.06223788027062631,0.0
24.010747999999992,0.062237880270626315,0.0
24.013132,0.062237880270626315,0.0
24.015528000000003,0.062237880270626315,0.0
24.017920000000004,0.062237880270626315,0.0
24.020304,0.0604913355388094,0.0
24.0227,0.06004804341910829,0.0
24.025083999999996,0.053086592380958926,0.0
24.027468,0.04756816358178558,0.0
24.029864000000003,0.040466942916776015,0.0
24.032252,0.0335980396772437,0.0
24.034632,0.028219380504930565,0.0
24.037032,0.019675137600944984,0.0
24.039419999999996,0.018929067638401756,0.0
24.041799999999995,0.013457860667471558,0.0
24.044196,0.01967324174307769,0.0
24.046588,0.01827554547447656,0.0
24.048968,0.02618950480365864,0.0
24.051368,0.028236931520450367,0.0
24.053755999999996,0.038105769767806136,0.0
24.056135999999995,0.04853368652260276,0.0
24.058539999999997,0.06615537174102601,0.0
24.060928000000004,0.08275334360105388,0.0
24.063307999999992,0.09506757471452762,0.0
24.065704,0.11296879918667127,0.0
24.068091999999996,0.12630674365854044,0.0
24.070471999999995,0.1430898111158024,0.0
24.072868,0.1550772811473126,0.0
24.075256,0.16427125449948782,0.0
24.07764,0.17276637971736197,0.0
24.080035999999996,0.1844743104951517,0.0
24.082424000000003,0.19511130608630295,0.0
24.084807999999995,0.20374620093103735,0.0
24.087204,0.2121720169394161,0.0
24.089592,0.2231810995829048,0.0
24.091976000000003,0.23048875857640191,0.0
24.094371999999996,0.23956620089083858,0.0
24.096760000000003,0.23877290910005122,0.0
24.099143999999995,0.2424956754812953,0.0
24.10154,0.23839703033197526,0.0
24.103928,0.2330876803691565,0.0
24.106308,0.22698693447341964,0.0
24.108704000000003,0.2221894411897986,0.0
24.111092,0.22232731495878957,0.0
24.113488000000004,0.22181356242172262,0.0
24.115883999999998,0.2234889020861759,0.0
24.11827199999999,0.22423307619085087,0.0
24.120656,0.23456844514702943,0.0
24.123052,0.2510498859693188,0.0
24.12544,0.26701947011241045,0.0
24.127824000000004,0.2792171701881457,0.0
24.130219999999994,0.29849210768976997,0.0
24.13260799999999,0.31683587963161597,0.0
24.134987999999996,0.3335496378793826,0.0
24.137388,0.3511020138883104,0.0
24.139776,0.36041366948609366,0.0
24.142156,0.3771274277338602,0.0
24.144555999999994,0.39789260930270376,0.0
24.14694399999999,0.41307079751287723,0.0
24.149323999999996,0.43593062762675466,0.0
24.15172,0.4621430329274079,0.0
24.154107999999997,0.4803470352423937,0.0
24.156488,0.503858491662329,0.0
24.158884,0.524344133977452,0.0
24.161272,0.540546035546021,0.0
24.163656000000003,0.5637779527122359,0.0
24.166051999999997,0.5791884583478867,0.0
24.168440000000004,0.5915259280504821,0.0
24.170819999999992,0.5974377866332463,0.0
24.17322,0.6054915155892876,0.0
24.175608,0.616385963052907,0.0
24.177992000000003,0.6202031730906373,0.0
24.180392,0.6318890164871749,0.0
24.182776000000004,0.6442737080180135,0.0
24.18516,0.6542369899218545,0.0
24.18755999999999,0.6720689051845029,0.0
24.189948,0.6839417400361436,0.0
24.192331999999997,0.7024252816048498,0.004290606569906925
24.194728,0.7262634991067487,0.008369364691659921
24.197115999999998,0.7432114706378619,0.012466004543508942
24.1995,0.7623938603408691,0.01645468131021863
24.20189599999999,0.7822750981781775,0.020441564114224674
24.204284,0.7944274722835388,0.024586267260718796
24.206667999999997,0.811467991613269,0.028724902728974485
24.209064,0.8232010568380497,0.0330423429225895
24.211451999999998,0.8298589853833582,0.03751425913576229
24.213836,0.8495532317655631,0.04160396696960013
24.21623199999999,0.8627293192293197,0.0459059899143882
24.21862399999999,0.8834945007981633,0.050082811990233005
24.221003999999997,0.9062617831134236,0.054128289264614965
24.2234,0.9278183606151851,0.05810619390566855
24.225792,0.9501663340498647,0.06216486930085821
24.228172,0.9669273141258746,0.06616931599367044
24.23056799999999,0.9828968982689664,0.07015962162669422
24.23295999999999,0.9976557775985594,0.07430535851539763
24.235339999999997,1.0112039521146534,0.07842107802366395
24.23774,1.027825162563803,0.08239898266471754
24.240128,1.0339240126016707,0.0822971688279222
24.242508,1.0386723881991795,0.08237636705515315
24.244907999999995,1.0460744908491628,0.08240789118823844
24.24729599999999,1.0477498305136161,0.08266230288211827
24.24968,1.0548723939098792,0.08278707835752
24.252076,1.0641368276794192,0.08275403349043366
24.254464,1.0748915055161783,0.08254676877308557
24.25684799999999,1.0964480830179397,0.08189754625583084
24.259243999999995,1.1196346742137808,0.08101122793969057
24.261636,1.131879596117759,0.08066043910058507
24.264016,1.1497115113804075,0.08011230007826224
24.266415999999992,1.1639585340308025,0.07967040523166684
24.268804000000003,1.1724787936956678,0.07941838515634582
24.27118399999999,1.1796485789201738,0.07930442538249437
24.273584,1.1888204648910967,0.0791023198107793
24.275972,1.1945000060483837,0.07915370154838197
24.278356,1.201762339071507,0.07923104927214661
24.280751999999996,1.2134481824680445,0.07901107583917621
24.283140000000003,1.2271361266109988,0.07872502541387678
24.285523999999995,1.2384026611269556,0.07864315693068318
24.28792,1.2520906052699101,0.07833755647388564
24.290312,1.2637764486664478,0.07811805887686611
24.292692,1.27238925612993,0.07804446859024203
24.295092,1.2812816028471326,0.07788055984769766
24.297479999999997,1.285890208817781,0.07798506083117819
24.299864,1.2915697499750678,0.07802561266033403
24.302263999999997,1.29445579445302,0.07814881560773665
24.30465199999999,1.2938494941173362,0.07849968067513878
24.307031999999992,1.2921722585950135,0.07889897841190588
24.309428,1.2947787638192452,0.07908948529870767
24.311815999999997,1.2985959738569754,0.07919148893652331
24.3142,1.2986885216555923,0.07937351300639596
24.316599999999998,1.3083722643057132,0.07930088727345011
24.31898799999999,1.3203376469559711,0.07909561851122887
24.321367999999996,1.3269955755012797,0.07893214886520825
24.323768,1.341382367778535,0.07853499653977426
24.326156,1.3569798648692895,0.07806707556686297
24.328536,1.3673624556537112,0.07782945094372326
24.330935999999998,1.3714592049451615,0.07786154193642164
24.33332399999999,1.376115032744053,0.077765049679385
24.335708,1.3806310909160844,0.07769969229382047
24.338104,1.38943088983467,0.07743565322585165
24.340496,1.4043767606193662,0.076938416319196
24.342876000000004,1.4221161280833974,0.07638972953753013
24.345271999999994,1.4464208762941202,0.07553964520270644
24.34765999999999,1.4664418837582889,0.07486562690583903
24.350044,1.4859038127150166,0.07432997532021687
24.35244399999999,1.501780849059491,0.07384251974886341
24.354832,1.5163074109636068,0.07345671176693461
24.357215999999998,1.5334876999201972,0.0730735355550071
24.359612,1.5498765929438694,0.07270010811179219
24.362004,1.5710610833932934,0.07221765214531409
24.364384,1.5843769404839105,0.0719676483026713
24.366784,1.596621862387889,0.07176841424298244
24.369171999999992,1.6132430728370386,0.07154835515893125
24.371556,1.628421261047212,0.07129224203614833
24.373955999999996,1.6377329166449954,0.07116333727574346
24.376344000000003,1.649326212242916,0.0709207938772035
24.378727999999995,1.6645516222813326,0.07045440744992246
24.381128000000004,1.6813598241855856,0.07002938856323634
24.383516,1.7011012923960336,0.06954217802819422
24.385899999999992,1.7176299550465661,0.06919838269990602
24.3883,1.7312253513909035,0.06893865596225882
24.390688,1.7440293518023227,0.06867351724060508
24.393068,1.7494765755341324,0.06863806666824787
24.395467999999997,1.7613494103857732,0.06839370585414514
24.39785599999999,1.7676352518787442,0.06820051295345614
24.40024,1.7765748204241896,0.06799951013675458
24.402636,1.7868648634099944,0.06770721425206472
24.405028,1.7917076826639893,0.06746241018959315
24.407411999999997,1.796410732291124,0.06724814946354678
24.409808,1.7972493500522853,0.06710011992400083
24.412195999999994,1.8013007733733624,0.06684982337365655
24.41458,1.8025587000151042,0.06662812390482398
24.416979999999995,1.8068896625899014,0.06633587012641501
24.41936799999999,1.807076654045005,0.06615383821734501
24.421752,1.8151322788589157,0.0658257317808647
24.424148,1.8259814003521613,0.06547962197400499
24.426536,1.8393444792710214,0.06516425390825772
24.428916,1.8488431263239076,0.06490431573759455
24.431315999999995,1.8552687374437387,0.06471710708538296
24.43370399999999,1.8626255141233485,0.06452284829212551
24.436083999999997,1.866769485243042,0.06442047074761707
24.438484000000003,1.867980190056541,0.06436606894911334
24.440872,1.8751971971092902,0.06419365080377355
24.44325599999999,1.8802723337887624,0.06408926734731323
24.445651999999995,1.8972203053198753,0.06378758460724207
24.448039999999992,1.9119338586790944,0.0634260817605745
24.450424,1.9285097431578702,0.0630588467954108
24.452823999999996,1.9497414554355375,0.06266415754645899
24.45522,1.9708333980863446,0.06229847261913658
24.4576,1.996720938162903,0.061883774987545895
24.459999999999997,2.0186042767466286,0.06154283731451217
24.462388000000004,2.0432811120096885,0.06118074346775806
24.464772,2.063581658727577,0.06082357947174688
24.467168,2.086024075818743,0.0604081070857672
24.469556,2.104462291417075,0.060070444585923574
24.471940000000004,2.1202467799629328,0.059739025455396715
24.47434,2.1333775414563156,0.059408658473830894
24.476727999999994,2.151443670002311,0.059017348206637295
24.479112,2.1725828344813607,0.058574495862963566
24.48150799999999,2.1907887326542164,0.05816140687679406
24.48389999999999,2.213278371573626,0.05764917653432853
24.486279999999997,2.2376303416125918,0.05712122628514005
24.48868,2.2543932175464705,0.056655245826759223
24.491068,2.2700851582937105,0.056218024037612814
24.49345199999999,2.2791191704956417,0.05585005213675527
24.495852,2.28852526974991,0.05555505886023569
24.49824,2.294998102697983,0.0552918798486082
24.500624,2.295604403033667,0.055087189916233834
24.503024,2.293137667436296,0.054930137551112035
24.505411999999996,2.2886688310925076,0.0548008941694515
24.507791999999995,2.2871332610549144,0.05464212872877974
24.510188,2.2838751295246253,0.05447111033186308
24.51258,2.2820600202333114,0.05434955343868934
24.514963999999992,2.281036306874916,0.05424403979821408
24.51736,2.2800125935165205,0.05413852615773882
24.519747999999996,2.278709340904405,0.05407000470774512
24.522132,2.278477023478927,0.053980674904382096
24.524528000000004,2.275311439747253,0.053917707125809775
24.526916,2.2673502585898277,0.05388407104581843
24.529299999999992,2.2627416526191784,0.053769755355059796
24.531696,2.253989075528835,0.053718125158235076
24.534083999999996,2.248169764744687,0.053642345494550756
24.536468,2.2471460513862906,0.05353745640922272
24.538864000000004,2.2461223380278943,0.053432567323894696
24.541252,2.240675114296085,0.05342675883061015
24.543635999999992,2.2353676601911356,0.05340289667587568
24.546036,2.2342041772058803,0.05331541377410416
24.548424,2.237044895713457,0.05318255263503902
24.550808000000004,2.244309124594449,0.052950295756601796
24.553208,2.248779856796105,0.05272284747612803
24.555595999999998,2.2491066178780676,0.05255697161113209
24.55798,2.2491538397063096,0.052427317814258814
24.56037599999999,2.2451968600417183,0.0523433563940805
24.562764,2.242171045936905,0.05225816517970689
24.565164,2.24021616701873,0.05215234751404219
24.56756399999999,2.2404031584738324,0.05200645544814757
24.569952,2.240450380302075,0.051880329449226256
24.572335999999996,2.2407771413840387,0.05171795268986931
24.574736,2.2469704350783926,0.051511359337022146
24.577124,2.251673484705528,0.05138031394428889
24.579508000000004,2.2575872391461616,0.051209776066007524
24.581908,2.259636561720822,0.051063895917610985
24.584295999999995,2.260614949108843,0.050937901605904765
24.58668,2.263595437243281,0.05079335929740551
24.589088000000004,2.271790831684052,0.05056817502251318
24.591476,2.2790550605650446,0.05034320558074625
24.593859999999992,2.2809646135128445,0.05021565304708055
24.596267999999995,2.2808720657142274,0.0501083066746731
24.598659999999995,2.2762162379153366,0.050113101753231616
24.601044,2.275564611609278,0.05007789860735508
24.603444,2.2778462516094153,0.05002087855127968
24.605831999999992,2.281478366049911,0.04990776092970055
24.608220000000003,2.2913963219833784,0.04969749653505067
24.61062,2.3008024212376483,0.04943919611558944
24.613007999999997,2.3071354845588625,0.04921832225910085
24.615396000000004,2.3093245767603827,0.049054909656621945
24.617791999999994,2.3064385322824306,0.04894762857088062
24.620183999999995,2.3031331789238982,0.048895130078016734
24.62257199999999,2.2958236240725314,0.04888063235460518
24.624972,2.2915871051542207,0.04882914100414766
24.627364,2.2881419821688276,0.048794731054551406
24.629752,2.281763592877239,0.04877963446336168
24.632148,2.2755249732125113,0.04874568774355382
24.63454,2.2662133176147288,0.04874955579045526
24.63694,2.257832827576724,0.04875162056569334
24.639348,2.2485211719789406,0.048753972922333196
24.641735999999995,2.240420221194656,0.04872053733041043
24.644132,2.2343213711567884,0.048667363212045366
24.646531999999997,2.230923469999639,0.048501448510033
24.648920000000004,2.223241828095935,0.04841119967282605
24.65132,2.21691066063259,0.04826495502060163
24.653735999999995,2.2081580835422474,0.04819264614457701
24.65612399999999,2.1929798953320736,0.048234127336345536
24.658536,2.1715158656289293,0.0483720579046925
24.660935999999992,2.1531248718588403,0.04847134269092227
24.663332,2.1378069140218066,0.04853186599681882
