Time,Force,Position
4.567144000000001,0.0,0.0
4.56954,0.0,0.0
4.571948000000001,0.0,0.0
4.574344,0.0,0.0
4.576739999999999,0.0,0.0
4.579132,0.0,0.0
4.5815280000000005,0.0,0.0
4.583932000000001,0.0005739746020802991,0.0
4.586320000000001,0.000573974602080299,0.0
4.588716,0.000573974602080299,0.0
4.591112000000001,0.0023586540176593392,0.0
4.593500000000001,0.002358654017659339,0.0
4.595896,0.002358654017659339,0.0
4.598292000000001,0.0023586540176593392,0.0
4.600676,0.0023586540176593392,0.0
4.6030560000000005,0.0023586540176593392,0.0
4.605460000000001,0.0023586540176593392,0.0
4.607848000000001,0.0023586540176593392,0.0
4.610227999999999,0.0023586540176593392,0.0
4.612632,0.0023586540176593392,0.0
4.61502,0.0023586540176593392,0.0
4.6174,0.0023586540176593392,0.0
4.619795999999999,0.0023586540176593392,0.0
4.622184000000001,0.0023586540176593392,0.0
4.624560000000001,0.002511423881289771,0.0
4.62696,0.008389060872581091,0.0
4.629344,0.015940141670456445,0.0
4.631740000000001,0.02961860652406461,0.0
4.634136,0.0577894116903155,0.0
4.636524,0.09284856696948282,0.0
4.638908000000001,0.13221999701306952,0.011310078430829538
4.641311999999999,0.18440842770484564,0.02155864027894057
4.643696,0.24492823074851422,0.0316383188500804
4.646076000000001,0.31536219800991155,0.04147827767429861
4.648472,0.3996219831832543,0.05060652093551275
4.65086,0.4950538592160676,0.05937521206416386
4.65324,0.5987245598021563,0.06805163875726018
4.655635999999999,0.7107266327401376,0.07675375480260496
4.658023999999999,0.8298493732165125,0.08557661484528219
4.660404,0.9575830252985003,0.09436638669076966
4.662800000000001,1.0943468978666817,0.1030629080189217
4.665188000000001,1.2372077246148616,0.1118196820040774
4.667584,1.389890167782153,0.12047530675365793
4.669980000000001,1.5529533058759968,0.12897072203780943
4.6723680000000005,1.7244292597414494,0.13730473690923012
4.674752,1.8922749950242748,0.14562600530253558
4.677156,2.0590063650079573,0.15388136308199632
4.679544,2.2160105622290143,0.16218053653845757
4.681924,2.3581652281797307,0.17051197130551798
4.68432,2.4931520047638096,0.17887719913951186
4.686707999999999,2.6228332231008085,0.17591666976509482
4.689088,2.73961978908564,0.17408325047609643
4.691484000000001,2.847283586785662,0.17243487550928144
4.693872000000001,2.9439622850813163,0.17107711471651088
4.696251999999999,3.026907713263642,0.17050104460343252
4.698651999999999,3.1018466343181696,0.17021816623076702
4.701040000000001,3.173342328245174,0.1698492170639353
4.703424,3.235994793141088,0.1694367899462875
4.705819999999999,3.2896642593790517,0.16896711812174908
4.708208000000001,3.3361658362503785,0.16851640556370923
4.710588,3.37293834450121,0.16824175764075383
4.712987999999999,3.405615999318461,0.16782650897407475
4.715372,3.4310332169704574,0.16736955859882552
4.717756,3.4455578830167037,0.16705500930910616
4.720155999999999,3.4503062586142126,0.16696473164844775
4.72254,3.455473943092302,0.16682790153080676
4.724919999999999,3.4636674416752036,0.1666545044082203
4.727323999999999,3.477680251042252,0.16635158948189482
4.729711999999999,3.4906221252226626,0.1660887232206452
4.732092,3.5079402879482435,0.16571171139221877
4.734492,3.5314970703385526,0.16517975941279794
4.7368760000000005,3.56129247239359,0.16448345806807915
4.73926,3.594160910381682,0.16368011488134793
4.741656000000001,3.6294507579967723,0.16276068786075867
4.744044000000001,3.6627857266936887,0.16181924828422048
4.746423999999999,3.6908132412856554,0.16102104804091602
4.74882,3.7128344536383713,0.16045439052130017
4.751208,3.7372298537898416,0.15985553410993308
4.753588000000001,3.766560620993925,0.1590924839147108
4.755984,3.796310697078588,0.158296160279216
4.758372,3.828202643536528,0.1574107319797055
4.760756000000001,3.8613978426065843,0.15655365933293933
4.763152,3.8916125535422017,0.15587911042462418
4.76554,3.921268185970378,0.1552587212254197
4.767932,3.9519947535851934,0.1545888136892011
4.770332,3.9809987597073127,0.15396833370800975
4.77272,4.0070694995232365,0.1534537910882249
4.7751,4.029415577100046,0.15304813545822737
4.777495999999999,4.055533538744213,0.15246771293878508
4.779883999999999,4.075971959231093,0.15198674183624122
4.782268,4.084584766694575,0.15180715132318406
4.784663999999999,4.090823386359303,0.1516651739930046
4.787051999999999,4.0977136323300885,0.15153119523054437
4.789432,4.104464108674015,0.15141336316873502
4.791831999999999,4.113076916137496,0.1512475685461864
4.794219999999999,4.124483220280314,0.1510087036404396
4.7966,4.136401381102329,0.15078238298813063
4.799,4.145246505991288,0.15065550876627387
4.801387999999999,4.147945559014136,0.15072679307390766
4.803763999999999,4.149061820171149,0.15081837572358972
4.80616,4.149154367969767,0.15087573112197641
4.808544,4.144219000917154,0.15101896598617365
4.810936,4.137980381252426,0.15115699281675213
4.813332000000001,4.1318815312145585,0.15128303760812228
4.815716,4.120987083750939,0.15154958726506187
4.818111999999999,4.107159369981125,0.15190713747520063
4.820504,4.095473526584587,0.15218284890838724
4.822888000000001,4.086441410240525,0.15239843581414383
4.825268,4.079084633560915,0.1526444900630523
4.827672,4.0750332102398374,0.15283636353611532
4.830056000000001,4.079641816210487,0.15278895987231908
4.832436,4.080106451061441,0.15287672071335537
4.83484,4.076427114792702,0.15309859200209047
4.837224000000001,4.070326368896965,0.15342134511496705
4.839604,4.067298658934283,0.153644213038332
4.842008,4.064969797105904,0.15379941755876692
4.844396,4.061896761172847,0.15389557117549676
4.846776,4.059103264493513,0.1539659311826585
4.8491800000000005,4.063387005240067,0.15381900820644806
4.851564,4.068322372292679,0.1536765062892893
4.853948000000001,4.073769596024488,0.15355203943484502
4.8563480000000006,4.082801712368551,0.15334931027121457
4.858736,4.096349886884644,0.15304699068080674
4.861116000000001,4.113622723639852,0.15265684201177251
4.863512,4.143839330433339,0.15190348110913052
4.8659,4.176477346853823,0.15104517814154667
4.86828,4.204459535475416,0.15030389478418824
4.870684000000001,4.229787997044535,0.14961911241666973
4.8730720000000005,4.248458530068344,0.1491028622517738
4.875451999999999,4.266756976039816,0.1485647661479261
4.877848,4.280539363839257,0.14813074066517934
4.880236,4.294461521265557,0.14767543333928418
4.8826160000000005,4.309314844251636,0.1471936914701584
4.885020000000001,4.3272412031707725,0.1466193538353542
4.887408000000001,4.339301029477515,0.1462062972719701
4.889787999999999,4.348287819851205,0.14588630182348397
4.892192,4.358577862837008,0.1455722106819127
4.894576000000001,4.373523733621705,0.14515153889710714
4.896955999999999,4.387398669219764,0.14477817168246682
4.899352,4.398759647392207,0.14444293271538217
4.90174,4.412402265564786,0.1440348120987439
4.904120000000001,4.424462091871532,0.143647093747856
4.906523999999999,4.431586551125664,0.14338746135440275
4.908908,4.4360572833273215,0.14317917012625486
4.911288000000001,4.428934719931058,0.1432475802195089
4.9136880000000005,4.419810055788378,0.14336807316236913
4.916072,4.413339118698173,0.1434419416204014
4.918452,4.408450973473804,0.14350069807780294
4.920856000000001,4.408917504182628,0.143398116889547
4.923244,4.404960524518038,0.1434376761733779
4.925623999999999,4.402446567092423,0.1434736540309816
4.928027999999999,4.40486797671942,0.14338427608103352
4.930415999999999,4.407568925600138,0.14327010445569807
4.932796,4.406405442614883,0.14324899515294479
4.935192000000001,4.409897787428518,0.1431263815489381
4.937576,4.413901988921352,0.1430191004515892
4.9399560000000005,4.420699687093521,0.14285153911564785
4.942360000000001,4.425355514892413,0.14275176046688903
4.944744,4.427217846011969,0.14271247444010715
4.947127999999999,4.43131459530342,0.14266227824222363
4.949524,4.427914798288402,0.1428355811045185
4.951908,4.425678484258638,0.14302905067511928
4.9543040000000005,4.427306602094848,0.14313156828228324
4.9567,4.432519612543311,0.14316774912609784
4.959088,4.443040077096724,0.14311005275248728
4.961468,4.458076599822168,0.1429676480101876
4.963863999999999,4.470179856241417,0.14289411431975707
4.966248,4.48670662303408,0.14268874567887263
4.968628000000001,4.5012312890803265,0.14253678604960696
4.971031999999999,4.520179465499987,0.14224773641645144
4.973416,4.537544850053812,0.14197318110971102
4.975796000000001,4.551837198674581,0.14178257378903125
4.978199999999999,4.570273518415044,0.14148828790576518
4.980584,4.594995679648479,0.14103070212639857
4.982964000000001,4.621068315322271,0.14053249798960943
4.98536,4.650213986929119,0.13995815151681118
4.987748,4.677776866670131,0.13940536595182482
4.990144000000001,4.702174162679471,0.13887785111015843
4.992535999999999,4.729504724995007,0.13829510845617804
4.994923999999999,4.757254596191122,0.13768233256970397
4.997304,4.790498912947291,0.13690587049639086
4.999708,4.822439977091343,0.13612295786760548
5.002096,4.8537294149293375,0.13534307896663095
5.004472,4.879431859408663,0.13467118808910258
5.006868000000001,4.907555713514984,0.1339369233657555
5.009256000000001,4.929813035008916,0.13332294662214245
5.011635999999999,4.95728526280918,0.13258423316676077
5.01404,4.975538382810278,0.13206180956756933
5.016424000000001,4.99737639542363,0.13149213383091524
5.018803999999999,5.019586495089318,0.13095567037044004
5.0212,5.04538148736726,0.13037034226770713
5.023588,5.075460220391755,0.12968939355671943
5.025983999999999,5.101255212669698,0.129121828552888
5.028388,5.120764363454669,0.12870226666227758
5.030772000000001,5.134918838306447,0.12841090964517443
5.033156,5.148421686852167,0.1281174696511513
5.035551999999999,5.163926636144304,0.12778963814032068
5.037940000000001,5.184878809168251,0.1273890021378786
5.04032,5.201407471818784,0.12709747164762777
5.042716,5.219798465588873,0.12678256169091293
5.0451,5.237118524172322,0.1264937384438535
5.047484000000001,5.25616114424847,0.12618950604232368
5.049875999999999,5.277205865071035,0.12585386274005053
5.05226,5.299321521080237,0.1254918605377357
5.054656,5.314499709290411,0.12525652715385888
5.05706,5.337174443807053,0.12486107493877271
5.059443999999999,5.355984746457724,0.12453247819219639
5.061824,5.381220660228226,0.12406326570577493
5.064216,5.399147019147359,0.12369192958661061
5.066604,5.418563622133713,0.12327546935710273
5.068984,5.4343953325078145,0.12290419089266624
5.071384,5.444220740642664,0.12264124361397413
5.073772,5.4543256880312345,0.1223593742602267
5.076148,5.46843483691264,0.12200739319103589
5.078556000000001,5.485756791353959,0.12158701761564046
5.08094,5.504009911355057,0.12115897332587199
5.0833200000000005,5.517327664303544,0.12081464037414212
5.085711999999999,5.525710050199418,0.12055379941848195
5.088100000000001,5.535862219416232,0.12022381061192144
5.090491999999999,5.540567164901236,0.11995974330109083
5.092888,5.547134441505796,0.11967250322813787
5.095272,5.550116825498104,0.11942523551575396
5.097656000000001,5.5472326768780205,0.11927002472265655
5.100059999999999,5.545279693817716,0.11910237694868038
5.102444,5.547982538556304,0.11887316681745455
5.104824000000001,5.547053268854395,0.11873759888785622
5.107227999999999,5.54891749583182,0.1185665519630586
5.109616000000001,5.550641953182386,0.11840621770692093
5.111996,5.557953403891622,0.11817516823631426
5.1144,5.558047847548108,0.11807131404610566
5.116783999999999,5.558142291204594,0.1179671632315081
5.119164,5.562240936353914,0.11779792578527762
5.121568,5.566199811876373,0.11763790526953254
5.123951999999999,5.56643402515972,0.11752479588333514
5.126332,5.5648059073235085,0.11743502423544518
5.128736,5.559964983927384,0.117407299630374
5.131119999999999,5.556986391650814,0.11735636938423726
5.1335,5.555358273814604,0.11726635681786424
5.135904,5.5503775807916185,0.11724790827096261
5.138287999999999,5.548702241127165,0.11720982707858016
5.140668,5.541951764783239,0.11725879337450991
5.143068,5.534921749185592,0.11732727177081036
5.145455999999999,5.533618496573478,0.11731417230443858
5.147831999999999,5.532035704707642,0.11731964643228791
5.150236,5.526868020229553,0.11736383371987798
5.152620000000001,5.51797567351235,0.11745712249000377
5.154999999999999,5.50815216123537,0.11756097136318965
5.157396,5.49725771377175,0.11768408000111998
5.15978,5.483290230375076,0.11786040470163513
5.1621760000000005,5.472535552538317,0.11797623777852023
5.164567999999999,5.461361565820977,0.11812111588705496
5.166956000000001,5.445903838357083,0.11835165155028672
5.169332000000001,5.428583779773633,0.11860804435814723
5.171728,5.412846513056018,0.11886036594146064
5.174116,5.395758771898045,0.11915624898567206
5.176508,5.381744066673127,0.11939520479837921
5.178903999999999,5.36679819588843,0.11964731042715086
5.181288,5.352643721036651,0.11989477550753828
5.183672,5.346218109916821,0.12002426372635557
5.186068000000001,5.341934369170265,0.12010961167853056
5.188452,5.343936469916682,0.12007628818240496
5.190835999999999,5.351013707342571,0.11995550018615535
5.193236000000001,5.354366282529347,0.11988307853055705
5.1956240000000005,5.36079189364918,0.11975773605555241
5.198003999999999,5.370942167008124,0.11958592446657648
5.2004,5.387890138539236,0.11931466738552009
5.202783999999999,5.400833908577516,0.11910714569308833
5.20518,5.41070464268274,0.11895273197687534
5.207576,5.42392795197474,0.11872738330487999
5.209963999999999,5.438873822759436,0.11848811452474348
5.212344,5.458382973544407,0.1181497251271156
5.214740000000001,5.482036095449072,0.1177369549089708
5.217124,5.510624584406347,0.11725017117926186
5.219519999999999,5.544288210043097,0.11668676061484416
5.221912,5.583306511613038,0.11602342128622323
5.2243,5.618600150943866,0.11540719376596943
5.22668,5.656966826207749,0.11474221027276538
5.229084,5.692540004792299,0.1141108423828445
5.231468,5.722526190018178,0.11355443054708245
5.233848,5.745854446698749,0.11308347890227594
5.236248,5.765178501886485,0.11267816740208039
5.238636,5.780777894835109,0.11231941441667906
5.241016,5.796377287783732,0.11195955482483999
5.24342,5.809462723306741,0.11161786261707253
5.245804,5.819614892523554,0.1113175269598435
5.248184,5.825390773195197,0.11105446698957443
5.2505880000000005,5.836521329800033,0.11069639330251205
5.252972,5.851004461591645,0.11027232226125895
5.255352,5.862414557450199,0.10989849023876702
5.2577560000000005,5.874243962189336,0.10950125491651376
5.26014,5.87992729506236,0.10919969604722335
5.26252,5.886029936815966,0.10887575647089075
5.264924000000001,5.8882681467035995,0.1086008609595822
5.267312,5.885059132859421,0.10837702252177599
5.269688,5.87891685270905,0.10819043675413344
5.272092000000001,5.874636903678234,0.1079846397888238
5.2744800000000005,5.866492522781446,0.10782439853763845
5.276859999999999,5.861141638563991,0.10763592203690388
5.279264,5.858863790279593,0.10740327717205439
5.281651999999999,5.8624524746075855,0.10709782396250718
5.284032,5.868974425241771,0.10675740247147068
5.286436,5.876148002182016,0.10642406851806195
5.288824,5.884252744682039,0.1060812573197551
5.2912040000000005,5.891007012741703,0.10577245023649869
5.293608000000001,5.898971985614864,0.10543758995802835
5.295992,5.909311146286781,0.10510147253423709
5.298375999999999,5.91829983251834,0.10480212167691509
5.300776000000001,5.927008979496178,0.1045210906497291
5.303164000000001,5.937580457593572,0.10422282276312646
5.305543999999999,5.948803561997025,0.10393480135203147
5.307948,5.964962033453088,0.10358701914314875
5.310336,5.974694893789321,0.1033392705024693
5.312716,5.986569624498832,0.103058785364246
5.315111999999999,5.997233650394843,0.10280233168134457
5.317496,6.006826741104216,0.10256272267001687
5.319876000000001,6.018561702186866,0.10229162406635027
5.322272,6.035232030322128,0.1019636097923148
5.324655999999999,6.05218189771111,0.10162218956975387
5.327036,6.064987793980398,0.10133894374877411
5.32944,6.075931359130132,0.10107421164443227
5.331823999999999,6.084872823533447,0.10083529805842094
5.334204,6.0980980286833155,0.10053578021080847
5.336608,6.113465104206461,0.1002071204083824
5.338996,6.132184754916383,0.09982569774242196
5.341372,6.151835571186083,0.09943867649997076
5.343780000000001,6.172185235590084,0.09901803545864661
5.346164,6.190812338501389,0.09860574175980584
5.348544,6.20557500954672,0.09822991362464124
5.350948000000001,6.219546284659134,0.09785539059041586
5.3533360000000005,6.232074537532571,0.09747533115250419
5.355715999999999,6.240738358540035,0.0971328229656902
5.35812,6.252894524361135,0.09672672318898126
5.360504000000001,6.261837884622318,0.09636584652020214
5.362883999999999,6.273434971935978,0.09599006417674392
5.36528,6.287825555928972,0.09559340318442736
5.367668,6.301145204735328,0.09521520723500483
5.370048000000001,6.3104606520488495,0.09488308108721169
5.372451999999999,6.317494459362234,0.09458840713023428
5.374840000000001,6.3277410722355345,0.09424974956355815
5.377216000000001,6.337196289175917,0.09391089907542258
5.379619999999999,6.3477224413029365,0.09355871091403448
5.382004,6.353033687123624,0.09327346042570019
5.384384000000001,6.357273997757673,0.09300442490708918
5.386787999999999,6.3589531291378645,0.09278693843847546
5.389176000000001,6.360492490891196,0.0925777054250545
5.391556,6.359610443017531,0.0924117280252427
5.393955999999999,6.3593800214499225,0.09225382803711421
5.396343999999999,6.367297772494844,0.09200928462280189
5.398724,6.378148789845958,0.09174077731063372
5.401128,6.387369793502993,0.09151483504761057
5.403516,6.400315459399143,0.09126441683153799
5.405896,6.413772981974488,0.09102970450368965
5.4083000000000006,6.43016377085603,0.09076888972330582
5.410684,6.444552458991155,0.09052750998590813
5.413064,6.458149751193361,0.09028710479427865
5.415464,6.469605173022291,0.0900737120141088
5.417852,6.481851990784139,0.08986121554543997
5.420228,6.499034175598597,0.08960586645091626
5.422632,6.514726116345838,0.08938619072569792
5.42502,6.532792244891833,0.08917128952189311
5.4274,6.547925107131632,0.08898153187635956
5.429804000000001,6.566270774931347,0.08875382443905097
5.432188,6.583405737917564,0.08854715128592802
5.4345680000000005,6.602962110530777,0.08830194062219107
5.436964,6.621727087211073,0.08805668733616695
5.439352,6.638489963144952,0.08782923080864692
5.441736000000001,6.657115170198387,0.0875912942365362
5.444127999999999,6.667312665385575,0.08744937245626186
5.446512,6.669222218333375,0.0873943982383769
5.448892000000001,6.674344576841091,0.08730157510407724
5.451288,6.680537870535445,0.0871973505185812
5.453671999999999,6.690735365722633,0.08705849605694121
5.456056,6.702283335350179,0.08689516264789816
5.458456,6.719325750537778,0.08666606990937006
5.460844,6.737578870538876,0.0864208777844402
5.46322,6.75904479609989,0.08614117402523269
5.465624,6.78479446240746,0.08581766664359025
5.468012,6.806819466475914,0.08551767871605329
5.470392,6.8334077505446436,0.08516186581258206
5.472796000000001,6.859344408307315,0.08480029685793691
5.47518,6.891007829055515,0.08440591562717459
5.47756,6.9194584442438005,0.08404718053559906
5.479964000000001,6.95205303055178,0.08365404731447483
5.482352000000001,6.983716451299981,0.08326989746334969
5.484731999999999,7.013238001674905,0.08290710000850039
5.487128,7.046763753542663,0.0825139252975575
5.489512,7.079777648731223,0.08210924591923101
5.491892,7.115073183919921,0.08167271215453353
5.494287999999999,7.157725495788229,0.08116255964251973
5.496676000000001,7.201448742843176,0.08064861865567476
5.499067999999999,7.242378493218785,0.0801527643424744
5.501472,7.279863120609003,0.07966777110122707
5.50386,7.315997273558862,0.07921062529272906
5.50624,7.346916520202388,0.07880401231224167
5.508644,7.374483191659139,0.07843668093665135
5.511032,7.40097892792925,0.07808293810190207
5.513412000000001,7.4214683619601125,0.07777386563937108
5.515808,7.439024529684779,0.07748190511122122
5.518196,7.450434625543334,0.07723972337403612
5.520576,7.460773786215252,0.07700826663435124
5.5229680000000005,7.467528054274916,0.07678757580605915
