Time,Force,Position
3.610275999999999,0.05767797340699518,0.0
3.612656000000001,0.057677973406995174,0.0
3.615052000000002,0.054728033212731564,0.0
3.617443999999999,0.053377558772372616,0.0
3.61984,0.05267871063807157,0.0
3.622236000000001,0.05342288474274652,0.0
3.6246240000000007,0.05989382183295162,0.0
3.627008,0.06787167687844431,0.0
3.629404000000001,0.07463882711043826,0.0
3.631792000000001,0.08247691252907074,0.0
3.634172,0.08731783592519649,0.0
3.636572000000001,0.0921587593213222,0.0
3.638960000000001,0.09741899159802855,0.0
3.64134,0.1018878279418168,0.0
3.6437440000000016,0.10463410279290859,0.0
3.6461320000000015,0.10952224801727746,0.0
3.648512,0.11441039324164634,0.0
3.650915999999999,0.11436317141340319,0.0
3.653304000000002,0.11845992070485395,0.0
3.655684000000001,0.12977367704905401,0.0
3.6580800000000018,0.14630233969958653,0.0
3.6604680000000016,0.1636390721711056,0.0
3.662848,0.1788339342693476,0.0
3.665248000000002,0.1920100217331043,0.0
3.6676360000000017,0.20318400845044413,0.0
3.670016,0.20956239774203217,0.0
3.672412000000001,0.2083516929285334,0.0
3.674800000000001,0.2060700529283961,0.0
3.677184000000001,0.20728075774189483,0.0
3.6795800000000014,0.20728075774189483,0.0
3.681968000000001,0.20998170662261273,0.0
3.684348,0.2106805547569138,0.0
3.686744000000001,0.2103084677045763,0.0
3.6891320000000007,0.20765474065210154,0.0
3.691516,0.2042096176667087,0.0
3.6939160000000015,0.198762393934899,0.0
3.696300000000001,0.19424633576286765,0.0
3.698684,0.1905216735237544,0.0
3.701080000000001,0.18172187460516892,0.0
3.703464,0.16652701250692692,0.0
3.705848,0.14825911447562953,0.0
3.708244000000001,0.1309223820041104,0.0
3.710632,0.11572751990586842,0.0
3.713011999999999,0.10188313224798536,0.0
3.715408,0.09018061496337937,0.0
3.717796,0.0824822991716071,0.0
3.720192000000001,0.07664631449939145,0.0
3.722584000000001,0.07095009945403602,0.0
3.724972000000001,0.06297224440854333,0.0
3.727352,0.05513415898991085,0.0
3.7297480000000007,0.04594559913091941,0.0
3.732136000000001,0.03768820483170629,0.0
3.7345159999999993,0.030361976092271488,0.0
3.736912,0.023175516979696893,0.0
3.7393,0.017711619359818728,0.0
3.741696000000001,0.012247721739940568,0.0
3.744092000000002,0.006783824120062409,0.0
3.746480000000002,0.0023908616868227785,0.0
3.748860000000001,0.0,0.0
3.7512560000000015,0.0,0.0
3.753644000000001,0.0,0.0
3.756024,0.0,0.0
3.758428000000002,0.0,0.0
3.760816000000002,0.0,0.0
3.7631960000000007,0.0,0.0
3.7655920000000016,0.0020187746344852986,0.0
3.7679800000000014,0.005108484455609127,0.0
3.7703640000000007,0.011131460582928127,0.0
3.7727600000000017,0.017154436710247127,0.0
3.7751480000000015,0.024388117651064866,0.0
3.777528,0.03069063303210429,0.0
3.779924000000001,0.03899524915956057,0.0
3.782312000000001,0.043295663794183134,0.0
3.784696,0.04745630880194549,0.0
3.787092000000001,0.0494750834364308,0.0
3.789480000000001,0.051493858070916096,0.0
3.79186,0.05458356789203993,0.0
3.7942560000000007,0.05832490401922165,0.0
3.796648000000001,0.06513927607945877,0.0
3.799028,0.06808921627372239,0.0
3.801424000000001,0.06810589016179082,0.0
3.8038120000000006,0.06810589016179082,0.0
3.806196,0.06810589016179082,0.0
3.808592000000001,0.06810589016179083,0.0
3.8109800000000007,0.06810589016179083,0.0
3.813364,0.06608711552730553,0.0
3.815760000000001,0.06299740570618172,0.0
3.8181480000000008,0.05697442957886271,0.0
3.820532,0.05095145345154371,0.0
3.822936000000002,0.04371777251072596,0.0
3.8253200000000014,0.03741525712968653,0.0
3.8277040000000007,0.029110641002230264,0.0
3.830107999999999,0.024810226367607692,0.0
3.832495999999999,0.020649581359845334,0.0
3.834876000000001,0.01863080672536004,0.0
3.837271999999999,0.016612032090874737,0.0
3.839660000000002,0.013522322269750907,0.0
3.842040000000001,0.009937429657497835,0.0
3.844439999999999,0.0031230575972607246,0.0
3.846828000000002,0.003402596850981144,0.0
3.849208000000001,0.008617503157313586,0.0
3.851604000000002,0.01585118409813133,0.0
3.8539920000000016,0.02215369947917075,0.0
3.856372,0.028735754113930593,0.0
3.858772000000002,0.035317808748690435,0.0
3.861156000000001,0.041760093756590067,0.0
3.86354,0.04727121320471138,0.0
3.865936000000002,0.04877813115999899,0.0
3.868324000000001,0.05121621467506492,0.0
3.870708000000001,0.05537685968282728,0.0
3.8731040000000014,0.0578149431978932,0.0
3.875492000000001,0.06318629301915431,0.0
3.877876000000001,0.06920926914647331,0.0
3.8802720000000015,0.07052919564665755,0.0
3.882660000000001,0.07324492255757467,0.0
3.885055999999999,0.08433924364862742,0.0
3.887452,0.1054874985842691,0.0
3.88984,0.13397206459571334,0.0
3.892220000000002,0.17522818722053288,0.008131056175733014
3.894615999999999,0.2179087623383907,0.01657133819859087
3.897003999999999,0.2631013990239938,0.02532190485757737
3.899388000000002,0.312760976195516,0.034320129375707456
3.9017839999999993,0.3777819413165765,0.04284269578295978
3.904171999999999,0.45471917140178264,0.05110720767971156
3.906552000000002,0.5463208371600954,0.05880777520934746
3.9089519999999993,0.642204347807093,0.06663326265674396
3.911339999999999,0.7468385396865638,0.07451879063629382
3.9137200000000014,0.8695350683962908,0.08221106445224396
3.916115999999999,0.9997715735249922,0.08996584272642348
3.918503999999999,1.134010384288658,0.09777963249465914
3.9208880000000015,1.2767675588593197,0.10559332267022066
3.923283999999999,1.423619586863563,0.11346579138552762
3.925671999999999,1.5763815775927017,0.12153681257310599
3.928052000000001,1.7521884940329513,0.1292742446903422
3.930448000000002,1.9410317283100975,0.13671610308084137
3.9328360000000018,2.122707073220607,0.1441050780332167
3.935216000000001,2.286367303129103,0.15167587374077118
3.937624,2.43601661952842,0.15943578110310277
3.940007999999999,2.574773384321986,0.15902467821018446
3.9423920000000017,2.7103192394135065,0.15829581855272667
3.944792,2.8406993058848062,0.15725321512427556
3.94718,2.961304977765238,0.1560272894364472
3.9495600000000017,3.064035304270517,0.15535991110400754
3.951955999999999,3.1541505176773486,0.15499907917716568
3.954343999999999,3.2292745343291105,0.15531871234630895
3.956728000000002,3.3082176568764714,0.15530033158698475
3.959123999999999,3.376407997444943,0.1553223393647634
3.961511999999999,3.427746705996657,0.1556252767146437
3.963892000000001,3.4748507914879294,0.15576791803095147
3.9662919999999993,3.5239116517552445,0.15568071282236315
3.968679999999999,3.56589717045454,0.15562340350432427
3.971060000000002,3.5994115471750825,0.15551593291007915
3.973455999999999,3.6293448229991108,0.15503850530331725
3.975844000000002,3.6361406253134105,0.15504124803853972
3.978224000000001,3.6243603382603866,0.15549680923852782
3.980623999999999,3.6120209726999217,0.15600804845002497
3.983011999999999,3.6111351331105173,0.15617742759492917
3.985408,3.619188862066559,0.15604440468910258
3.987804000000001,3.6241695550895443,0.15602265210342137
3.990192,3.6315244359112846,0.15596722675812888
3.992576,3.644558857890312,0.1558210534043782
3.9949720000000006,3.6618297987876507,0.15558585738447386
3.997364000000001,3.6808233011776847,0.15530304044209667
3.999744,3.698513550955604,0.15500763499195253
4.002140000000001,3.7148080003227895,0.15463226457452342
4.0045280000000005,3.719416606293438,0.1545751245175446
4.006912,3.7255154563313058,0.15442618336108754
4.009308000000001,3.731893845622894,0.15424117405864352
4.011696000000001,3.7291003489435592,0.1543279749473411
4.01408,3.7155521744274647,0.15470782350845746
4.016476000000001,3.7075909932700406,0.1549116349450314
4.018868000000001,3.699722359911233,0.1551835325409079
4.021248,3.6828669361787365,0.1558595799055346
4.023644000000001,3.667594304312077,0.15653725778305452
4.026036000000001,3.6588398313638657,0.15700997543710754
4.028416,3.6511562936022925,0.15743217891025912
4.030812000000001,3.641702972519779,0.15796764437282165
4.033200000000001,3.63024755069085,0.1585672480075681
4.035584,3.617488876249805,0.15917347084662262
4.037980000000001,3.599190430278333,0.15986957843725916
4.040368000000001,3.5761436087093514,0.16062621386829612
4.042748,3.553516096020952,0.1613254708294444
4.045148000000001,3.5282348562800774,0.16211738979804793
4.047536000000001,3.501463372471983,0.16302715504158655
4.049916,3.47878863795534,0.1638500530527906
4.052316000000001,3.466077185342538,0.1643727496276395
4.054704000000001,3.460395748327382,0.16470320501756763
4.057088,3.46323457097709,0.16476385849526148
4.059484000000001,3.473290400679548,0.16455095042123516
4.061872000000001,3.487909510382281,0.1641299925219774
4.064256,3.494427669300729,0.1639347983489427
4.066652000000001,3.502436072286397,0.16364786926309782
4.069040000000001,3.518592647884592,0.16304548608077563
4.07142,3.5411748346026184,0.1621743016975121
4.073820000000001,3.5599398112829146,0.1613576716056599
4.076208000000001,3.5779133920302923,0.16056359031857034
4.078588,3.5930934760983355,0.15985603382247557
4.080984000000001,3.608226338338135,0.159230530125746
4.083372000000001,3.627735489123106,0.15849100905930313
4.085756,3.6503176758411313,0.15763591612136957
4.0881560000000015,3.67075799218588,0.156864159160263
4.090544000000001,3.6883575900230516,0.15625799284232617
4.092924,3.7167118656969818,0.15536415362499542
4.0953240000000015,3.7516315221176035,0.1541903264345068
4.097708000000001,3.784084442940853,0.15300759965901853
4.100092,3.8059224555542044,0.15210864867797602
4.102488000000001,3.820031604435609,0.1514697643698263
4.104876000000001,3.8275753725703217,0.15110627631912488
4.10726,3.833117039958618,0.15081368888559682
4.109656000000001,3.8353061321601376,0.1506565500140254
4.112044000000001,3.8412198866007716,0.15039496203184904
4.114424,3.8510906207059956,0.1500833226549767
4.116820000000001,3.8633355426099745,0.14975093734271108
4.119208,3.875860003767673,0.14940437046498373
4.121596,3.8901070264180686,0.1490243512613413
4.123992000000001,3.902491717948907,0.14869139657348593
4.126384000000002,3.9263299354508057,0.14807581096553477
4.128768000000001,3.9547314329529795,0.14730570007155466
4.131164000000002,3.9821092170967574,0.1465108954654041
4.133552000000002,4.005203260493981,0.14585275615325377
4.135932,4.027738225383764,0.14523350776631716
4.138332000000002,4.053206456579742,0.1445288554480009
4.140720000000002,4.074158629603689,0.14394510297689178
4.1431,4.090035665948163,0.14351400207065945
4.145500000000002,4.104003149344838,0.14319406253427114
4.147884000000001,4.124441569831719,0.14278844379035122
4.1502680000000005,4.151258379610186,0.1422461499251011
4.1526640000000015,4.178774037522955,0.14163448890486674
4.155052000000001,4.206149925808865,0.14103932011698306
4.157432,4.233246274841053,0.14045741452783955
4.1598320000000015,4.260854480552439,0.13989846590893562
4.162220000000001,4.287299203278568,0.1393353823467528
4.164604000000001,4.310718111899887,0.13880937565303508
4.167000000000002,4.330132819028371,0.1384007813797665
4.169388000000001,4.346055181343219,0.13811084961446765
4.171772000000001,4.363141026643325,0.13784070314554386
4.174168000000002,4.363558439666035,0.13799425198599205
4.176560000000002,4.357969550449496,0.1383027183193062
4.178940000000001,4.352473209031574,0.1386639633149954
4.181336000000002,4.351632695412544,0.13892806342485897
4.1837240000000016,4.35852104552546,0.13900897338628054
4.186104,4.37118338045215,0.13890090185558482
4.188504000000002,4.3833338586996415,0.138778886229472
4.190892000000002,4.395344567320274,0.13866622482088847
4.193272,4.410009002993381,0.13850695947572386
4.195672000000002,4.424580890867871,0.13829741066261736
4.198060000000002,4.434544172771711,0.13811954767517856
4.200444000000001,4.443855828369494,0.13793676696487345
4.202840000000002,4.449954678407361,0.13784287581625768
4.205228000000002,4.458986794751424,0.13767979916270884
4.207612000000001,4.466436119229651,0.13753041078919295
4.210008000000002,4.4729542781481,0.13740281289429707
4.212396000000002,4.47691125781269,0.13737103419665825
4.214780000000001,4.47961031083554,0.13744521895808895
4.217176000000002,4.489246831657417,0.13735487732025634
4.219564000000002,4.5020036102405925,0.13712450565748147
4.221944000000001,4.525329971063294,0.13660127139416128
4.224344000000002,4.550286345580075,0.13600052420034967
4.226732000000002,4.57258899304438,0.13544045792115422
4.229116000000001,4.595310949389265,0.13485404590087866
4.231512000000002,4.616217796442839,0.1342604283712761
4.233900000000002,4.628976470883884,0.1338732143535779
4.236284000000001,4.639453505324792,0.13355445111096215
4.238679999999999,4.65658846831101,0.13311216491137703
4.241068000000002,4.674002970550946,0.13264950739847853
4.243452000000001,4.689415372044467,0.13223410185321952
4.245851999999999,4.707853587642798,0.1318132701488218
4.248239999999999,4.728665991039884,0.13138037979792605
4.250624000000002,4.7556244663030816,0.13080744469963013
4.253019999999999,4.78328178970058,0.13018633742417815
4.255407999999999,4.812429357165297,0.12950967760772933
4.2577880000000015,4.8379920320177625,0.12888752727452668
4.260187999999999,4.866627742803283,0.12819884049922767
4.262575999999999,4.896661149857406,0.12739496701350778
4.264960000000002,4.922178498739497,0.12666692480012398
4.26736,4.942201402061535,0.1260844417050054
4.269748,4.955147067957683,0.12565548385629888
4.272131999999999,4.966462720159752,0.12529509763772928
4.274528,4.9816428042277945,0.12486374863115944
4.276916,4.992539147549284,0.12453572624256933
4.279299999999999,4.9988722108704975,0.12433417216058958
4.281696,5.00613643975149,0.12411707488330881
4.284084,5.012609272699562,0.12390270673587922
4.286467999999999,5.014426277848746,0.12376562085202647
4.288864,5.015451887065011,0.1236330985613734
4.291252,5.016105409228938,0.12347311811167286
4.293635999999999,5.013593347661192,0.1233300200785933
4.296032,5.008427559040972,0.12321989652340963
4.29842,5.001399439301196,0.12313789612244312
4.300803999999999,4.992601536240479,0.1231312666422623
4.3032,4.9815219931796255,0.12318276496600543
4.305592000000001,4.968021040491775,0.12330688720536044
4.307976,4.952657756684367,0.1234573861662075
4.310372000000001,4.940460056608632,0.12359044096607234
4.312760000000001,4.927191421346258,0.1237493795458814
4.315144,4.918346296457299,0.12380023421584282
4.317540000000001,4.914296768994092,0.12377068269694066
4.319932000000001,4.910387011157743,0.12373093063472582
4.322316000000001,4.903683756642061,0.12373320636619958
4.324712000000002,4.904477048432849,0.12356568259316256
4.327104000000002,4.905549879477356,0.1233768454973575
4.329488000000001,4.905691544962086,0.12320162192544734
4.331883999999999,4.910209498991986,0.12297762768506669
4.334275999999999,4.916589784141443,0.122727419936995
4.336656000000001,4.9226905300371815,0.12249774369533004
4.339048000000002,4.929675219664453,0.12231250825682684
4.341436000000002,4.935029895597647,0.12219137166389557
4.343812,4.940105032277119,0.12209021444849491
4.346216000000002,4.943038298583313,0.12203797074800174
4.348600000000001,4.950395075262922,0.12188027663080311
4.35098,4.959614183062089,0.12169509085514231
4.353384000000002,4.975910528287144,0.12137142208182847
4.355772000000002,4.989133837579144,0.12110723364915352
4.3581520000000005,4.999843189445528,0.12086707407096531
4.360555999999999,5.0144169731778865,0.1205619356252437
4.362940000000002,5.028711217656526,0.12028248556886684
4.3653200000000005,5.037930325455692,0.12009992585423614
4.367723999999999,5.046869894001138,0.11993618230734808
4.370111999999999,5.05846318959906,0.119742670394051
4.372492000000001,5.06269970851737,0.11970638198352906
4.374888000000002,5.069589954488156,0.11964068011612591
4.377276000000002,5.078482301205358,0.11953856850943893
4.379656000000001,5.085000460123807,0.11944709681377555
4.382059999999999,5.08765418717628,0.11941797009314901
4.384447999999999,5.092729323855754,0.11932358876857095
4.386824000000001,5.097572143109749,0.11919259400782065
4.389227999999999,5.107490099043216,0.11896773527626456
4.391615999999999,5.122622961283015,0.11864240953589612
4.393996000000001,5.142830960202287,0.11822905795375718
4.396391999999999,5.159034757628724,0.11789098056635453
4.398776000000002,5.174447159122244,0.11755682176671686
4.401160000000001,5.189719790988905,0.11723890374596554
4.403559999999999,5.207925689161758,0.1168722238428232
4.405947999999999,5.224781112894256,0.11654574802263877
4.408328000000001,5.241636536626752,0.11622386859865405
4.410727999999999,5.2534168236797765,0.11598868856666605
4.413112000000002,5.274555988158827,0.11558468750615038
4.415492,5.303191698944347,0.1150417857735306
4.417895999999999,5.329033913050532,0.11453492662046552
4.420283999999999,5.354876127156716,0.11402111347501602
4.422664000000001,5.379135549397065,0.11351574735100854
4.425060000000002,5.4035347412642745,0.11300549910454234
4.427444000000001,5.4287253290644015,0.11249626979329427
4.4298280000000005,5.457920118357363,0.11192436747859498
4.4322240000000015,5.4841816413441276,0.11140007179711034
4.434608000000001,5.513516200263949,0.11083234773140963
4.436988,5.540057262504434,0.11030294531925608
4.439392000000002,5.559521087319032,0.10988721249312688
4.441780000000001,5.572978609894378,0.10956508136666862
4.44416,5.587367298029503,0.10923389956628417
4.446563999999999,5.601755986164627,0.10890335131135014
4.4489480000000015,5.613211407993557,0.1086153392256481
4.451332000000001,5.627879635382402,0.10827325462158875
4.453728000000002,5.648693934637357,0.10784013918151325
4.4561160000000015,5.667645902772756,0.1074298365474305
4.458496,5.691812777214488,0.10693384390481592
4.460899999999999,5.707551939789972,0.10658289166801813
4.463284000000002,5.71300105937965,0.10639079922430984
4.465664,5.721523214902386,0.1061536438482721
4.468067999999999,5.733909802291093,0.10586952152417287
4.470455999999999,5.744945915239442,0.10562033630012754
4.472836000000001,5.7555627193072105,0.10539822385067203
4.475239999999999,5.763106487441922,0.10522125115502617
4.477627999999999,5.767437450016719,0.10509886703172829
4.4800080000000015,5.773071665203632,0.10499176650379373
4.482403999999999,5.772140499643854,0.10500120188352867
4.484791999999999,5.771069564457215,0.10501916031538047
4.487172000000001,5.775865161882967,0.10496352128731172
4.489571999999999,5.783454255988053,0.1048793523966102
4.491956000000002,5.789041249346724,0.10482274519377956
4.494340000000001,5.798352904944508,0.10472991837818066
4.496736000000002,5.808875265355789,0.10461156483956467
4.499124000000002,5.8151138850205175,0.10456449231945972
4.501504000000001,5.814415036886216,0.1046062723398899
4.503900000000002,5.81678922468497,0.10460461125558926
4.506288000000001,5.817161311737308,0.10462887198766564
4.508668,5.819675269162923,0.10461895468543544
4.511071999999999,5.829406233641286,0.10450556787663466
4.513460000000002,5.836064162186595,0.10443577405431709
4.515840000000001,5.841139298866067,0.10436754374596466
4.518236000000002,5.850498176292094,0.1042325467621831
4.5206240000000015,5.859065657785202,0.10409815534165938
4.523004,5.870706175211365,0.10392108085757369
4.525404000000002,5.8867702030109434,0.10367043466305377
4.527788000000001,5.9035330789448235,0.10338060500404174
4.530172,5.926581796371673,0.10299858282548835
4.532568000000001,5.951772384171799,0.10258605159862108
4.534956000000001,5.974169475292593,0.10220242451827417
4.537336,5.996706336040244,0.10181295536177555
4.539740000000002,6.018172261601259,0.10143679168075358
4.542128000000002,6.0339114241767415,0.1011205546454868
4.544508,6.044715219699613,0.10086051953462273
4.546911999999999,6.054727619289569,0.1005988960896423
4.549299999999999,6.064600249252661,0.10034303631815589
4.551680000000001,6.068187037722783,0.10017927816524441
4.554076000000002,6.070702891006266,0.10003199391576964
4.556464000000002,6.078433650596083,0.09981230985723398
4.558844000000001,6.081880669439346,0.09965904356890339
4.5612400000000015,6.088400724215663,0.09946558710028255
4.563628000000001,6.095712174924897,0.09927280192915779
4.566008,6.0978087193278,0.09915298376064591
