Time,Force,Position
5.688984000000001,0.006179419642247658,0.0
5.691364,0.010200295023149807,0.0
5.693760000000001,0.01622327115046881,0.0
5.696148000000001,0.02503974395712277,0.0
5.698528,0.03185411601735988,0.0
5.700944,0.03466428658476329,0.0
5.703327999999999,0.035472356405749854,0.0
5.705724,0.03814275734629305,0.0
5.708120000000001,0.04188409347347478,0.0
5.710508000000001,0.0454856599737963,0.0
5.712888,0.050158161660756345,0.0
5.7152840000000005,0.05282856260129954,0.0
5.717668,0.05656989872848127,0.0
5.720051999999999,0.059240299669024464,0.0
5.722456000000001,0.06284186616934599,0.0
5.72484,0.06537249748302897,0.0
5.727219999999999,0.06604079767715532,0.0
5.729616,0.06670909787128167,0.0
5.732004,0.0703106643716032,0.0
5.734400000000001,0.07068275142394068,0.0
5.736796000000002,0.07519880959597205,0.0
5.739184000000002,0.07692137108866849,0.0
5.741568000000001,0.07771276702158661,0.0
5.743964000000002,0.07692137108866848,0.0
5.746352000000002,0.07920301108880577,0.0
5.748732,0.0874909533281936,0.0
5.751128000000001,0.10192496743369217,0.0
5.753520000000002,0.11249454967321727,0.0
5.7559000000000005,0.12092226153946532,0.0
5.758296000000001,0.12948974303257357,0.0
5.760684000000001,0.13684651971218306,0.0
5.763064,0.14713656269798775,0.0
5.765460000000001,0.1542138001238768,0.0
5.767848000000001,0.1614308071766261,0.0
5.770228,0.16971874941601392,0.0
5.772624,0.17800669165540176,0.0
5.775012,0.18801719538748599,0.0
5.777408000000001,0.19481489355965464,0.0
5.779803999999999,0.19760839023898963,0.0
5.782188000000001,0.19867932542562816,0.0
5.784568,0.19546651986571262,0.0
5.786968000000002,0.19397627579849344,0.0
5.789352000000001,0.19034416135799723,0.0
5.791732,0.18363901098444566,0.0
5.794136000000002,0.17558338617053507,0.0
5.796524000000002,0.16752776135662453,0.0
5.798904,0.15360560393032363,0.0
5.801307999999999,0.14140600799671915,0.0
5.803692000000002,0.1297654905705555,0.0
5.806076000000001,0.11998730426394852,0.0
5.808472000000002,0.112630527584339,0.0
5.810860000000002,0.10248025422539454,0.0
5.81324,0.09340091605308862,0.0
5.815643999999999,0.085252743440561,0.0
5.818031999999999,0.07336323470085165,0.0
5.820412000000001,0.06456343578226614,0.0
5.822816,0.05804527686381788,0.0
5.825203999999999,0.05795272906520082,0.0
5.827584000000002,0.05492691496038859,0.0
5.829979999999999,0.052552727161634255,0.0
5.832364000000002,0.048316208243323285,0.0
5.834744000000001,0.04715272525806769,0.0
5.837152,0.045989242272812106,0.0
5.83954,0.05134391820600476,0.0
5.841920000000002,0.05539534152708161,0.0
5.844315999999999,0.05651349854196328,0.0
5.846703999999999,0.05907467779582097,0.0
5.849088000000002,0.06033260443756287,0.0
5.851483999999999,0.06461634518411699,0.0
5.853871999999999,0.06424425813177953,0.0
5.856252000000001,0.059571756444819476,0.0
5.858647999999999,0.05822128200446053,0.0
5.861035999999999,0.05915244756423885,0.0
5.863416000000001,0.06487921054976899,0.0
5.865812000000002,0.0724849785429242,0.0
5.868200000000002,0.07807197190159412,0.0
5.87058,0.08137732526012678,0.0
5.872976000000001,0.08146987305874383,0.0
5.875364000000001,0.08985036309674871,0.0
5.877760000000002,0.10144365869466919,0.0
5.880156,0.11718092541228357,0.0
5.882543999999999,0.12905376026392446,0.0
5.884924000000002,0.14106636474242557,0.0
5.887319999999999,0.1446984791829218,0.0
5.889707999999999,0.15056501179531218,0.0
5.892088000000001,0.15522083959420377,0.0
5.894492,0.16015620664681576,0.0
5.89688,0.17081833668495794,0.0
5.899260000000002,0.17696440855106868,0.0
5.901655999999999,0.18683514265629272,0.0
5.904043999999999,0.1996558169557804,0.0
5.906424000000001,0.2102253991953055,0.0
5.908819999999999,0.2213068381140283,0.0
5.911208000000002,0.2220056862483293,0.0
5.913592000000001,0.22228522550204977,0.0
5.915987999999999,0.22242499512890998,0.0
5.918376000000002,0.22084220326307372,0.0
5.920760000000001,0.2184680154643194,0.0
5.923155999999999,0.21167031729215072,0.0
5.925543999999999,0.20193935281378692,0.0
5.927924000000001,0.18806441721572917,0.0
5.930323999999999,0.17512064717744974,0.0
5.932711999999999,0.1620371075123101,0.0
5.935088,0.15332985639234165,0.0
5.937491999999999,0.14317958303339717,0.0
5.939879999999999,0.13717328079414662,0.0
5.942260000000001,0.13102720892803585,0.0
5.944664,0.11966623075559266,0.0
5.947047999999999,0.11137828851620483,0.0
5.949428000000001,0.1021591807170387,0.0
5.951832,0.09321961217159297,0.0
5.954219999999999,0.08600260511884368,0.0
5.956600000000002,0.07305883508056424,0.0
5.958995999999999,0.06849555508028969,0.0
5.961383999999999,0.06061024783341406,0.0
5.963764000000001,0.052864710213398634,0.0
5.966159999999999,0.046981503712939854,0.0
5.968548000000002,0.041889693145399164,0.0
5.970943999999999,0.03693765220471869,0.0
5.973348000000001,0.034376472950861,0.0
5.975732000000001,0.032357698316375694,0.0
5.978111999999999,0.0303389236818904,0.0
5.980508,0.029391084234043633,0.0
5.982892,0.02779161848013897,0.0
5.985275999999999,0.026983548659152413,0.0
5.987672,0.024173378091749003,0.0
5.99006,0.021502977151205804,0.0
5.992440000000002,0.019903511397301135,0.0
5.9948440000000005,0.017233110456757936,0.0
5.997228,0.014562709516214738,0.0
5.999611999999999,0.010681603762172795,0.0
6.002008,0.005869332448352535,0.0
6.004391999999999,0.005061262627365977,0.0
6.0067720000000016,0.0014596961270444573,0.0
6.009172,0.0014596961270444575,0.0
6.011555999999999,0.0014596961270444575,0.0
6.013940000000002,0.0014596961270444575,0.0
6.01634,0.0014596961270444575,0.0
6.018727999999999,0.0014596961270444575,0.0
6.021108000000002,0.0,0.0
6.023503999999999,0.0049048191124373185,0.0
6.025891999999999,0.011951508598151698,0.0
6.028272000000001,0.02286262994983957,0.0
6.030688000000001,0.02911792350263584,0.0
6.033072000000001,0.037235548174988746,0.0
6.035456,0.04176828023508859,0.0
6.037848,0.04322797636213305,0.0
6.040236,0.04682954286245457,0.0
6.042619999999999,0.05122250529569419,0.0
6.045016,0.05868850366198921,0.0
6.0474,0.06494379721478549,0.0
6.049780000000002,0.07026792520780342,0.0
6.052175999999999,0.07452111801418286,0.0
6.054563999999999,0.0831978211939766,0.0
6.056948000000002,0.0929454595604089,0.0
6.059343999999999,0.104695198673258,0.0
6.061731999999999,0.11658470741296734,0.0
6.064128,0.13061608652595375,0.0
6.066524000000001,0.13892070265341003,0.0
6.068912000000001,0.1472253187808663,0.0
6.071292,0.14969395023610696,0.0
6.073692000000001,0.1481583801985139,0.0
6.0760760000000005,0.141827212735169,0.0
6.078455999999999,0.14215397381713255,0.0
6.080860000000001,0.14075817340639968,0.0
6.083248000000001,0.14774286303367168,0.0
6.085628,0.15887152378063762,0.0
6.088024000000001,0.16771854452746626,0.0
6.090412000000001,0.17591393896823704,0.0
6.092796,0.17610093042334043,0.0
6.095192000000001,0.1773588570650823,0.0
6.097580000000001,0.17740607889332546,0.0
6.099959999999999,0.17945540146798547,0.0
6.102356,0.1738684081093156,0.0
6.104744,0.16413744363095176,0.0
6.107123999999999,0.15238770451810266,0.0
6.109524,0.1404981957783933,0.0
6.111912,0.12646681666540688,0.0
6.114291999999999,0.11816220053795061,0.0
6.116688,0.10985758441049433,0.0
6.119076,0.10248413384281636,0.0
6.121456000000002,0.09697301439469506,0.0
6.123856,0.09239306050635207,0.0
6.126244,0.08581100587159222,0.0
6.128640000000001,0.07908918160997216,0.0
6.131036000000002,0.06757175992260031,0.0
6.1334240000000015,0.05498340304858992,0.0
6.135804,0.04253481580143974,0.0
6.138200000000001,0.029946458927429333,0.0
6.140588000000001,0.023753165233075416,0.0
6.142972,0.019981281165718987,0.0
6.145368000000001,0.019282433031417932,0.0
6.147756000000001,0.01779218896419877,0.0
6.150136,0.0195147504568952,0.0
6.152532000000001,0.02431034788264701,0.0
6.154920000000001,0.0301935543831058,0.0
6.157304,0.03714769607020313,0.0
6.159700000000001,0.0461039385037173,0.0
6.162084,0.05492041131037126,0.0
6.164467999999999,0.0634573448633048,0.0
6.166864,0.0720868262148554,0.0
6.169256000000001,0.08346258241749782,0.0
6.171636,0.09888786608334783,0.0
6.174032,0.1175240594512442,0.0
6.176424000000001,0.14286350733482295,0.0
6.178804,0.16852782044249598,0.0
6.1812000000000005,0.1966588691475404,0.0
6.183584,0.22855990606207205,0.0
6.185980000000001,0.26073858637245484,0.0
6.188379999999999,0.29587918507133826,0.0
6.1907640000000015,0.33558116791262704,0.008359939878247106
6.193144,0.37989175672456427,0.016337699926710362
6.195551999999999,0.4281121033728489,0.024313338427310902
6.197935999999999,0.48210453897703753,0.0321585829553475
6.200316000000001,0.5406583587236315,0.040063284685934585
6.202715999999999,0.5979070300002404,0.04847403707052528
6.205103999999999,0.656411732060722,0.05698328560671475
6.207484000000001,0.7121682634122424,0.06594199624452901
6.209880000000002,0.7716947829732502,0.07497090698514652
6.212268000000002,0.8392750314902991,0.0836179474218974
6.214648,0.912442273366018,0.09198101414138478
6.217044000000001,0.9852374281893994,0.1002486746165321
6.219432000000001,1.0561249259228502,0.1083233195948236
6.2218160000000005,1.123149887648197,0.11639342644856746
6.224219999999999,1.184123221163919,0.12446807142685894
6.226607999999999,1.2452835461347447,0.13257987217599793
6.228988000000001,1.3054201577471751,0.14066772950146086
6.231384000000002,1.3608556155903395,0.14881625050066002
6.233772000000002,1.4160134300376532,0.15696477149985918
6.236156000000001,1.4675410259023396,0.16508484498331974
6.238551999999999,1.5099439576243463,0.16506848557827777
6.240940000000002,1.5465275785622057,0.1655015023304501
6.243324000000001,1.5757090968500815,0.16628127282129623
6.245719999999999,1.5960454902489982,0.16748994402940462
6.248108000000002,1.6126118954384276,0.16859882969015688
6.250492000000001,1.6390037087627072,0.16844724240997505
6.252887999999999,1.6635804127956735,0.1682319406680331
6.2552720000000015,1.6914171442167985,0.1674511926936464
6.257656000000001,1.7173462185479929,0.16651631333693176
6.260059999999999,1.7322882976169505,0.166231609998021
6.262443999999999,1.741411065901761,0.16626252932136884
6.264824000000001,1.7490908119475956,0.16632806916013865
6.267220000000002,1.7554200835530713,0.16655798551454631
6.269604000000001,1.76547401739766,0.16656009751314077
6.271988,1.7748763249361912,0.16655767138718758
6.274384000000001,1.7864205028479994,0.16638579334095124
6.276772000000001,1.7951711840804725,0.1663782012209587
6.279152,1.805644426805642,0.16628486610217497
6.281556000000002,1.819190705463867,0.16597868650341674
6.283944000000002,1.8320853578160343,0.1656731900591291
6.286328000000001,1.8469821109146176,0.16519979238751203
6.288724000000002,1.8630895688267004,0.16460908279237943
6.291112000000002,1.8846914722988362,0.16352250216448716
6.2934920000000005,1.9144415483834991,0.1618354476252266
6.2958880000000015,1.9464732644682994,0.16001583498289368
6.298276000000001,1.9641181882758443,0.1591843250217506
6.300671999999999,1.980040550590693,0.1584140821391448
6.303068,1.9931694162262068,0.15781206284783436
6.305456,2.0056466555556622,0.1572228824019062
6.307836000000002,2.020405534885255,0.15641033444576502
6.310231999999999,2.0343730182819297,0.1556118736531005
6.312619999999999,2.0472695664919662,0.15490064634967934
6.315004000000002,2.06081774100806,0.1542048120094518
6.317399999999999,2.0700821747776,0.15384035233277343
6.319784000000002,2.0802777741069183,0.15342920975375818
6.322168000000001,2.081953113771372,0.153499843757602
6.324563999999999,2.0872605678763216,0.15324506599952814
6.326951999999999,2.094709892354548,0.15284470293334187
6.329332000000001,2.1021592168327747,0.15247033288065875
6.331728000000002,2.105324800564447,0.15238422949306268
6.334116000000002,2.109980628363339,0.1521425066235297
6.336496,2.11435691690851,0.15195730655395157
6.338903999999999,2.120967623625575,0.1517528244711407
6.341287999999999,2.1211527192228092,0.15196924965817513
6.3436720000000015,2.1181250092601283,0.1523839762669299
6.346076,2.1198928967231985,0.15256502248142537
6.348464,2.1245940504924636,0.152587378989379
6.350843999999999,2.1303661394483675,0.15253927956014932
6.35324,2.1362779980311317,0.1524708619546546
6.355627999999999,2.147404762920229,0.15210303890633797
6.358008000000002,2.159462693369104,0.15168947974954947
6.360403999999999,2.173382954937535,0.15119725371958603
6.362791999999999,2.1849290287072125,0.15075569626313132
6.365176000000002,2.19661487210375,0.15027640414444873
6.367571999999999,2.204715822888035,0.14993830044266965
6.369959999999999,2.220825176657987,0.14912470801528063
6.372340000000001,2.2342335815472207,0.14856655183251724
6.374739999999999,2.2442894112496785,0.1482499390061242
6.377127999999999,2.2491303346458045,0.14824979282972728
6.379508000000001,2.256532437295788,0.148024421983725
6.381907999999999,2.2615131303187743,0.14799209362909746
6.384292000000002,2.2663540537149,0.147984658669405
6.386688,2.2658875230060755,0.14819202804095913
6.3890920000000015,2.2678424019242494,0.14821118275125406
6.391476000000001,2.264210287483753,0.148507361870432
6.39386,2.260298633789536,0.1488571200707525
6.396263999999999,2.2566665193490403,0.1491464064792096
6.3986480000000014,2.2533139441622643,0.14938113391344524
6.401028,2.2487506641619897,0.1497072719580883
6.403431999999999,2.238972477855383,0.15033448926462226
6.405820000000002,2.2307770834146123,0.15092053913706663
6.408200000000001,2.2237923937873396,0.15139946914029792
6.410596000000002,2.2175991000929858,0.15186582948786043
6.412984000000002,2.2143390727048273,0.15218491578793025
6.415364,2.21545533386184,0.15235020202907626
6.417760000000001,2.2162920557651318,0.1525604671108955
6.420148000000001,2.2183394824819223,0.15268406075983848
6.422528,2.2220169228927924,0.1526516218179147
6.424932000000002,2.226765298490301,0.15255147105479588
6.427320000000002,2.235889962632981,0.15230103920700477
6.4297,2.2472962667757983,0.15189810644450716
6.432103999999999,2.2595411886797763,0.15136148763718796
6.434488000000002,2.2717861105837547,0.15081634276723074
6.4368680000000005,2.282028931741316,0.1503767789737791
6.439264000000001,2.300792012563743,0.14952749119370096
6.441652000000001,2.3236990645058633,0.14846795788633607
6.444032,2.3463265771942634,0.1474875036813401
6.446436000000002,2.367743385069165,0.14660041572653276
6.448824000000002,2.3868785529439287,0.14584181270772315
6.451204000000001,2.407596512684529,0.14504509299215815
6.453600000000002,2.426731680559293,0.14428954071068273
6.455988000000001,2.4389293806350283,0.14387547719195273
6.458368,2.451406619964484,0.1434146748817345
6.460764000000001,2.4618817585475234,0.1430617349897212
6.463152000000001,2.4744987675038392,0.14260698832977245
6.465536,2.4881867116467933,0.14211358070866012
6.467932000000001,2.5030853606032464,0.14155293150938517
6.470320000000001,2.5174249310522585,0.1410864333098546
6.4727,2.5334870629939674,0.14056694136531867
6.475096000000001,2.549688964562537,0.14005218660768595
6.4774840000000005,2.5665424924371636,0.13955772459444277
6.479863999999999,2.578832740311516,0.13931295230190707
6.48226,2.592985319305425,0.13900204795926843
6.484648,2.6077895246053915,0.13869395179619162
6.487031999999999,2.6219421035993005,0.13839450403904746
6.489428,2.630228149980819,0.13833078150974645
6.491816,2.6358604693098626,0.1383416330990895
6.494199999999999,2.644565824571962,0.13822229461649066
6.496596,2.658486086140394,0.1378694270269588
6.49898,2.672685886962546,0.13748019129649316
6.501363999999999,2.687956622971337,0.13704506996991864
6.50376,2.7097455178985754,0.13638373466885634
6.506148,2.732046269505012,0.13575380635464898
6.508528000000002,2.757559826671364,0.1349893723706466
6.510932,2.777858477531384,0.13446423916410444
6.51332,2.7929422220850717,0.13416520228438905
6.515699999999999,2.803881995519065,0.13404105981186829
6.518096,2.8141701426470003,0.1339079202072668
6.520484,2.82315503716282,0.1337569144674722
6.522864000000002,2.831068996492001,0.1336608939322173
6.525264,2.836189459141847,0.1336498845409446
6.527652,2.8462452888443046,0.133454828602197
6.530048000000001,2.8592343848529578,0.1331664147775008
6.532444000000002,2.877438387167943,0.13268030092632543
6.5348320000000015,2.8942919150425706,0.13228573985762623
6.537212,2.912868004409894,0.13184568540179809
6.539608000000001,2.9314440937772175,0.13139928057412006
6.541996000000001,2.9462955209054273,0.13106991306243987
6.54438,2.9562115809810257,0.13091251128043402
6.546776000000001,2.967198576243262,0.1307160607545852
6.549164000000001,2.976974866692,0.13058254247667445
6.551544,2.9855876741554823,0.130417931599213
6.553940000000001,2.9944800208726847,0.1302199788522516
6.556332000000001,3.000159562029972,0.13015138324223785
6.558712,3.00667772094842,0.12997804292575066
6.561112000000001,3.0196214909866987,0.12955686253114448
6.563500000000001,3.0381994762118913,0.12889960460355046
6.5658840000000005,3.059850497370139,0.12814972988035986
6.5682800000000015,3.0849466415137794,0.1273496686692899
6.570668000000001,3.1052471882316683,0.12667942054530987
6.573052000000001,3.1296917060692513,0.12587374992256886
6.5754480000000015,3.1525534320409982,0.1250897878528022
6.577836000000001,3.1715507261467715,0.12442955830565994
6.580216,3.1834707828266557,0.12399721429920496
6.582612000000001,3.1964617746931783,0.12353274594102882
6.585004000000001,3.2078699746938644,0.12307391995549621
6.58738,3.223002836933664,0.1225324162518822
6.589784000000002,3.240789426225938,0.12194554528460938
6.5921720000000015,3.2645823177574633,0.12118956006243092
6.594552,3.286652647796292,0.12047182633517506
6.596948000000001,3.3115164745144554,0.11969912265354107
6.599336000000001,3.334890057165399,0.11901565555417047
6.601716,3.3585431790700646,0.11831090559236519
6.604112000000001,3.3854091065346448,0.11751219103457636
6.6065000000000005,3.414509452171119,0.11672146744514422
6.608896000000001,3.440257222620818,0.1160697597318821
6.611291999999999,3.4602310082567436,0.11563581533033591
6.613676000000002,3.476060822772975,0.1153247965257729
6.616056,3.491099241356288,0.11502625255983959
6.618452000000001,3.5107934877384923,0.11463440635026793
6.620840000000001,3.5283458637474205,0.11431620133707143
6.62322,3.5479003405027654,0.11395518768833808
6.625624000000002,3.566383882071471,0.11362292943503387
6.628012000000002,3.5880802292000933,0.1131926155741087
6.6303920000000005,3.6069830796493796,0.11281698824565033
6.6327880000000015,3.631892232337917,0.11230234184550644
6.635176000000001,3.6529369531604816,0.11187397706454673
6.637560000000001,3.671839803609769,0.11150957822249599
6.639963999999999,3.686738452566222,0.11124737207661187
6.642351999999999,3.700007087828595,0.11106843842133529
6.644732000000001,3.711832700851993,0.11088587278857251
6.647131999999999,3.7225873786887522,0.11073078264693735
6.649519999999999,3.734924848391347,0.11057503662747305
6.651900000000001,3.7409764766009714,0.11058187997265546
6.654295999999999,3.7423722770117047,0.11066859468754926
6.6566800000000015,3.7400434151833246,0.11082101991145464
6.659064000000001,3.7419982941014984,0.11085346857947659
6.661460000000002,3.7450241082063105,0.11085560844611198
6.6638480000000015,3.744045720818289,0.11095135887558975
6.666228,3.7424157071242097,0.11103545315962726
6.668628000000002,3.74064592380327,0.11113255822040044
6.671012000000001,3.736594500482193,0.11130110353529733
6.673396,3.732682846787977,0.11145757306974988
6.675792000000001,3.7267690923473435,0.11165964830448216
6.678176000000001,3.723788604212905,0.11179911695534867
6.6805720000000015,3.7166641449587727,0.11203839691068718
6.682972,3.7116815560779175,0.11221995576571299
6.685359999999999,3.707118276077643,0.11236200174637427
6.687740000000002,3.702415226450508,0.11251752388283465
6.69014,3.698922881636872,0.11263194012010343
6.692523999999999,3.693148896823099,0.112817940088661
6.694904000000001,3.69179842238274,0.11287333091698393
6.697303999999999,3.6859318897703495,0.11299307815534741
6.699688000000002,3.6846286371582337,0.11297142682158672
6.702072000000001,3.6924047227184236,0.11274566343656256
6.704467999999999,3.7083289808911415,0.11233614325806521
