Time,Force,Position
7.109652,0.014930896477915939,0.0
7.112035999999999,0.023076573372646833,0.0
7.11442,0.03001154545387898,0.0
7.116824,0.03694651753511113,0.0
7.119212,0.0486770870420951,0.0
7.121591999999999,0.06161836136257781,0.0
7.123988,0.07227799568292323,0.0
7.12638,0.08428810444362762,0.0
7.128759999999999,0.09708960913725012,0.0
7.131156,0.11096454473530787,0.0
7.133539999999999,0.12362627980207015,0.0
7.135924,0.139500820428748,0.0
7.138319999999999,0.15323349068214884,0.0
7.140707999999999,0.16710593056240985,0.0
7.143088,0.18097837044267087,0.0
7.145483999999999,0.197926341973784,0.0
7.147872,0.21701368816037744,0.0
7.150251999999999,0.23237886782565434,0.0
7.152648,0.25002568749106857,0.0
7.155036,0.263668305663649,0.0
7.157416,0.2791732549557861,0.0
7.159816,0.2891837586878704,0.0
7.162204,0.2974717009272582,0.0
7.164583999999999,0.30468870798000747,0.0
7.16698,0.30431662092767,0.0
7.169368,0.3015231242483351,0.0
7.1717640000000005,0.29714683570316397,0.0
7.17416,0.2911405334639134,0.0
7.176548,0.2843428352917448,0.0
7.178928,0.27233023081324365,0.0
7.181332,0.2650206759618773,0.0
7.18372,0.25235644517731826,0.0
7.186099999999999,0.2419738543928965,0.0
7.188496,0.22944939323519772,0.0
7.190884,0.21785609763727723,0.0
7.193264,0.20077085219710064,0.0
7.195659999999999,0.18168350601050717,0.0
7.198047999999999,0.1632477861299716,0.0
7.200432,0.14374113106279748,0.0
7.202827999999999,0.12530541118226193,0.0
7.205215999999999,0.10593852574194804,0.0
7.207596,0.08778234511513289,0.0
7.21,0.07255943079451292,0.0
7.212388,0.058407451660531455,0.0
7.214768,0.04704896920588497,0.0
7.217163999999999,0.03690119156473723,0.0
7.219547999999999,0.030617845789562982,0.0
7.221932,0.02461403926810915,0.0
7.224324,0.01861023274665532,0.0
7.226712,0.015539692531396657,0.0
7.229091999999999,0.010187512316000727,0.0
7.231492,0.006977202473881857,0.0
7.233875999999999,0.0036271230049027773,0.0
7.236272,0.002279144282340549,0.0
7.238675999999999,0.0,0.0
7.241063999999999,0.0006491305882611767,0.0
7.243448,0.0042315274827175245,0.0
7.245843999999999,0.008884859563812401,0.0
7.248228,0.011256551644770008,0.0
7.250611999999999,0.014838948539226356,0.0
7.253016,0.018421345433682706,0.0
7.255399999999999,0.02093280714150052,0.0
7.257779999999999,0.025306599968874983,0.0
7.260184,0.02982016242310965,0.0
7.262572,0.03898955267623592,0.0
7.264952,0.049369647742860935,0.0
7.267347999999999,0.059749742809485945,0.0
7.26974,0.0714803123164699,0.0
7.27212,0.08335065145031408,0.0
7.274524,0.09349842909146183,0.0
7.276912,0.10792994747916371,0.0
7.279291999999999,0.12250123549372577,0.0
7.281688,0.13600158832164932,0.0
7.284076,0.15243520745576805,0.0
7.286456,0.16793766103010843,0.0
7.288859999999999,0.18358237994910576,0.0
7.291244,0.19242940069593442,0.0
7.293624,0.20113665181590293,0.0
7.296019999999999,0.21347601737636757,0.0
7.298407999999999,0.22353374293669498,0.0
7.300788,0.2348021733105211,0.0
7.303188,0.24406850293793045,0.0
7.305575999999999,0.25054133588600475,0.0
7.307956,0.2588764999536357,0.0
7.310356,0.2606935051028184,0.0
7.312743999999999,0.2571558343188085,0.0
7.315124,0.2554804946543552,0.0
7.317524,0.25124397573604423,0.0
7.319911999999999,0.24779885275065136,0.0
7.322292,0.24686768719087304,0.0
7.324687999999999,0.2373690401379865,0.0
7.327075999999999,0.22665968827160118,0.0
7.32946,0.21394823565879903,0.0
7.331855999999999,0.1975146165246803,0.0
7.334243999999999,0.18201216295033992,0.0
7.336624,0.1657183134430814,0.0
7.339019999999999,0.15328889580179642,0.0
7.341404,0.13992831260073307,0.0
7.343784,0.12521725495931083,0.0
7.346179999999999,0.11157713250452707,0.0
7.348563999999999,0.09672630523624458,0.0
7.350943999999999,0.08494851390101747,0.0
7.35334,0.07410188812556867,0.0
7.355728,0.06125316160370302,0.0
7.358107999999999,0.05026676620139402,0.0
7.360523999999999,0.04342434191877892,0.0
7.362908,0.03471958651660719,0.0
7.365287999999999,0.027225535927934193,0.0
7.367684,0.018800319779482884,0.0
7.370067999999999,0.009583707698113456,0.0
7.372464,0.0046508363632981565,0.0
7.374859999999999,0.0007889002151213871,0.0
7.377247999999999,0.0,0.0
7.379627999999999,0.0,0.0
7.382024,0.0,0.0
7.384408,0.001340395291085251,0.0
7.386788,0.011014058791932242,0.0
7.389192,0.02101258751687356,0.0
7.39158,0.03478110445130207,0.0
7.393959999999999,0.052691696647555235,0.0
7.396356,0.07330134186665707,0.0
7.398744,0.09982284566852316,0.0
7.401139999999999,0.13146481212023542,0.0
7.403536,0.16901863715471188,0.0
7.405919999999999,0.2080608103985383,0.0
7.408304,0.2505934325981315,0.011975885591929079
7.410699999999999,0.2981067478207106,0.023420939332845885
7.413087999999999,0.34580515864052386,0.035345086542308585
7.415468,0.40169706804323857,0.04616529892084349
7.417872,0.46750503752155126,0.05599596929717216
7.42026,0.5365711385301535,0.06577194342297235
7.42264,0.6125274855095414,0.07498627662655524
7.425035999999999,0.6908580202876836,0.08407228826266551
7.427423999999999,0.769328324692686,0.09312034090615276
7.429804,0.8479383987245488,0.10213056954007868
7.432204,0.9301434445179382,0.11070126146551883
7.434587999999999,0.9994519421012914,0.11978385090951778
7.436967999999999,1.071089301513025,0.1286741834465312
7.439372,1.142960874208105,0.1372132299542544
7.441759999999999,1.2109699108950809,0.1456847201973183
7.44414,1.2770712904921262,0.1541243504074816
7.446544,1.3380522074393253,0.1625326968865254
7.448932,1.3956352232293747,0.17084791669563862
7.451315999999999,1.4462354452500215,0.17925820627678796
7.453712,1.497349419807735,0.18751231139908325
7.456096,1.5501878517160144,0.18338459751113467
7.458479999999999,1.5986972169073657,0.17979330078937142
7.460876,1.652748249487013,0.17539575971047996
7.463259999999999,1.694461812364065,0.17238271383748613
7.46564,1.7262593151655188,0.17035920996669848
7.468044,1.754798686436683,0.1683904023464394
7.470432,1.7761682724833414,0.16704077242019652
7.472812,1.7982367066643006,0.16561142426003425
7.475215999999999,1.8188148967780404,0.16435363896569255
7.477604,1.8403242524515588,0.16305558499580694
7.479983999999999,1.8518231043929931,0.1625453427055706
7.48238,1.8678852363347018,0.1615232028967755
7.484768,1.8799431667835769,0.16084037948723068
7.487148,1.8870657301798397,0.16056715833752783
7.489543999999999,1.895771085441939,0.16024600872347206
7.491931999999999,1.9038248143979803,0.15992666709020734
7.494312,1.9101559818613254,0.1596953943072199
7.496712,1.9116915518989184,0.15979795747297082
7.499095999999999,1.9149496834292077,0.15980725744484717
7.501475999999999,1.9160659445862203,0.16000435611884212
7.50388,1.9128984649966785,0.16054625730193708
7.506267999999999,1.9101502942877175,0.1609918629857008
7.508648,1.8995334902199492,0.16194817186786564
7.511052,1.896785319510988,0.16238499235826348
7.51344,1.893897379175167,0.16285201807231484
7.515823999999999,1.8950136403321793,0.16303929771532627
7.51822,1.8966889799966324,0.16311194867391285
7.520608,1.8950117444743104,0.1634497313465173
7.522987999999999,1.8986891848851803,0.1633959727765726
7.525384,1.9051601219753853,0.1632075860736436
7.527772,1.9187082964914794,0.16255760048418078
7.530152,1.9350499676869086,0.16178190639912687
7.532556,1.9532539700018938,0.1608915962287196
7.534944,1.9706193545557187,0.16013337644046785
7.537323999999999,1.9869138039229048,0.15947261206364252
7.539727999999999,2.0010663829168136,0.1589542567715753
7.542112,2.0168017537765586,0.1583854755735002
7.544491999999999,2.038263887621834,0.1574709913376008
7.546895999999999,2.0598657910939697,0.15653703552774018
7.549283999999999,2.0856116656857995,0.15536244283913808
7.551664,2.109495209158072,0.15428811329219283
7.554059999999999,2.131097112630207,0.15339190643061384
7.556444,2.1574946135280944,0.15221652663844576
7.558824,2.182169552933285,0.15118074464278128
7.561227999999999,2.210197067525252,0.14993889914853317
7.563615999999999,2.2320785102511076,0.1490929975147223
7.565995999999999,2.252190169656024,0.1484322588200277
7.5684,2.2743039298073575,0.14766179674534305
7.570787999999999,2.292133949212136,0.14719436975125058
7.573168,2.3030265008178867,0.14710187111633888
7.575568,2.3128481172369986,0.14708311682181868
7.577951999999999,2.3217385680963316,0.14711275039482685
7.580331999999999,2.3333299678363826,0.14693237946719676
7.58274,2.3531167620172044,0.14623282635101686
7.585123999999999,2.3703895987724124,0.14559461733726864
7.587507999999999,2.39338919851315,0.14471831229556945
7.589904,2.417459733440526,0.14379516120802874
7.592292,2.4407388724349834,0.14291808228387998
7.594672,2.4664394210564393,0.14191653535338183
7.597067999999999,2.4873443722521427,0.1411326375462312
7.599455999999999,2.5091804890076252,0.1403096075066384
7.601836,2.5359519728157194,0.13929149490435425
7.604231999999999,2.5579278591980614,0.13845951788202346
7.60662,2.5740372129680136,0.13785810761146508
7.608999999999999,2.5818586244985773,0.13764311194531495
7.611403999999999,2.5938240071488354,0.13722975899546147
7.613788,2.6092817346127295,0.1366086202120176
7.616167999999999,2.622877130957067,0.1360597433451178
7.618571999999999,2.638893936928402,0.13536876068356338
7.620959999999999,2.657983778832792,0.13451557048091783
7.62334,2.6767940814834614,0.13371189926468913
7.625744,2.6926711178279366,0.13303351724352663
7.628132,2.703193478239218,0.1326309334554788
7.630512,2.704217191597613,0.13269011160193578
7.632908,2.7076150927547635,0.13271490818362827
7.635295999999999,2.706077626859301,0.13293838034958141
7.63768,2.7029573690980024,0.13318180614179284
7.640076,2.6959726794707306,0.1335706356289554
7.642463999999999,2.682702148350487,0.13424728822588916
7.644844,2.6687327690959433,0.135038530259063
7.647239999999999,2.6582085128267923,0.13572973392996274
7.649627999999999,2.642097263198971,0.13659960580657385
7.652007999999999,2.6282676535712874,0.1373572981818867
7.654412,2.620025037302273,0.13793442042360768
7.6568,2.6195112847652062,0.13821904644229321
7.65918,2.616576122601142,0.1386483470017
7.66158,2.6124302556235786,0.13914411133614635
7.663963999999999,2.611357424579071,0.1395003705380622
7.666348,2.6069320183477878,0.14002702058730748
7.668743999999999,2.6022270728627834,0.14059464702483215
7.671131999999999,2.599012371444999,0.14104594871606052
7.673512,2.5965890659601323,0.14148955086396503
7.675907999999999,2.600311832341376,0.141669135393101
7.678296,2.6100409009618706,0.14160703859739848
7.680675999999999,2.6213999832764445,0.1414227724668423
7.683072,2.635040705591156,0.14111944904418167
7.685463999999999,2.6462600182788694,0.14094829693440386
7.68786,2.6625544676460553,0.14056992483543967
7.690255999999999,2.6847154496256316,0.1399656445842363
7.692643999999999,2.711579481232343,0.1391089077740704
7.695023999999999,2.7323446628011863,0.13841057994498096
7.69742,2.7586968377287,0.13754101813820754
7.699808,2.7866318045220493,0.1366617137263882
7.702187999999999,2.8167086416886766,0.1357216868365227
7.704588,2.8441317518028275,0.1348635998402147
7.706976,2.8699720700511437,0.1340056684496211
7.709355999999999,2.892087726060346,0.13324954547223525
7.711756,2.9111303461364932,0.13263037419216317
7.714144,2.9355276421458325,0.13179239109082377
7.716523999999999,2.96220657815531,0.13085168679037296
7.71892,2.9836706078584543,0.13011890729785375
7.721308,3.0072765079348756,0.12929959512272382
7.723691999999999,3.027529832824521,0.1286560073535473
7.726088,3.0447101217811117,0.12813749167340358
7.728471999999999,3.059189461856984,0.12778151795756174
7.730856,3.0755311330524133,0.1273868897193943
7.733251999999999,3.0961565449943964,0.12682052277344052
7.735639999999999,3.1134293817496035,0.1264066552612843
7.738036,3.125766851452199,0.12614978273008193
7.740431999999999,3.1327496452216024,0.1261010119973907
7.742819999999999,3.1441087275361763,0.12596370200034276
7.7452,3.150672212424998,0.12596622536172616
7.747595999999999,3.1595173373139582,0.12587665309601204
7.749984,3.1622163903368063,0.12599049237121202
7.752363999999999,3.1689196448524886,0.12598285992910002
7.75476,3.181629201607422,0.12579686925085556
7.757148,3.201927852467441,0.12542204635543883
7.759531999999999,3.2232974385140993,0.12501073627828843
7.761935999999999,3.238381183067786,0.1248136350503727
7.764323999999999,3.251462826875057,0.12467827863328902
7.766704,3.272692643294855,0.12430122942309418
7.769099999999999,3.2920601285950966,0.12397044387183051
7.771487999999999,3.309053426096584,0.12365279850327567
7.773872,3.3269778891578494,0.12331440005009045
7.776267999999999,3.3454614307265556,0.122912256233647
7.778655999999999,3.359801001175568,0.12264278928320992
7.78104,3.3709277660646646,0.12248199313772182
7.783435999999999,3.3824738398343417,0.12227474015346018
7.78582,3.3980241150968524,0.12195232122603386
7.788203999999999,3.4187892966656963,0.12146655400677292
7.7906,3.436900751182065,0.1210292743746336
7.792988,3.4590164071912675,0.12048401135311462
7.795367999999999,3.477547170588217,0.12002039194386792
7.797764,3.4969165517463274,0.11945661395338068
7.800156,3.5122817314116044,0.11901430768020542
7.802535999999999,3.5207094432778523,0.11875566303557675
7.804935999999999,3.524621096972069,0.11858299046258647
7.807324,3.52694995880045,0.11841927980950016
7.809703999999999,3.5334227917485235,0.11813665297046926
7.812103999999999,3.5417579558161543,0.11781895559899264
7.814488,3.5412933209651998,0.11771229379892856
7.816871999999999,3.5372437935019927,0.1176649046435463
7.819268,3.539712424957233,0.11748875580594109
7.821656,3.540458494919778,0.1173348045629048
7.824036,3.540925025628602,0.11720957215683898
7.826432,3.5447441315242014,0.11697262134201473
7.828819999999999,3.554988848539632,0.11654761636451429
7.831216,3.567095896674619,0.1160917315590237
7.833616,3.579482484063327,0.11561643515483487
7.836004,3.588516496265259,0.11525204060593995
7.838384,3.597690278094052,0.11487164701153779
7.84078,3.599135196190896,0.114653403837014
7.843172,3.596528690966665,0.11461146057406653
7.845555999999999,3.598158704660744,0.11452450139761777
7.847948,3.598717783168185,0.11446856631426658
7.850331999999999,3.6063540991015155,0.11423625742535606
7.852711999999999,3.6127797102213464,0.11404830254746567
7.855116,3.620368804326433,0.11389508794089527
7.857499999999999,3.6240934665655464,0.11382566528793099
7.859879999999999,3.6260955673119635,0.11377753114820184
7.862284,3.6352674532828857,0.11361913694724453
7.864672,3.6530993685455337,0.1132822534477255
7.867048,3.6634819593299555,0.11308462815875024
7.869452,3.6755871116070735,0.1128666716365908
7.871835999999999,3.6887631990708303,0.11261882295125203
7.874216,3.6997974161613096,0.11243479103413717
7.87662,3.704685561385679,0.11240585591602388
7.879003999999999,3.7095737066100476,0.11237839336355697
7.881384,3.709526484781805,0.11245534357418485
7.883788,3.7131113773940583,0.1124073393303287
7.886176,3.721212328178343,0.11229811464184027
7.888556,3.7371819123214345,0.11202755090289943
7.890959999999999,3.7593447901588797,0.1115338394305244
7.893344,3.7797851065036294,0.11106658025393769
7.895724,3.801436127661877,0.11055619781125278
7.898127999999999,3.817080846580874,0.11018057747303289
7.900512,3.835938371059787,0.10972439542090391
7.902891999999999,3.8554947436730007,0.10920709717203249
7.905295999999999,3.87784461296555,0.10864351681221547
7.907683999999999,3.89926331669832,0.10809439303433249
7.910063999999999,3.9164455015127797,0.10758532689916188
7.912456,3.9282730103940473,0.10721949235474447
7.914843999999999,3.939681210394733,0.10688349083486645
7.917219999999999,3.952579654462639,0.10648736367756384
7.919628,3.966968342597764,0.10603373003380716
7.922012,3.9794946996133325,0.10560506202741113
7.924392,3.991089891069122,0.10518621125322816
7.926796,3.9949562187929644,0.10490322193542449
7.92918,4.001895582449863,0.1045485409584178
7.93156,4.00254910461379,0.10434626568080332
7.933963999999999,3.9986865686056854,0.10420412261825962
7.936352,3.9888177303583303,0.10418534571308209
7.938731999999999,3.9762479432302578,0.10426833282218186
7.941135999999999,3.962467451288686,0.10438976313170309
7.943523999999999,3.9506890600935316,0.10446836795775925
7.945904,3.9397020648312946,0.10454791707991928
7.948299999999999,3.925642033636003,0.10469251822404409
7.950688,3.908788505761376,0.10487706351256423
7.953067999999999,3.8912833515806913,0.10504791474959306
7.955467999999999,3.8767114637062017,0.10516323983956205
7.957855999999999,3.8632105110183503,0.10525202153991167
7.960235999999999,3.851199802397719,0.10527720099673941
7.962639999999999,3.845335165643198,0.10517322573978766
7.965027999999999,3.8354663273958436,0.10514585526429876
7.967408,3.8213137484019337,0.10521863535980279
7.969812,3.81009443571422,0.10524013233293221
7.9722,3.801668619705842,0.1052228212340168
7.97458,3.801763063362328,0.10507438545818516
7.976971999999999,3.8025091333248735,0.10493815723422546
7.979359999999999,3.8061884695936126,0.10474806303823903
7.981739999999999,3.8109387410489894,0.10453201934232488
7.984144,3.8227662499302575,0.10417427909485993
7.986531999999999,3.8358044636250237,0.10377957241591043
7.988912,3.8492619862003696,0.10334793296653147
7.991307999999999,3.857644372096244,0.10301895686018651
7.993692,3.870170729111812,0.10260303210381429
7.996071999999999,3.8819056901944617,0.10218406370966354
7.998475999999999,3.89443204721003,0.10176177022153243
8.000864,3.9084014264645734,0.10135425582853073
8.003243999999999,3.92022893534584,0.10100159301986543
8.00564,3.9308457394136083,0.10068654039859769
8.008023999999999,3.9371788027348225,0.10047141925832381
8.01042,3.9397872038169233,0.1003097957364768
8.012812,3.9422558352721637,0.10015894626071206
8.0152,3.9484491289665176,0.09995632195061456
8.017579999999999,3.9529198611681746,0.09976769201785571
8.019984000000001,3.9556680318771362,0.09959237589981458
8.022372,3.9568334107202605,0.09941966791120346
8.024752,3.9570676240036073,0.09925983187235492
8.027148,3.9583727724735924,0.099075845305317
8.029536,3.961120943182553,0.09890513009153273
8.031915999999999,3.9566521068387654,0.09888044711164042
8.034312,3.951112335308338,0.0988796735327995
8.0367,3.9454327941510514,0.0988904823302191
8.039079999999998,3.9437574544865988,0.09882931801480813
8.041484,3.9371467477695337,0.09885186625394818
8.043872,3.9342607032915824,0.0988266735257552
8.046251999999999,3.933888616239244,0.09879023944026079
8.048656000000001,3.9328649028808487,0.09874172528174838
8.051044000000001,3.9319809591493136,0.09868125041523784
8.053424,3.932028180977557,0.09860902891809015
8.05582,3.9394321794854092,0.0983847723907458
8.058208,3.947208265045599,0.09819606642019427
8.060588,3.9597799480315414,0.09793880440050828
8.062992000000001,3.9706290695247866,0.09769481842233779
8.065380000000001,3.982921213257008,0.09746409871388102
8.06776,4.000008954414982,0.09716992592066348
8.070156,4.0168171563192345,0.09690255510768458
8.072544,4.0316232574770705,0.09666640583862836
8.074924,4.045498193075128,0.09644318488685817
8.07732,4.058721502367129,0.0962102153269408
8.079708,4.077019948338601,0.09588637731254993
8.082092,4.098251660616268,0.09552291302913582
8.084488,4.1222768695732706,0.09513315483006227
8.086872,4.14723324409005,0.0947389653450357
8.089255999999999,4.178056151219221,0.09426489997020528
8.091652,4.21116069834853,0.09375299108751209
8.09404,4.242682453612002,0.09324243347408057
8.096436,4.27620630962189,0.09271181440584234
8.098831999999998,4.312803201564834,0.09214083984188212
8.101219999999998,4.351541963881055,0.09153577087634093
8.1036,4.387067920637361,0.09100557418511954
8.105996000000001,4.430090423700136,0.09035693713201774
8.108384000000001,4.4681775597103,0.08977470907705805
8.110764,4.507056091653381,0.08919726199087924
8.113167999999998,4.547285098036822,0.08858718931271442
8.115552000000001,4.584580838114068,0.08802499714797328
8.117936,4.618151915952199,0.08749217327045972
8.120332000000001,4.6557271952831645,0.08690593341288526
8.122716,4.693022935360409,0.08634011986257682
8.1251,4.728316574691237,0.08580197209050403
8.127496,4.759885551782952,0.08529833420621771
