Time,Force,Position
5.417432,0.20208630121810547,0.0
5.41982,0.2007358267777465,0.0
5.422196,0.19845418677760923,0.0
5.4245920000000005,0.19524138121769363,0.0
5.426976,0.1906781012174191,0.0
5.429371999999999,0.18466864832101973,0.0
5.431768,0.18066129617103724,0.0
5.434156,0.17665709467820354,0.0
5.436536,0.17171857696844273,0.0
5.4389400000000006,0.16198446183293008,0.0
5.441328,0.14917731076436205,0.0
5.443707999999999,0.13343689338959885,0.0
5.446104,0.11741693676111525,0.0
5.448492,0.10153674975949184,0.0
5.450872,0.0879382027580057,0.0
5.453268,0.07513105168943769,0.0
5.455652000000001,0.0633948358075082,0.0
5.458048,0.05179838955243891,0.0
5.460443999999999,0.03633751143139612,0.0
5.462832000000001,0.023949669243408744,0.0
5.4652080000000005,0.01463486298847673,0.0
5.467611999999999,0.009699495935864706,0.0
5.470000000000001,0.005971683039602621,0.0
5.472384,0.00476097822610388,0.0
5.474776,0.007042618226241151,0.0
5.477164,0.011841366309141767,0.0
5.479544000000001,0.013846617712707423,0.0
5.48194,0.014126156966427845,0.0
5.484328,0.015340012437075392,0.0
5.486708,0.01534001243707539,0.0
5.489103999999999,0.015482932721084404,0.0
5.491491999999999,0.01883865856500901,0.0
5.493888,0.0219148451552132,0.0
5.496292,0.022337304692942636,0.0
5.49868,0.025693030536867237,0.0
5.501059999999999,0.027977821194153315,0.0
5.503456,0.03212494297099603,0.0
5.505839999999999,0.03534089918806043,0.0
5.508224,0.03748592021848629,0.0
5.510619999999999,0.03776861012935552,0.0
5.5130040000000005,0.04084479671955971,0.0
5.515383999999999,0.04433714153319571,0.0
5.51778,0.054630335176149195,0.0
5.520168,0.06440852148275618,0.0
5.522551999999999,0.0717652981623657,0.0
5.524956,0.07940161409569563,0.0
5.527340000000001,0.09169375782791714,0.0
5.529719999999999,0.1050568367467772,0.0
5.532116,0.11949085085227579,0.0
5.534504,0.13606988598820025,0.0
5.536884000000001,0.15157483528033738,0.0
5.539284,0.159723007892865,0.0
5.541668,0.16922165494575156,0.0
5.544048,0.18002355461075395,0.0
5.546452,0.18416752573044784,0.0
5.54884,0.1904533672234188,0.0
5.551220000000001,0.19087267610399944,0.0
5.55362,0.19101244573085965,0.0
5.556008,0.19436502091763544,0.0
5.558387999999999,0.20144225834352453,0.0
5.560784,0.2027927327838835,0.0
5.563172,0.20065086241060642,0.0
5.565567999999999,0.19035766876765292,0.0
5.567964,0.1789935399380609,0.0
5.570352,0.16776918073532912,0.0
5.572732,0.15533411671909858,0.0
5.575127999999999,0.1410367215833114,0.0
5.577515999999999,0.126599556820664,0.0
5.579896,0.11095168724451787,0.0
5.5823,0.0943726521085934,0.0
5.584688,0.07872478253244729,0.0
5.587068,0.06722088407599507,0.0
5.589464,0.05464605043290431,0.0
5.591851999999999,0.043421691230172504,0.0
5.594232,0.03592199426655399,0.0
5.596627999999999,0.02735136211629694,0.0
5.599016000000001,0.02278493145887359,0.0
5.601395999999999,0.019429205614948986,0.0
5.603795999999999,0.013931609397747315,0.0
5.60618,0.006571682060989004,0.0
5.608575999999999,0.0021450210304258662,0.0
5.610972,0.0,0.0
5.613356,0.0,0.0
5.615740000000001,0.0,0.0
5.61814,0.0,0.0
5.620528,0.0,0.0
5.622908000000001,0.0,0.0
5.625304,0.0,0.0
5.627692,0.0,0.0
5.630072,0.0,0.0
5.6324760000000005,0.0,0.0
5.634864,0.0,0.0
5.637243999999999,0.0,0.0
5.63964,0.0,0.0
5.642028,0.0,0.0
5.644408,0.0,0.0
5.646804,0.0,0.0
5.649191999999999,0.0,0.0
5.651572,0.0,0.0
5.653967999999999,0.0,0.0
5.656356000000001,0.0,0.0
5.658752,0.0,0.0
5.661147999999999,0.0,0.0
5.663536000000001,0.0,0.0
5.665915999999999,0.0,0.0
5.668312,0.0,0.0
5.6707,0.0,0.0
5.673080000000001,0.0,0.0
5.675483999999999,0.0,0.0
5.677872000000001,0.0,0.0
5.680251999999999,0.0,0.0
5.682648,0.0,0.0
5.685036,0.0,0.0
5.687416000000001,0.00423398200185205,0.0
5.689819999999999,0.011354008481656117,0.0
5.692207999999999,0.02173216649174968,0.0
5.694588,0.03401798159177379,0.0
5.6969840000000005,0.051424259341644046,0.0
5.699372,0.07236820787552423,0.0
5.701751999999999,0.09298539532744085,0.0
5.704148,0.11793164949628548,0.0
5.706536,0.1455769566879788,0.0
5.708916,0.1749901513427424,0.0
5.711320000000001,0.20500775047532083,0.0
5.713704,0.24177582595182473,0.0
5.716087999999999,0.27765806183892416,0.0
5.718488000000001,0.31852099074900964,0.0
5.720872,0.3674376486151364,0.010951123804265075
5.723255999999999,0.42245315651913073,0.02106553307407094
5.725652,0.48319542740865523,0.030418797925401503
5.72804,0.5452881727385386,0.03952204195364642
5.7304200000000005,0.6099420973222798,0.048201605547438346
5.732816,0.6755271874657992,0.05679198531745236
5.735204,0.7412545841526377,0.06505344557981299
5.737588000000001,0.806749663413999,0.07312877362503602
5.739984,0.8685673022644902,0.08132200566028527
5.742372,0.9296879888385495,0.08936397024456844
5.7447680000000005,0.9864796086956809,0.09737328307830106
5.747164,1.0385228529553037,0.10553168155450783
5.749547999999999,1.092615419789586,0.11358462292218574
5.751932,1.1402370495336636,0.12186080083774711
5.754327999999999,1.1830177558816155,0.13037379391296083
5.756715999999999,1.228034776259331,0.1385028941862353
5.759096,1.2769634503312628,0.1463300438334746
5.7614920000000005,1.3167202384322718,0.15443581656306615
5.76388,1.3604359020557402,0.16226987613459282
5.766264,1.3999622685891413,0.17007584544795692
5.768660000000001,1.4332972372860577,0.16680824551919451
5.771048,1.4610452126243036,0.16441875802371061
5.773427999999999,1.484649216842856,0.1627389180702628
5.775824,1.5063436681136084,0.16144187421333442
5.778212,1.5290618327427565,0.1603700062346826
5.780607999999999,1.5467048606924323,0.15972038572487443
5.783004,1.5567587945370212,0.15969886853868395
5.785392,1.5660213324486918,0.15973060799105426
5.787772,1.5797073807337771,0.15933066565847367
5.790168,1.5948364512578381,0.15894336159713926
5.792555999999999,1.609034356222121,0.15862014284105164
5.79494,1.6260257578657384,0.15810024808423112
5.797336,1.6418064546958575,0.15772392802879323
5.799720000000001,1.6631741448846462,0.1569742944404186
5.802099999999999,1.6916190724993247,0.1556905008790817
5.804499999999999,1.7148490938076704,0.15489234936739127
5.806887999999999,1.7332835176902643,0.15445228587456034
5.809267999999999,1.7547909775059134,0.15374213497800185
5.811667999999999,1.7714556180675678,0.15352297150841557
5.814055999999999,1.7871890930694434,0.15336074719953496
5.816436,1.799058136205346,0.1534542683754426
5.818835999999999,1.8104153226620507,0.15350639165253094
5.82122,1.8168371420661438,0.15389875869112649
5.823599999999999,1.8246094359105953,0.15413168420790932
5.8260000000000005,1.8258635708365987,0.15477287902297424
5.828384,1.8323326120689345,0.15498836789800788
5.830779999999999,1.842014458861186,0.15490467295707716
5.8331800000000005,1.8463416297202446,0.15530567863586184
5.835564,1.8493183261389445,0.15586099005723691
5.837947999999999,1.8474994251318926,0.1567490463748769
5.840344,1.845960063378561,0.15757224942170225
5.842732,1.842837909759393,0.15844304282678637
5.845112,1.8419973961403626,0.15908529186321088
5.847512,1.8383633858419972,0.15988016044657904
5.849895999999999,1.8287230733043809,0.16106637091240106
5.85228,1.8187106737144276,0.16221285840547953
5.854676,1.8081864174452762,0.16333506937554151
5.857063999999999,1.7988728659896238,0.16432046104164622
5.859444,1.7944021337879665,0.16484174589934183
5.861839999999999,1.7922130415864463,0.16515982381152158
5.864228000000001,1.7918862805044826,0.16537468386771637
5.866607999999999,1.7923509153554373,0.16556434894897154
5.869007999999999,1.8009637228189195,0.16517598689684856
5.871395999999999,1.81064746546904,0.16471717888965146
5.873792,1.8243354096119941,0.1639743861888279
5.876187999999999,1.8378835841280885,0.16327816650364932
5.878576000000001,1.852362924203961,0.16253670110543447
5.88096,1.8731281057728044,0.16131239985225052
5.883355999999999,1.8872353587963393,0.1604772699871898
5.885743999999999,1.903624251820012,0.15942126677765867
5.888124,1.917079878537489,0.15854039270470607
5.89052,1.9296043396951876,0.15770852546459108
5.892908,1.9370536641734142,0.1572542881093616
5.895292,1.94599323271886,0.1566383355650233
5.8976880000000005,1.954281174958248,0.15600117681441736
5.900076,1.9649433049963902,0.1552794712892525
5.90246,1.977048457273508,0.15453193302990229
5.9048560000000005,1.986871969550489,0.15399772503589204
5.907244,1.9948331507079136,0.15360123906540654
5.909628,1.998929899999364,0.15345212349071347
5.912024000000001,2.005168519664092,0.1531441219296435
5.914412,2.010196434515321,0.15294511993084398
5.916796,2.012430852687215,0.15290948728086678
5.919192000000001,2.012942709366413,0.15294367781711368
5.9215800000000005,2.012243861232112,0.15307937732211035
5.923964,2.009682681978254,0.15330964228587937
5.926359999999999,2.0069817330975366,0.1535640209747426
5.928744,2.0005561219777053,0.15399822749912734
5.9311240000000005,2.0041410145899583,0.15384530163347257
5.933524,2.0075861375753505,0.15371913339574328
5.935912,2.015407549105915,0.1534164206636438
5.9383040000000005,2.023880586942537,0.1531153736481304
5.940707999999999,2.036637365525713,0.15251778949242498
5.943092,2.045389942616055,0.1521633429291539
5.9454720000000005,2.0546543763855953,0.15183054315963607
5.947875999999999,2.062847874968497,0.15157189325618942
5.95026,2.0693188120587025,0.15137839449471022
5.952640000000001,2.0752778924697095,0.1511459185546377
5.955043999999999,2.0769532321341626,0.15121889588553988
5.957428,2.08100275959737,0.15122434136433674
5.959808000000001,2.0829104166873007,0.1513860719065523
5.962211999999999,2.0861685482175902,0.15141468770227695
5.964596,2.0851429390013254,0.15175261841535312
5.966975999999999,2.0846291864642588,0.15212228881212717
5.969379999999999,2.0870487002333875,0.15231467397265733
5.971764,2.0922617106818504,0.1523629619192264
5.974143999999999,2.0965435555705354,0.15245876605002356
5.976547999999999,2.1038984363922757,0.15236133144392058
5.978935999999999,2.1023137486685703,0.15278674388431146
5.981316,2.1035225576241996,0.1530724832269338
5.983715999999999,2.1039399706469113,0.15337362388497056
5.986103999999999,2.10663902366976,0.15351091128429076
5.988484,2.1081273718791094,0.15373952910185107
5.990888,2.114411317514211,0.15373545167993916
5.993271999999999,2.126841335015424,0.15339776532722987
5.995656,2.14355509326319,0.15282222233238424
5.998052,2.1653439881904295,0.1520009955194258
6.0004360000000005,2.194210120543557,0.1508719811813977
6.00282,2.228942785509075,0.1494607692226535
6.005224,2.2628840545416753,0.14806321668047343
6.007607999999999,2.296965093201136,0.1466381828703097
6.009988,2.330394505554538,0.1452242186388081
6.012392,2.366105557908078,0.14362685038944276
6.014776,2.4003735880226422,0.14203321752530773
6.0171600000000005,2.428775085524815,0.14071308809557037
6.019551999999999,2.455034712653711,0.13952819704261418
6.021939999999999,2.481434109409468,0.13831692179337196
6.02432,2.5034099957918103,0.13737028613244606
6.026716,2.530972875532823,0.13618803984909703
6.0291,2.553740157848083,0.13522563441189314
6.03148,2.5778579146037024,0.13418265831976178
6.0338840000000005,2.599833800986045,0.13327269960196977
6.036272,2.622228996248967,0.1323121068206516
6.038651999999999,2.638478119645779,0.13164904973836472
6.041055999999999,2.6477897752435626,0.13130782931427795
6.04344,2.652305833415594,0.13116390085550336
6.045824,2.6525381508410715,0.13123615494732982
6.048216,2.6452739219600794,0.13166609929824752
6.050604,2.6373580667730288,0.13207258031837038
6.052984,2.631723851586116,0.1323561290616337
6.055388000000001,2.625949866772342,0.13265999103128942
6.057772,2.62455217050374,0.13285277873738244
6.060155999999999,2.6222233086753595,0.1330745991675044
6.062552,2.622687943526314,0.1332112704801692
6.064935999999999,2.627296549496963,0.13317725333730063
6.067316,2.6333953995348303,0.13303828622298133
6.06972,2.6404254151324764,0.13287244739716553
6.072104,2.651739171476677,0.1325153379191394
6.074484,2.6574659344622065,0.1323263495618927
6.076879999999999,2.6673366685674305,0.13196680045224818
6.079267999999999,2.677859028978713,0.13163065841428426
6.081664,2.6863792886435776,0.13136211931808325
6.084059999999999,2.690755577188749,0.13126063170248975
6.086444,2.7003467720402523,0.13093808933022802
6.088824000000001,2.7116605283844524,0.13057003626542996
6.09122,2.7226947454749317,0.1302365206407689
6.093608,2.7312150051397968,0.12994445032071292
6.095988,2.7412255088718807,0.12953715176736394
6.0983920000000005,2.749885538163606,0.12922834276595924
6.10078,2.754261826708777,0.1291188398634467
6.103159999999999,2.7591971937613895,0.12893064855115172
6.105556,2.7544015963356374,0.12910032026509555
6.107944,2.7514683300294425,0.1292100709471884
6.110324,2.745462027790192,0.12944807365704022
6.11272,2.7423889918571365,0.12957221796294877
6.115107999999999,2.7401073518569996,0.1296847118322782
6.117504,2.7378257118568623,0.1297959927306779
6.1199,2.7364752374165033,0.12987768564613505
6.122287999999999,2.7360559285359227,0.12993438960773193
6.124668,2.7332152100283444,0.13011948126821582
6.127063999999999,2.725718663721875,0.13043759656502446
6.129452000000001,2.724368189281516,0.1305195488349316
6.131831999999999,2.727813312266908,0.13045021364075762
6.134236,2.728464938572966,0.1304609061311221
6.136623999999999,2.730746578573103,0.13035353771659758
6.139004,2.7379635856258524,0.13008351094197906
6.141408,2.749976190104354,0.12966546412709193
6.143796,2.761057629023077,0.12927274070553013
6.1461760000000005,2.7704165064491035,0.12891251078117216
6.148572,2.7847107509277422,0.1283866595685537
6.15096,2.800308248018496,0.12789080311029813
6.15334,2.8220518169753612,0.12714725078841102
6.155744,2.843655616305366,0.12642929538000328
6.158132,2.871125948247761,0.12553747528017611
6.160512000000001,2.893660913137544,0.12482737203815711
6.162908,2.9109809717209942,0.12430750235613187
6.165296,2.926438699184888,0.12383777557097318
6.167676,2.9391029299694464,0.12345195913188584
6.170071999999999,2.9568422974334783,0.12289553359527906
6.172459999999999,2.97514074340495,0.1222685774950299
6.17484,2.9962326860557575,0.12156450090844556
6.177236000000001,3.0133204272137304,0.12100914774195332
6.179624,3.0305479379985645,0.12045012384477168
6.182003999999999,3.0533624421420686,0.11977094313376761
6.184408,3.0737555366585743,0.11920695752313842
6.186795999999999,3.0890734944956075,0.11881035782650771
6.189176,3.1082558841986154,0.11833560667195842
6.19158,3.1291608353943188,0.11783686078219745
6.193968,3.1509969521498005,0.11731445003980154
6.196348,3.1713900466663065,0.11680031135900475
6.198744,3.193133615623171,0.11623463292132118
6.201131999999999,3.215016954206896,0.11566313283700135
6.203512,3.238530306484701,0.11500883991469252
6.205907999999999,3.2564566654038356,0.11447875189501856
6.208295999999999,3.2733120891363314,0.11397379010800589
6.210675999999999,3.294591023242242,0.11331139832473813
6.21308,3.317080662161651,0.11259885874043755
6.215468,3.3411530929468967,0.11188615047176209
6.217848,3.3620127181722266,0.11128499892265802
6.220248,3.383244430449894,0.11072873732912575
6.222636,3.4006117108615874,0.11025422482645171
6.225016,3.417047825713503,0.10979578095339727
6.227411999999999,3.4336237101922786,0.10933386543917833
6.229799999999999,3.44046863019269,0.10909360382829848
6.23218,3.449315650939519,0.10880245507762805
6.234584,3.4584422109400683,0.10847757489607308
6.236967999999999,3.457046410529335,0.10838153118626724
6.239348,3.4556506101186013,0.10828587384638118
6.241752,3.4571880760140643,0.10812417079405293
6.244135999999999,3.4564439019093895,0.10804117472129798
6.246516,3.4515557566850203,0.10806992691505087
6.248908,3.4443859714605143,0.10817588579788778
6.251296,3.435586172541929,0.10836730418533391
6.253691999999999,3.425575668809845,0.10860741315696947
6.256095999999999,3.4206403017572327,0.10871932972833132
6.2584800000000005,3.4166361002643986,0.10881247550888208
6.260859999999999,3.4102104891445677,0.10899664116885577
6.263259999999999,3.399268819852705,0.1092500393813319
6.2656480000000006,3.3906087905609796,0.1094249082338233
6.268027999999999,3.382647609403556,0.10952648900511706
6.270432,3.3816238960451606,0.10947333133726433
6.272816000000001,3.3847441538064587,0.10931584170522657
6.275195999999999,3.384651606007842,0.10924742968232072
6.277592,3.3927072308217525,0.10898360372848745
6.279976,3.4039756611955787,0.10863947847760558
6.282356,3.4172461923158215,0.10825192431791406
6.284751999999999,3.435172551234956,0.1077785818699775
6.287136,3.4512365790345343,0.10733636813522485
6.289528000000001,3.461434074221722,0.10701528783533835
6.291931999999999,3.474285296461384,0.10666263845577459
6.294319999999999,3.4871365187010457,0.10630563033869017
6.296695999999999,3.501058676127347,0.1059163848606114
6.299104,3.5143292072475907,0.10551632186008308
6.301487999999999,3.528530903927612,0.10509363456246527
6.303868,3.539799334301438,0.10473981322566064
6.3062640000000005,3.548786124675127,0.10446244517477137
6.308652,3.5637792172880665,0.10405279735878636
6.311031999999999,3.5827765113938397,0.10355101452430285
6.313428,3.6005631006861143,0.10310056223696525
6.315811999999999,3.6188615466575857,0.10268480956687535
6.318208,3.6335751000168046,0.10232426317046252
6.320604,3.647077948562525,0.10201405297597169
6.322991999999999,3.661511962668024,0.10168742475736471
6.325367999999999,3.673664336773385,0.10143447848411696
6.327772,3.681532970132192,0.10129102092523815
6.330159999999999,3.6873995027445825,0.10118692159906867
6.33254,3.695128366476529,0.10105788899530471
6.334932,3.704999100581754,0.10087809831405126
6.337316,3.7227384680457845,0.10056006126689679
6.3397120000000005,3.7361015469646452,0.10027915054799638
6.342115999999999,3.752677431443421,0.09992350617036456
6.3445,3.77311774778817,0.09951166907810748
6.3468800000000005,3.792626898573141,0.09911230134804332
6.349276,3.8133467541716106,0.0986734028144669
6.351659999999999,3.833507531262639,0.09828358296593252
6.35404,3.8539478476073885,0.09786837166130197
6.356444,3.8665195305933295,0.09759132657310322
6.358832,3.8776009695120526,0.09737842087053102
6.361208,3.887891012497857,0.09716665322802967
6.363612,3.890312422124855,0.09709024882902215
6.366,3.8918952139906913,0.09709030833109088
6.36838,3.8873319339904167,0.09721899278229666
6.370775999999999,3.883187962870723,0.09730898800516913
6.37316,3.877041891004612,0.09743784421391928
6.375539999999999,3.8702441928324434,0.09755447111679721
6.377943999999999,3.8662399913396097,0.09763180414185593
6.380331999999999,3.8613046242869977,0.0977208877614045
6.382712,3.855810178726945,0.09785983736152418
6.385116,3.8433782653678628,0.09812153068832896
6.387499999999999,3.8354624101808126,0.09833411270711619
6.38988,3.826615389433984,0.09855517738095235
6.392284,3.812041605701625,0.09885855641811761
6.394672,3.798910844208243,0.09917556835516728
6.397048,3.7867112482746377,0.09947844378948556
6.399452,3.7752105004753345,0.09972016291359906
6.40184,3.7663634797285055,0.0999357379766364
6.4042200000000005,3.7647334660344263,0.10000858146326053
6.406623999999999,3.765804401221065,0.09998491259728315
6.409008,3.7687376675272604,0.09993879665090587
6.4113880000000005,3.7810298112594816,0.09970359414483122
6.413791999999999,3.793881033499144,0.09941870977606129
6.416180000000001,3.8130180972317773,0.09899912932528125
6.418559999999999,3.8318756217106906,0.09860559454954472
6.420959999999999,3.852875016562881,0.09816400015116569
6.423347999999999,3.8774593040273237,0.09769220190272451
6.425727999999999,3.900600569252791,0.09721337985781778
6.428132,3.9201569418660047,0.09676565790347011
6.430515999999999,3.9390616881731604,0.09630524034268086
6.432896,3.961179240040232,0.09577278445664214
6.4352920000000005,3.981574230414607,0.09525570956310353
6.437676,4.000618746348623,0.09478871790489175
6.440056,4.023667463775474,0.09425412432178162
6.4424600000000005,4.044341993403569,0.09371449191501206
6.444848,4.066087458218304,0.09315977960845324
6.447224,4.086761987846399,0.09262873447128157
6.449628000000001,4.1030602289293245,0.09213179070466118
6.452016,4.119218700385388,0.09165918471540582
