Time,Force,Position
7.357344000000005,0.04603875808191636,0.0
7.359724,0.05564646623330227,0.0
7.3621240000000014,0.06618533994446649,0.0
7.364512000000005,0.07565327846899218,0.0
7.366896000000004,0.08311911624710104,0.0
7.3692920000000015,0.0915161195849882,0.0
7.371680000000005,0.09870241810937663,0.0
7.374064000000004,0.10574894700690485,0.0
7.376460000000002,0.10879127441159933,0.0
7.378848000000005,0.11183360181629386,0.0
7.381232000000004,0.1119426629147932,0.0
7.383628000000002,0.11155406256257344,0.0
7.386016000000005,0.11155406256257344,0.0
7.388396,0.11102569258349347,0.0
7.390796000000002,0.11102569258349347,0.0
7.393184000000005,0.10835545223113645,0.0
7.395568000000004,0.10275194557258426,0.0
7.397964000000002,0.09807960447381037,0.0
7.400352000000005,0.08833212669556426,0.0
7.402736000000004,0.07765348335753981,0.0
7.405132000000002,0.06590390483287684,0.0
7.407524000000002,0.05629619668149093,0.0
7.409904000000004,0.045757322970326704,0.0
7.412300000000002,0.036289384445801015,0.0
7.414688000000005,0.031167025938085628,0.0
7.417068,0.023251170751035284,0.0
7.419464000000005,0.016825559631204096,0.0
7.421852000000001,0.012681588511510184,0.0
7.4242320000000035,0.013612754071288502,0.0
7.426632000000005,0.010570426666593991,0.0
7.429020000000001,0.014434858532567483,0.0
7.431400000000004,0.018687890750760737,0.0
7.433796000000001,0.02294092296895399,0.0
7.436184000000004,0.0293358255604243,0.0
7.438563999999999,0.03372862740547776,0.0
7.440964000000001,0.03905259481030954,0.0
7.443352000000004,0.04637866296155817,0.0
7.445732,0.04876936406019478,0.0
7.448132000000001,0.05223100034546993,0.0
7.450520000000004,0.05583240625760528,0.0
7.4529,0.062367078475935804,0.0
7.455300000000001,0.07090385144068319,0.0
7.457688000000003,0.07743852365901371,0.0
7.460068,0.08397319587734424,0.0
7.462468000000001,0.08923532401191983,0.0
7.464852,0.10036398475888578,0.0
7.467236,0.1112131062521313,0.0
7.469632000000004,0.11777848699882268,0.0
7.47202,0.12727713405170923,0.0
7.474416000000005,0.1428911444423457,0.0
7.476812000000002,0.15066723000253585,0.0
7.479200000000006,0.1563014451894489,0.0
7.481584000000005,0.16486892668255718,0.0
7.483980000000002,0.1690128978022511,0.0
7.486368000000006,0.17529873929522205,0.0
7.488748000000001,0.18172435041505322,0.0
7.491144000000006,0.1840059904151905,0.0
7.493532000000002,0.1921541630277181,0.0
7.495916000000001,0.19802069564010844,0.0
7.498312000000006,0.2057495593720554,0.0
7.500700000000002,0.20668072493183376,0.0
7.503084000000001,0.20360768899877835,0.0
7.505480000000006,0.20654095530497352,0.0
7.507868000000002,0.20882259530511077,0.0
7.510248000000004,0.2048183938122771,0.0
7.512644000000002,0.19320858491447437,0.0
7.515032000000005,0.18159877601667165,0.0
7.517416000000004,0.17213083749214594,0.0
7.519812000000002,0.15865869747478653,0.0
7.522200000000005,0.14304468708415005,0.0
7.524584000000004,0.1312951085594871,0.0
7.526980000000002,0.12140786115438076,0.0
7.529368000000005,0.10858734744307927,0.0
7.531752000000004,0.09804847373191505,0.0
7.534152000000006,0.08736983039389061,0.0
7.536540000000002,0.07562025186922763,0.0
7.5389240000000015,0.06601254371784172,0.0
7.541319999999999,0.055473670006677495,0.0
7.543708000000002,0.04614550110901201,0.0
7.546092000000002,0.03481523146492968,0.0
7.548487999999999,0.027349393686820836,0.0
7.550876000000002,0.021885656655128843,0.0
7.553260000000002,0.012417718130603148,0.0
7.555655999999999,0.0036014059121353523,0.0
7.558044000000002,0.0,0.0
7.560428000000002,0.0,0.0
7.562823999999999,0.0,0.0
7.565212000000002,0.00024883072535954984,0.0
7.567596000000002,0.00024883072535954984,0.0
7.569996000000003,0.00024883072535954984,0.0
7.572384,0.00024883072535954984,0.0
7.574764000000002,0.00024883072535954984,0.0
7.577164000000003,0.00024883072535954984,0.0
7.579552,0.00024883072535954984,0.0
7.581932000000002,0.00024883072535954984,0.0
7.584332000000003,0.00024883072535954984,0.0
7.58672,0.00024883072535954984,0.0
7.589100000000002,0.00024883072535954984,0.0
7.5915000000000035,0.00024883072535954984,0.0
7.593888,0.00024883072535954984,0.0
7.596271999999999,0.00024883072535954984,0.0
7.5986680000000035,0.00024883072535954984,0.0
7.601056,0.0002488307253595499,0.0
7.603439999999999,0.0002488307253595499,0.0
7.605836000000004,0.0002488307253595499,0.0
7.608224,0.0002488307253595499,0.0
7.610607999999999,0.0002488307253595499,0.0
7.613004000000004,0.0018788444194389213,0.0
7.615396000000004,0.007761890331711545,0.0
7.617775999999999,0.01858030329659619,0.0
7.620176000000001,0.027536385141924198,0.0
7.622564000000004,0.04342993478628108,0.0
7.624948000000003,0.05639021812444278,0.0
7.627344000000001,0.07014189739552261,0.0
7.629736000000001,0.08403334629346264,0.0
7.6321160000000035,0.09885596075118099,0.0
7.634516000000005,0.11381834483575953,0.0
7.636904000000001,0.1295721248532562,0.0
7.639288,0.14732800561716972,0.0
7.641688000000002,0.16508388638108323,0.0
7.644076000000005,0.180186040092522,0.0
7.646460000000005,0.19435702824418247,0.0
7.648859999999999,0.20731731158234418,0.0
7.651248000000002,0.21906689010700714,0.0
7.653632000000002,0.23053692937794967,0.0
7.656027999999999,0.24242627752947285,0.0
7.65842,0.254315625680996,0.0
7.660804000000006,0.2623240286666634,0.0
7.663204,0.26632823015949714,0.0
7.665592000000004,0.26353473348016215,0.0
7.667971999999999,0.26260356792038386,0.0
7.670368000000003,0.2516618986285213,0.0
7.672756,0.24630722269532865,0.0
7.675139999999999,0.23936975489629975,0.0
7.6775360000000035,0.23029041672399378,0.0
7.679924,0.22014014336504933,0.0
7.682307999999999,0.20877916519260611,0.0
7.6847040000000035,0.19476445996768818,0.0
7.687092,0.17781648843657505,0.0
7.689475999999999,0.16380178321165706,0.0
7.691872000000004,0.1550945320916886,0.0
7.69426,0.14596797209113954,0.0
7.696643999999999,0.13712095134431093,0.0
7.699040000000004,0.1265513691047858,0.0
7.701432000000004,0.11508132983384325,0.0
7.703811999999999,0.10319198168232008,0.0
7.706212000000001,0.0913026335307969,0.0
7.708600000000004,0.08141538612569059,0.0
7.710979999999999,0.07152813872058425,0.0
7.713376000000004,0.06350322243503458,0.0
7.715764,0.05547830614948489,0.0
7.718147999999999,0.05052642579699058,0.0
7.720544000000004,0.042920818392021526,0.0
7.722936000000004,0.03610660691997058,0.0
7.725315999999999,0.03129449619433649,0.0
7.727716000000001,0.026622155095562608,0.0
7.730104000000004,0.023020749183427253,0.0
7.732483999999999,0.02128167439084854,0.0
7.734880000000004,0.020473765158048152,0.0
7.737268,0.01673258961905259,0.0
7.739648000000002,0.010337687027582275,0.0
7.742044,0.005293258876470913,0.0
7.744432000000003,0.0011799962851378706,0.0
7.746812000000006,0.0,0.0
7.749208000000003,0.0,0.0
7.751595999999999,0.0,0.0
7.753980000000006,0.002250931471776401,0.0
7.756376000000003,0.0037104670106346913,0.0
7.758763999999999,0.004238836989714662,0.0
7.761144000000002,0.004906976595654842,0.0
7.763539999999999,0.006646051388233554,0.0
7.765928000000002,0.009595830994311006,0.0
7.768312000000002,0.011474675413749927,0.0
7.770707999999999,0.011474675413749925,0.0
7.773096000000002,0.012282584646550316,0.0
7.775476000000005,0.014952824998907347,0.0
7.777872000000002,0.018414461284182487,0.0
7.780260000000005,0.023086802382956368,0.0
7.782640000000001,0.029761244228147105,0.0
7.785036000000005,0.03336265014028245,0.0
7.7874240000000015,0.03496195530600096,0.0
7.789804000000004,0.03496195530600096,0.0
7.792208000000002,0.03642149084485925,0.0
7.794596000000006,0.03642149084485925,0.0
7.796976000000001,0.03642149084485925,0.0
7.799372000000005,0.03642149084485925,0.0
7.801760000000002,0.034170559373082846,0.0
7.804144000000001,0.032711023834224556,0.0
7.806540000000005,0.032182653855144586,0.0
7.808928000000002,0.03151451424920441,0.0
7.811308000000004,0.029775439456625693,0.0
7.813704000000001,0.02753912542686233,0.0
7.816092000000005,0.03149420923358364,0.0
7.818472,0.04482278790834435,0.0
7.820868000000004,0.06283600705248828,0.0
7.823256000000001,0.08303642254028318,0.0
7.825636000000003,0.1062626521328903,0.0
7.828040000000001,0.13246747400206652,0.0
7.830428000000005,0.16044018333431306,0.0
7.832812000000004,0.19846872236901777,0.007172099236803721
7.8352080000000015,0.24534238629268193,0.014134055448828918
7.837596000000005,0.298423961352713,0.020969299392336938
7.839980000000004,0.34916016128448135,0.028388902943657836
7.842376000000002,0.4060570505243735,0.03586058916737652
7.844764000000005,0.4681669502127289,0.043432954320615676
7.847148000000004,0.5332554421776534,0.051145350103191496
7.849544000000002,0.598529029739812,0.059218426162693134
7.851928000000001,0.6681316840188987,0.0672028181301508
7.854312,0.7410850176268918,0.07537889477619727
7.856708000000005,0.8173890305637915,0.08372982149763165
7.859100000000005,0.8980221102176194,0.09198927853586523
7.86148,0.981526616907386,0.10002350294886837
7.863876000000005,1.0592590346412487,0.10805276028942642
7.866268000000005,1.1259119093142578,0.11630886264254808
7.868648,1.1850701335386664,0.12474157957803031
7.871044000000005,1.2439034925389811,0.13289919257762756
7.873428000000004,1.2983605629941244,0.14119724030568842
7.8758240000000015,1.3472778619188404,0.14967198495238992
7.878219999999999,1.3932165685669882,0.15811241598998058
7.880608000000002,1.4318929421920121,0.159452682881257
7.882988000000003,1.462515586860995,0.16114836496891455
7.885384000000002,1.4879705470518885,0.16311941778654646
7.887772000000005,1.5163134475786033,0.16432143149138984
7.890152,1.5438196262020263,0.1651621980338585
7.892548000000005,1.5642504632574292,0.16603572977100028
7.894936000000001,1.5829134128497617,0.16663299540946022
7.8973160000000036,1.6032535979644167,0.16674098723315686
7.899712000000001,1.6172626156157268,0.16710058375447437
7.902100000000004,1.6249876876319351,0.16751000880858574
7.904484000000004,1.6324351162522923,0.16746874350818713
7.906880000000001,1.6362051044617796,0.16752173923614092
7.909268000000004,1.6348999559917945,0.16800487464797315
7.911652000000004,1.6344787512533445,0.16859878940925221
7.914048000000001,1.6410875621125407,0.16876539145190977
7.916436000000004,1.6527715096512092,0.16850330544385836
7.918832000000002,1.6576577590177088,0.16876839684004039
7.921227999999999,1.6648256483843458,0.1687986849061514
7.923616000000003,1.672133307377843,0.16878163668283716
7.925996000000005,1.6767872393188652,0.16893129409046628
7.928392000000002,1.6826518760733862,0.168942105080893
7.930780000000006,1.6900067568951265,0.16874055379110378
7.933160000000001,1.6989916514109462,0.1682928634020035
7.935556000000005,1.7084884026059635,0.1679088242679352
7.937944000000002,1.711047686001952,0.16808731029130086
7.940328000000001,1.7173316316370535,0.16800460643223453
7.942724000000005,1.7250585995111314,0.16790743601658084
7.945112000000002,1.7357188336914042,0.16762800058931496
7.947496000000001,1.7528972267901257,0.16695932642962838
7.949892000000005,1.7770130876878758,0.16580848668177348
7.952276000000005,1.8000580133989872,0.16481992825347103
7.954660000000004,1.8236620176175395,0.16373554639082935
7.9570560000000015,1.8516895322095064,0.16230012831927898
7.959440000000001,1.8833491612419693,0.16058343086855592
7.961840000000002,1.9106325017292611,0.15910406734741328
7.964236,1.933120244790801,0.1579283654302699
7.966624000000003,1.9597519589720345,0.15643905747500914
7.969008000000002,1.9825192412872952,0.1551683697450492
7.971404,2.0111530562149458,0.1535808749713573
7.973787999999999,2.044302929314628,0.1517780080424832
7.976172000000005,2.0785237376009484,0.14995208413146355
7.978568000000003,2.11125430182005,0.14827122266558904
7.980960000000003,2.1462192842110457,0.14661978145170723
7.983340000000005,2.178251000295846,0.14515440230483548
7.985736000000003,2.2169406449259546,0.1433271327815598
7.988123999999999,2.255118432876866,0.141533971080413
7.990508000000005,2.2837050259762735,0.14018364170801778
7.992904000000003,2.303352050530235,0.13935664992182217
7.995291999999999,2.3191346432182236,0.1387649009119097
7.9976720000000014,2.330773264786518,0.13843698306079008
8.000068000000006,2.3384076848619784,0.13832286956686954
8.002456000000002,2.345483026429998,0.13831007898690703
8.004840000000002,2.347995087997744,0.1386027050682717
8.007240000000003,2.3442213080725174,0.1392529609736621
8.009624000000002,2.346174291132822,0.13963511847024368
8.012008000000002,2.3517121668053798,0.1398877149809732
8.014403999999999,2.3569705032242174,0.14018670251324605
8.016792000000002,2.3682351418823044,0.14019203323997242
8.019176000000002,2.3739127871817223,0.1404205874416489
8.021571999999999,2.378147410242164,0.14065237471242428
8.023960000000002,2.379448766996411,0.14100948872203967
8.026340000000005,2.3838231596837125,0.14121844648699444
8.028739999999999,2.38596313419912,0.1414396551778673
8.031128000000002,2.3888019568488286,0.14155296448772595
8.033508000000005,2.386612864647309,0.1417775886564063
8.035908,2.3809314276321523,0.1422088178091607
8.038296000000003,2.387914221401555,0.14212433643150352
8.040676000000005,2.4016947133431263,0.1417535259709511
8.043076,2.415754744538418,0.1413430987403871
8.045464000000003,2.428092214241014,0.14097132085132777
8.047844000000005,2.4422920150631664,0.14051989957697664
8.050240000000002,2.450904822526648,0.14026709693848902
8.052624000000002,2.463289514057487,0.13974483122882564
8.055024000000003,2.4765128233494877,0.13906424418093305
8.05742,2.4844286785365375,0.13858386118240706
8.059804,2.4892714977905324,0.13825875217421765
8.062187999999999,2.4911810507383314,0.13806323260306716
8.064584000000004,2.490017567753076,0.13802368990812416
8.066968000000003,2.492718516633794,0.13782258819157847
8.069352000000002,2.493137825514375,0.13775700778912053
8.071752000000004,2.495139926260792,0.1376651182571135
8.074136000000003,2.498073192566987,0.1375426074878919
8.076520000000002,2.50165808517924,0.13743187741193502
8.078916,2.507896704843968,0.1372495763807582
8.081304000000003,2.517300908240368,0.137024058685694
8.083684000000005,2.5297781475698238,0.1366558936960344
8.086084,2.5371802502198064,0.13652118690759907
8.088472000000003,2.545001661750371,0.13633575049451602
8.090852000000005,2.5538940084675734,0.13610723289568116
8.093248000000003,2.567442182983667,0.13573745913931473
8.095635999999999,2.5820612926864004,0.13532129576700314
8.098020000000005,2.6056199709345784,0.13456328770533826
8.100416000000003,2.6267572395557597,0.13395050759866642
8.102803999999999,2.6501289263488346,0.13332461968871445
8.105184000000001,2.6705201250074717,0.1328940007470044
8.107584000000003,2.693984359599163,0.13233484669589876
8.109971999999999,2.7223839612434677,0.13158679857447636
8.112368000000004,2.7490610013950754,0.1308766815932865
8.114764000000001,2.770802674494071,0.13036010264267742
8.117152000000004,2.79054224684665,0.12990210283167863
8.119536000000004,2.8066969265869757,0.12953560854532573
8.121932000000001,2.8171248433417713,0.12937478275014208
8.124320000000004,2.8221055363647576,0.12937831177642323
8.126704000000004,2.823873423827828,0.12953633524520908
8.129100000000001,2.8239187497982012,0.1297347902280075
8.131488000000004,2.8239640757685756,0.12993187458747335
8.133868,2.82442871061953,0.13006874982347919
8.136268000000001,2.8186075039775136,0.1304836537921552
8.138656000000005,2.8089218654695234,0.13103738168533804
8.141036,2.7985846006554755,0.13156490896775871
8.143436000000001,2.7853140695352328,0.13220318101821288
8.145824000000005,2.7699016680417134,0.13291169863719143
8.148204,2.757190215428911,0.1334428458370802
8.150600000000004,2.744246445390632,0.1339041193734331
8.152988,2.737588516845323,0.13411350248924014
8.155372,2.7302789619939567,0.1343077540864523
8.157768000000004,2.722178011209672,0.13450273194826984
8.160156,2.714588917104585,0.13472913391932864
8.16254,2.710212628559414,0.13482344488865647
8.164936000000004,2.714915678186549,0.13459578067615932
8.167328000000005,2.727487361172491,0.13411544262902872
8.169708,2.7468567423306016,0.13342523968701364
8.172108000000001,2.7707421816607445,0.13260952145115862
8.174496000000005,2.795326469125187,0.13170520932146998
8.176876,2.8196312173359104,0.13083322573906264
8.179272000000005,2.844075735173492,0.1299550835423228
8.18166,2.864795590771962,0.12917473908304422
8.184044,2.889659417490125,0.12821952609859946
8.186440000000005,2.916897432007043,0.12722663227913913
8.188824000000004,2.9399914754042675,0.12639912044056315
8.191208000000003,2.967229489921185,0.12541069067824362
8.193604,2.992605173318546,0.12448695057611907
8.195996000000001,3.0151401382083285,0.12375423745163075
8.198376000000003,3.0391181253370876,0.12303793970532864
8.200772,3.0596509894804536,0.12239825580717995
8.203160000000004,3.0776226743699624,0.12189499210363813
8.205544000000003,3.090798761833719,0.12153182864845632
8.207948000000002,3.104673697431777,0.12107946830576173
8.210336000000005,3.118920720082172,0.12068019467167553
8.212716,3.1251593397469004,0.12054974134372971
8.215112000000005,3.1243207219857387,0.12065121000284611
8.217500000000001,3.117755341239048,0.1209051844295057
8.219880000000003,3.1122608956789946,0.12111684387673426
8.222276,3.104205270865084,0.12145912983058489
8.224664000000004,3.096708724558614,0.12173450091951339
8.227044,3.0870703078788675,0.12208868752209011
8.229444,3.08301888455779,0.1223062972891969
8.231832000000004,3.079247000490434,0.12248831160047081
8.234212,3.074311633437822,0.12263220098551965
8.236612000000001,3.074171863810962,0.12264870098980586
8.239000000000004,3.072681619743743,0.12273556636897985
8.24138,3.0730537067960806,0.12277896577891124
8.243776000000004,3.0699806708630253,0.12287832071841787
8.246164,3.0658366997433313,0.12301447634992356
8.248548,3.060482023810139,0.12320721329652212
8.250944000000004,3.0546154911977488,0.1233765661204571
8.253332,3.051402685637833,0.12349665474387062
8.255716,3.050843607130392,0.12356331574008744
8.258112000000004,3.0477705711973364,0.12366413581586783
8.260504000000005,3.05177477269017,0.12354329240956102
8.262884,3.0560585134367244,0.12338587970847151
8.265284000000001,3.0620648156759747,0.123197373998717
8.267672000000005,3.067279721982307,0.12301821608170335
8.270056000000004,3.0763590601546134,0.12273030808589834
8.272452000000001,3.085158859073198,0.12247698640773415
8.274840000000005,3.0961005283650604,0.12214500511324826
8.277224000000004,3.1038293920970075,0.12193406795327784
8.279620000000001,3.1122098821350126,0.12173845461952275
8.282008000000005,3.1241752647852707,0.12147739521200047
8.284392000000004,3.133347150756194,0.12128397184913844
8.286788000000001,3.14079647523442,0.1211160608988742
8.289176000000005,3.148385569339507,0.1209366961526523
8.291560000000004,3.1627723616167627,0.12058022104370496
8.293956000000001,3.1763677579610996,0.12022966994776248
8.296344000000005,3.1995543491569403,0.11966163989201602
8.298728000000004,3.2287472425920316,0.11893894482189746
8.301124000000002,3.2610131719601787,0.11813820246367143
8.303512000000005,3.2895544390892124,0.1174261534822406
8.305896000000004,3.316885001404747,0.1167501289962102
8.308292000000002,3.335927621480894,0.11632565036429926
8.310680000000005,3.358974443049875,0.1157968539996598
8.313064000000004,3.3812298686859377,0.11526803685053333
8.315460000000002,3.405627164695278,0.1146876962941261
8.317848000000005,3.42965237365228,0.11407779096131326
8.320228,3.455539913728839,0.1134375549671226
8.322628000000002,3.4822188497383157,0.11280464839062714
8.325016000000005,3.5102482601881513,0.11211207271681117
8.327400000000004,3.5362755698915707,0.11147428303999363
8.329796000000002,3.5595093829156546,0.11089959967590927
8.332188000000002,3.5818120303799605,0.11033948022875967
8.334568000000004,3.6062565482175435,0.10971874855925602
8.336964000000002,3.6236238286292375,0.10926685797349797
8.339356000000002,3.6380578427347365,0.10888741326746
8.341736000000004,3.654773496840372,0.1084377182029817
8.344135999999999,3.6617581864676443,0.10820325593703627
8.346524000000002,3.662317264975085,0.10814836468819582
