Time,Force,Position
9.348451999999998,0.1226895229467709,0.0
9.350836,0.1319061350281403,0.0
9.353231999999998,0.134467314281998,0.0
9.355619999999998,0.14075315577496897,0.0
9.358004,0.1507611637892565,0.0
9.360399999999998,0.15532444378953103,0.0
9.362787999999998,0.15467281748347317,0.0
9.365172,0.14987722005772133,0.0
9.367568,0.14359137856475035,0.0
9.369955999999998,0.1338131922581434,0.0
9.372336,0.12911014263100865,0.0
9.374731999999998,0.1285510641235678,0.0
9.377123999999998,0.12841129449670757,0.0
9.379504,0.13120479117604256,0.0
9.381904,0.13665201490785228,0.0
9.384287999999998,0.13930574196032702,0.0
9.386668,0.14610344013249568,0.0
9.389064,0.15169043349116562,0.0
9.391452,0.15634626129005721,0.0
9.393832,0.16049023240975113,0.0
9.396228,0.16649653464900166,0.0
9.398612,0.17143190170161368,0.0
9.401008,0.18530683729967143,0.0
9.403403999999998,0.19345500991219905,0.0
9.405791999999998,0.19946131215144963,0.0
9.408172,0.20639877995047848,0.0
9.410576,0.21454695256300607,0.0
9.412964,0.22870142741478425,0.0
9.415344,0.24034194484094787,0.0
9.417739999999998,0.2561264333868054,0.0
9.420127999999998,0.2669755548800509,0.0
9.422508,0.27111952599974487,0.0
9.424903999999998,0.2737732530522196,0.0
9.427291999999998,0.2773581456644727,0.0
9.429672,0.2772183760376125,0.0
9.432071999999998,0.28266559976942224,0.0
9.434456,0.28918375868787044,0.0
9.436836,0.2977040183527355,0.0
9.439236,0.3055726517115427,0.0
9.44162,0.3080866091371573,0.0
9.444019999999998,0.3099489402567139,0.0
9.446412,0.310740336189632,0.0
9.4488,0.3088780050700754,0.0
9.45118,0.30794683951029705,0.0
9.453575999999998,0.30715544357737895,0.0
9.455963999999998,0.30529311245782226,0.0
9.458344,0.3085059180177378,0.0
9.46074,0.30785429171167994,0.0
9.463128,0.31185849320451364,0.0
9.465519999999998,0.31278965876429193,0.0
9.467924,0.3177250258169039,0.0
9.470312,0.32107760100367977,0.0
9.472692,0.32443017619045555,0.0
9.475096,0.3239183195112579,0.0
9.47748,0.3229871539514796,0.0
9.47986,0.3152582902195326,0.0
9.482264,0.3031059161141713,0.0
9.484652,0.2900223764490318,0.0
9.487032,0.27544859271667294,0.0
9.489435999999998,0.26408761454422963,0.0
9.49182,0.25323849305098417,0.0
9.494204,0.24173774525168076,0.0
9.496607999999998,0.22688442226560157,0.0
9.498992,0.2181771711456331,0.0
9.501372,0.20318407853269366,0.0
9.50378,0.18912215147953254,0.0
9.506163999999998,0.1708262012258572,0.0
9.508544,0.1534614165319602,0.0
9.510939999999998,0.13423430071850648,0.0
9.513324,0.11607812009169133,0.0
9.515704,0.09685100427823765,0.0
9.518107999999998,0.08162808995761768,0.0
9.520492,0.0665449452638579,0.0
9.522876,0.05369372302419552,0.0
9.525272,0.04419507597130895,0.0
9.527656,0.04256506227722959,0.0
9.530036,0.04428762376992601,0.0
9.532432,0.044008084516205595,0.0
9.53482,0.04614995488948267,0.0
9.5372,0.04601018526262245,0.0
9.539596,0.043076918956427276,0.0
9.541984,0.03972434376965148,0.0
9.544363999999998,0.03958457414279127,0.0
9.546768,0.03413984612877828,0.0
9.549152,0.03400007650191807,0.0
9.551531999999998,0.03391002442109773,0.0
9.553928,0.03391002442109773,0.0
9.556316,0.03391002442109773,0.0
9.558696,0.03391002442109773,0.0
9.561092,0.03391002442109773,0.0
9.563479999999998,0.03391002442109773,0.0
9.565876,0.03451193318111576,0.0
9.568272,0.03511384194113379,0.0
9.57066,0.03381308504681471,0.0
9.57304,0.0314413929658571,0.0
9.575436,0.025205269018926,0.0
9.577824,0.01789820988535637,0.0
9.580203999999998,0.01259325149820359,0.0
9.5826,0.007148523484190598,0.0
9.584988,0.0038456658434546697,0.0
9.587367999999998,0.002544908949135593,0.0
9.589772,0.0024548568683152566,0.0
9.592156,0.0012938696008563892,0.0
9.59454,0.0012938696008563892,0.0
9.596936,0.0017131784814370193,0.0
9.599324,0.004504179442975258,0.0
9.601703999999998,0.006503784471595385,0.0
9.6041,0.0066410583806588725,0.0
9.606488,0.0067783322897223604,0.0
9.608884,0.006778332289722362,0.0
9.611276,0.006778332289722362,0.0
9.613664,0.0061764235297043345,0.0
9.616044,0.005574514769686309,0.0
9.618448,0.005574514769686309,0.0
9.620836,0.005574514769686309,0.0
9.623216,0.005574514769686309,0.0
9.625612,0.005574514769686309,0.0
9.628,0.005574514769686309,0.0
9.63038,0.005574514769686309,0.0
9.632776,0.005574514769686309,0.0
9.635164,0.005574514769686309,0.0
9.637543999999998,0.005574514769686309,0.0
9.639948,0.005574514769686309,0.0
9.642336,0.0055745147696863095,0.0
9.644716,0.0050651538082853425,0.0
9.64712,0.0022741528467471036,0.0
9.649508,0.00027454781812697506,0.0
9.651888,0.00013727390906348753,0.0
9.654291999999998,0.0,0.0
9.656679999999998,0.0,0.0
9.65906,0.0,0.0
9.661456,0.0,0.0
9.663844,0.0,0.0
9.666224,0.0,0.0
9.66862,0.0,0.0
9.671008,0.0,0.0
9.673388,0.0,0.0
9.675791999999998,0.0,0.0
9.67818,0.0,0.0
9.68056,0.0,0.0
9.682959999999998,0.0,0.0
9.685348,0.0,0.0
9.687728,0.0,0.0
9.690124,0.0,0.0
9.692512,0.0,0.0
9.694892,0.0,0.0
9.697295999999998,0.0,0.0
9.699683999999998,0.00022982170768054603,0.0
9.702064,0.000229821707680546,0.0
9.70446,0.000229821707680546,0.0
9.706848,0.00022982170768054603,0.0
9.709228,0.00022982170768054603,0.0
9.711631999999998,0.00022982170768054603,0.0
9.714019999999998,0.00022982170768054603,0.0
9.7164,0.00022982170768054603,0.0
9.718804,0.00022982170768054603,0.0
9.721192,0.00022982170768054603,0.0
9.723572,0.00022982170768054603,0.0
9.725967999999998,0.00022982170768054603,0.0
9.728355999999998,0.00022982170768054603,0.0
9.730736,0.0007391826690815128,0.0
9.73314,0.0007391826690815126,0.0
9.735528,0.0007391826690815126,0.0
9.737908,0.0007391826690815128,0.0
9.740308,0.006319888594216224,0.0
9.742696,0.016089891609418757,0.0
9.745076,0.029257795781771005,0.0
9.747471999999998,0.04252074347053703,0.0
9.749859999999998,0.05792116995691414,0.0
9.752244,0.07536902316008204,0.0
9.754639999999998,0.10101037494615142,0.0
9.757027999999998,0.13140010232972948,0.0
9.759412,0.16346516937776084,0.0
9.761807999999998,0.1958551016498865,0.0
9.764195999999998,0.23122362619858122,0.0
9.766576,0.27371471414353904,0.009435874814291262
9.76898,0.32239719992498145,0.018354539903333404
9.771363999999998,0.37727108354290856,0.02687270839048443
9.773748,0.4341923938776264,0.035601625074986085
9.776144,0.49474392279497126,0.04442355158880635
9.778531999999998,0.5568335174677059,0.053427176680972105
9.780912,0.6264624886994875,0.06185193846659728
9.783307999999998,0.6987451869837438,0.07008371674952553
9.785695999999998,0.7713074245217205,0.07823668660741002
9.78808,0.834424524268589,0.0867431375590659
9.790475999999998,0.8933523269253897,0.0952495885107218
9.79286,0.9467403580517636,0.1040140354255743
9.79524,1.00180562470046,0.11256275200927827
9.797643999999998,1.054963234259226,0.12111146859298227
9.800028,1.1090066834073962,0.12937923599554516
9.802408,1.153506159532306,0.13784743648614106
9.8048,1.1928379511791263,0.1464400879000521
9.807188,1.228072993534496,0.15537709516894316
9.809568,1.2679185377183837,0.16381074985189445
9.811964,1.3065080511183986,0.17213146454022227
9.814352,1.335693361122013,0.17129038386905346
9.816731999999998,1.3585475036622827,0.17100719133485937
9.819143999999998,1.3739995435525687,0.17129000246649168
9.821532,1.3883353222858423,0.17127839390056643
9.823912,1.3973183209437927,0.1713009271694249
9.826308,1.4091892599375642,0.1706596454525513
9.828696,1.4178946151996636,0.1702769015054543
9.831091999999998,1.4238064737824279,0.17012336781641937
9.833496,1.4291592538577516,0.17012148598029378
9.83588,1.44303229359794,0.16944173307696153
9.838259999999998,1.456625794084408,0.16883009526492154
9.840664,1.47422349606371,0.1678388173946362
9.843052,1.4921932850953492,0.16698664822961803
9.845432,1.5130963404331836,0.16593790440310696
9.847836,1.5309263598379625,0.16520097555315447
9.850224,1.5521089544295172,0.16412870584169234
9.852604,1.5774355201407662,0.16273613257228042
9.855007999999998,1.6102586321584844,0.1606945529567222
9.857395999999998,1.6378668378698706,0.1592098591410665
9.859776,1.6638922517154204,0.15781130129527418
9.862172,1.6942014063075244,0.15602980938525046
9.86456,1.7225084601532112,0.15434329769769803
9.86694,1.7549594851185923,0.15234150885143863
9.869336,1.7841977045240578,0.15058432895102022
9.871724,1.8158101117282774,0.14871102084887708
9.874104,1.843138778185943,0.1473307114911622
9.876508,1.8643213727774979,0.14643743942661044
9.878892,1.8902995647948049,0.14529561615826114
9.881276,1.916557296065832,0.14408094946204622
9.883672,1.9355054724854925,0.14328917367807223
9.88606,1.9548729577857338,0.14240280232166655
9.88844,1.972517881593279,0.14161166729467659
9.890836,1.985926286482513,0.1409825773289967
9.893224,1.9959821161849713,0.14063135034578017
9.895604,2.008040046633846,0.1401619875549199
9.898008,2.0179561067094443,0.139854159353613
9.900392,2.02279703010557,0.13986697665227985
9.902772,2.020932803128144,0.14036832239779565
9.905176,2.0192083457775785,0.1408440861235519
9.907564,2.019206449919709,0.14125302327955658
9.909944,2.0181336188752015,0.14172529570305376
9.912347999999998,2.0212047589503874,0.1419469678706417
9.914735999999998,2.0192007623461015,0.14246041265995302
9.917116,2.023342837607926,0.14261188324118473
9.919512,2.0300460921236088,0.14255506269328977
9.9219,2.0315816621612015,0.1426649575518391
9.92428,2.0316742099598186,0.1427836572349002
9.926683999999998,2.026319534026626,0.14313299522237896
9.929071999999998,2.0206853188397127,0.14353768278749518
9.931452,2.017565061078414,0.1438716621338284
9.933856,2.0143050336902553,0.1442321219613012
9.936244,2.0115568629812945,0.1446275571322947
9.938624,2.011462419324808,0.14491857068723252
9.941028,2.0119270541757626,0.1451009189117963
9.943416,2.0126712282804373,0.14522704705108894
9.945795999999998,2.0098305097728595,0.145507846083945
9.948192,2.008619804959361,0.14560834554357907
9.95058,2.007316552347245,0.14559121484191426
9.95296,2.0090863356681847,0.14537938569202835
9.955355999999998,2.009133557496428,0.1452340264633419
9.957743999999998,2.006247513018476,0.14525282068120043
9.960124,1.9992174974208299,0.1455387856293984
9.962528,1.9943293521964611,0.14568274805064468
9.964916,1.98450583991948,0.14610644096044767
9.967296,1.9682567165226679,0.14697452309519357
9.969691999999998,1.9582462127905835,0.14758752424640456
9.972079999999998,1.9547538679769474,0.14787077249432842
9.97446,1.9545668765218442,0.14804581871752992
9.976864,1.9545196546936012,0.14819345182981034
9.979252,1.9575454687984133,0.1481459143001033
9.981632,1.9636443188362813,0.14791447514879547
9.984036,1.9688120033143706,0.1477264038582165
9.98642,1.9742592270461803,0.14748918400762875
9.988803999999998,1.9814290122706861,0.14719725013142837
9.9912,1.9804506248826643,0.14738503193426736
9.993588,1.9870613315997299,0.14718888235694266
9.995971999999998,1.994183894995993,0.1470318426467172
9.998368,2.007545078056984,0.14663229113488352
10.000756,2.0187643907446975,0.14638524555883786
10.003135999999998,2.0277020634322738,0.14629266034106503
10.005532,2.040504167985824,0.1460025460792971
10.00792,2.0562395388455688,0.14554578447567335
10.0103,2.07355770157115,0.14506079118819806
10.012695999999998,2.0942284394835076,0.14435364917365784
10.015083999999998,2.119182918142419,0.14334114530465306
10.017464,2.142414835308634,0.14240612467569724
10.019859999999998,2.1635048821015714,0.14163591089144917
10.022248,2.181010036282256,0.14101359626767998
10.024628,2.2006570608362184,0.14027079190278754
10.027024,2.2150891790838476,0.13983391553299132
10.029412,2.2270998877044796,0.1395909338801133
10.031792,2.241532005952109,0.1391803951349269
10.034188,2.253682484199601,0.13891797304911963
10.036576,2.2619685305811195,0.13883271352711227
10.038956,2.279333915134944,0.13825860005824786
10.041356,2.2914843933824365,0.13799021076646817
10.04374,2.3036348716299284,0.13772531131748197
10.046124,2.3075446294662756,0.13778319522039806
10.048528,2.3066587898768707,0.13806096773162732
10.050916,2.3097771517803,0.13813092955874617
10.053296,2.3111729521910327,0.13825563929252596
10.055699999999998,2.311917126295708,0.13837068029962132
10.058087999999998,2.3112182781614066,0.13848992587958084
10.060468,2.3079582507732477,0.1388007405313946
10.062864,2.3074917200644243,0.13899437129761286
10.065252,2.3068854197287405,0.13921113284556622
10.067636,2.30469632752722,0.13945447251635595
10.070032,2.303438400885478,0.13966322095076106
10.07242,2.3009697694302376,0.1399503835231654
10.0748,2.3010623172288547,0.1400525667583209
10.077199999999998,2.2985011379749967,0.14024331804574774
10.079588,2.2955206498405585,0.1404975591033949
10.081972,2.2917487657732023,0.14077145156683776
10.084367999999998,2.2907703783851807,0.14093539276298364
10.086756,2.2875103509970227,0.14123728693689122
10.089136,2.2868115028627214,0.14135207743060219
10.091532,2.28611265472842,0.14146601621740695
10.09392,2.2931426703260653,0.14124757792330145
10.096304,2.3103229592826566,0.1405460235309123
10.0987,2.3253613778659696,0.13996624856094886
10.101088,2.340120257195563,0.139431322971066
10.103472,2.358603798764269,0.1387806453544826
10.105868,2.37974106738545,0.13806900040298767
10.108256,2.4019492711932693,0.13730100834189124
10.110636,2.419361877575337,0.13673615135034492
10.113036,2.439056123957542,0.13605485576539653
10.115424,2.46247503257886,0.13525756627407998
10.117804,2.487244415640537,0.13437439327478626
10.1202,2.508568675716822,0.13356339189278596
10.122588,2.533477828405359,0.13267939731715547
10.124968,2.5602493122134526,0.13171504582246402
10.127372,2.5803628674762384,0.1309682464187949
10.129756,2.6054117897916367,0.13002487145433927
10.13214,2.6299488554278363,0.12905934226062188
10.134543999999998,2.6516924243847013,0.12817827468014917
10.136931999999998,2.674087619647624,0.1273299323927283
10.139312,2.695039792671571,0.12648355956075966
10.141711999999998,2.7118479945758236,0.125841655635642
10.144096,2.71929731905405,0.12561273716984905
10.14648,2.7273057220397177,0.12530420112851284
10.148875999999998,2.7362452905851637,0.12496742785283153
10.151264,2.7381076217047204,0.12491036731138892
10.153644,2.7361055209583025,0.12498644303253005
10.156047999999998,2.7323808587191896,0.12509965553388966
10.158435999999998,2.7293078227861343,0.12522525567891463
10.160816,2.7238133772260813,0.12548443441737106
10.16322,2.7155254349866933,0.12582245841702772
10.165608,2.7057472486800873,0.12626339031377184
10.167988,2.7042097827846248,0.12647277135252058
10.170384,2.695455309836413,0.12696582353637187
10.172771999999998,2.689122246515199,0.12732377477864268
10.175152,2.6937308524858476,0.12729804495999034
10.177552,2.6992706240162745,0.12725162925219335
10.179939999999998,2.7073243529723157,0.12717110622106953
10.18232,2.721244614540747,0.12691318089361492
10.18472,2.730089739429706,0.12682562761463548
10.187107999999998,2.7402381169307812,0.1267612309373527
10.189488,2.751177890364775,0.12668949101843657
10.191883999999998,2.766261634918462,0.12645920716103035
10.194271999999998,2.7849302720844022,0.12616139748729974
10.196656,2.8037386788772025,0.12584958482573672
10.199051999999998,2.8296243230958926,0.12529832948851433
10.201444,2.8576518376878592,0.12466293865493065
10.203824,2.8875416833993826,0.12397880385538103
10.206219999999998,2.92185503948432,0.12313177587328282
10.208607999999998,2.958450035569396,0.12219284600346735
10.210988,2.9970471324008874,0.12120351018964493
10.213383999999998,3.034852833299461,0.12020621220184208
10.215772,3.0661403752795864,0.11940035656466871
10.218152,3.104784693939321,0.11833062241733051
10.220551999999998,3.1416592292781162,0.1174042393655462
10.222939999999998,3.1714565271910224,0.11672797604891728
10.22532,3.1952475228646784,0.1162342888067974
10.227716,3.216105252232139,0.11582662186692623
10.230104,3.2329587801067654,0.11554147480065928
10.232488,3.2590314157805587,0.11498855522944591
10.234884,3.2815191588420984,0.11449001206023375
10.237272,3.3013531748511635,0.1140302289608194
10.239652,3.3182539245540337,0.1136447018565149
10.242052,3.326215105711458,0.1135064677129899
10.24444,3.333524660562824,0.11335860913096922
10.246835999999998,3.336318157242159,0.11329875730937405
10.249232,3.338040718734856,0.11327489916745533
10.251616,3.341765380973969,0.1131977868380464
10.253999999999998,3.3399955976530293,0.11330864480334249
10.256396,3.3402279150785064,0.11336535688740534
10.258784,3.3364560310111506,0.11352472156291647
10.261164,3.3360367221305696,0.11356942835272303
10.263559999999998,3.3365485788097677,0.11359621116900967
10.265947999999998,3.331193902876575,0.11375926785976348
10.268328,3.3237445783983484,0.1139027147126569
10.270727999999998,3.315503857987203,0.11405222636137274
10.273112,3.3114071086957524,0.11408360049290804
10.275496,3.30838129459094,0.11408155738951022
10.277891999999998,3.3045640845532094,0.11408314870693397
10.28028,3.2919470755968936,0.1142903283992466
10.282664,3.285476138506689,0.11432918652420693
10.285059999999998,3.2810073021629003,0.11431801665038435
10.287444,3.2796115017521674,0.11422231080992061
10.289839999999998,3.288365974700379,0.11385387807141094
10.292236,3.295909742835092,0.1135334770604966
10.294624,3.2999611661561694,0.11333907770878009
10.297007999999998,3.305083524663885,0.11311179953545304
10.299404,3.308623091305764,0.11289557921016717
10.301792,3.311930340522166,0.11261919055874998
10.304172,3.3072291867529002,0.11255060027425148
10.306576,3.3065322344764687,0.11237813096864104
10.308964,3.3044848077596782,0.11227000394607493
10.311343999999998,3.301366445856249,0.1121948571203392
10.31374,3.2991792495125973,0.11210120506349874
10.316128,3.3005769457812,0.1119495894446346
10.318507999999998,3.3069100091024133,0.11167830475755541
10.320904,3.3105893453711532,0.11144774855917601
10.323292,3.3124063505203356,0.11125277887463268
10.325675999999998,3.3194382619758502,0.11091456474537197
10.328072,3.3301948356704796,0.11050350256516416
10.33046,3.337878373432052,0.11018075993817691
10.33284,3.3507768174999573,0.10972616900582174
10.335235999999998,3.36567736231428,0.10923480786141244
10.337623999999998,3.3756425400759906,0.1088613305830024
10.340008,3.387330279330397,0.10847047671577958
10.342403999999998,3.4080973567571102,0.10787171357833669
10.344788,3.4277934989971843,0.10730582926250437
10.347188,3.4449284619834004,0.10684112496102915
10.349584,3.4625752816488147,0.1063979206704346
10.351976,3.4860886339266193,0.10582592639749519
10.35436,3.5065289502713686,0.10533195674488025
10.356756,3.523896230683062,0.10490953407227481
10.359144,3.5451279429607294,0.10441308368894342
10.361528,3.570363856731231,0.1038330528192206
10.363924,3.5943890656882327,0.10330399588090912
10.366312,3.617063800204876,0.10284377895890184
10.368696,3.641041787333635,0.10240851242361355
10.371092,3.664740235208674,0.10199430670285144
10.37348,3.680942136777243,0.10178313196100923
10.37586,3.6963526424128936,0.10157495497737387
10.37826,3.7133459399143813,0.10136706149796916
10.380648,3.723913626296037,0.1013302219864832
10.383028,3.7332706078641937,0.10133650686136966
10.385428,3.7403459494322133,0.10140905659217149
10.387816,3.748631995813732,0.10144206046684183
10.390196,3.7518429055157783,0.1015813397759268
10.392596,3.7569161463373812,0.10169390227620755
10.394984,3.76506242309204,0.10174111973581003
10.397368,3.7790752324590886,0.10168630308683715
10.399764,3.792156876266359,0.10164600782274014
10.402155999999998,3.808171786379824,0.10155516675362036
10.40454,3.831263933919179,0.10132884303947479
10.40694,3.850910958473141,0.10113156616465512
10.409328,3.8673451774671874,0.10101140274230513
10.411708,3.8839191660880936,0.10088008616560935
10.414112,3.8987705932163035,0.10076167496321875
10.416496,3.9148327251580124,0.10060849393197395
10.418876,3.935178597846275,0.10036188343776688
10.421271999999998,3.9605996072140104,0.10001585301229217
10.423659999999998,3.985461538074305,0.09971638764199073
10.42604,4.010183699307738,0.0994320954957624
10.428435999999998,4.037187500541311,0.09908701116456788
10.430824,4.062328970655325,0.09876887991795189
10.433204,4.090543476702395,0.09838754996909681
10.4356,4.118757982749465,0.09801491502377843
