Time,Force,Position
8.547404,0.009563544062802526,0.0
8.549791999999997,0.010917553539496038,0.0
8.552188000000001,0.010917553539496038,0.0
8.554583999999998,0.01106085820269081,0.0
8.556972000000002,0.01106085820269081,0.0
8.559351999999997,0.01106085820269081,0.0
8.561748000000001,0.01106085820269081,0.0
8.564132,0.011204162865885582,0.0
8.566511999999996,0.015351669021914057,0.0
8.568916000000002,0.020430340737720844,0.0
8.571303999999998,0.02751111319994449,0.0
8.573687999999997,0.03566282084880667,0.0
8.576084000000002,0.044466154803726746,0.0
8.578471999999998,0.05406088469156493,0.0
8.580852,0.062864218646485,0.0
8.583252000000002,0.07460081890760024,0.0
8.585639999999998,0.08698551043843883,0.0
8.58802,0.09923043234241723,0.0
8.590420000000002,0.10826254868648003,0.0
8.592807999999998,0.11715489540368257,0.0
8.595188,0.12790957324044178,0.0
8.597583999999998,0.1428082221968949,0.0
8.599972000000001,0.16027158544354028,0.0
8.602356,0.17330790328043677,0.0
8.604751999999998,0.1863477561536678,0.0
8.607140000000001,0.19952737865375905,0.0
8.609524,0.21070490040743345,0.0
8.611919999999998,0.21987678637835642,0.0
8.614308000000001,0.22304237011002886,0.0
8.616687999999996,0.22634772346856152,0.0
8.619084,0.22858214164045565,0.0
8.621471999999997,0.2277435238792944,0.0
8.623855999999996,0.22625327981207524,0.0
8.626252000000001,0.22238884794610173,0.0
8.628639999999997,0.2219695390655211,0.0
8.63102,0.2147525320127718,0.0
8.633420000000001,0.20860646014666107,0.0
8.635807999999997,0.2056731938404659,0.0
8.638204000000002,0.20301946678799115,0.0
8.6406,0.19971411342945852,0.0
8.642987999999995,0.1926840978318126,0.0
8.645367999999998,0.1835122118608896,0.0
8.647768,0.1720586858898293,0.0
8.650155999999996,0.16703077103860026,0.0
8.652535999999998,0.16028029469467472,0.0
8.654936,0.15203957428353007,0.0
8.657319999999999,0.14580095461880224,0.0
8.659703999999998,0.14328699719318772,0.0
8.662099999999995,0.1446374716335467,0.0
8.664484000000002,0.1419837445810719,0.0
8.666868000000001,0.13453442010284536,0.0
8.669263999999998,0.12722133021514445,0.0
8.671652000000002,0.11990824032744353,0.0
8.674028,0.11455356439425086,0.0
8.676435999999995,0.10616953931991144,0.0
8.678823999999999,0.10164994611154549,0.0
8.681204000000001,0.09512825215676268,0.0
8.683599999999998,0.0855335222689245,0.0
8.685988000000002,0.07686995794086461,0.0
8.688367999999997,0.06792685435908433,0.0
8.690764000000001,0.06084608189686067,0.0
8.693151999999998,0.053765309434637025,0.0
8.695535999999997,0.04775547215905191,0.0
8.697932000000002,0.03960376451018973,0.0
8.700319999999998,0.0333143879808842,0.0
8.702715999999995,0.028375485891937616,0.0
8.705112,0.02343658380299103,0.0
8.707499999999996,0.016635350594487806,0.0
8.709879999999998,0.007971786266427939,0.0
8.712275999999996,0.0022414882445632436,0.0
8.714663999999999,0.00037562208867204116,0.0
8.717047999999998,0.002660797125143874,0.0
8.719443999999996,0.005085741788475918,0.0
8.721832,0.007274833989996132,0.0
8.724212000000001,0.012353505705802927,0.0
8.726607999999999,0.02045799152642195,0.0
8.728995999999995,0.025954076264940132,0.0
8.731380000000001,0.03498783178746824,0.0
8.733784,0.04648832290736773,0.0
8.736171999999996,0.05938461443800008,0.0
8.738551999999999,0.0730250800733074,0.0
8.740947999999996,0.08992367723890421,0.0
8.743336,0.11208250668120737,0.0
8.745716000000002,0.13614899321344107,0.0
8.74812,0.16654664720901968,0.0
8.750512,0.19754870568241303,0.0
8.752891999999996,0.231157269380038,0.0
8.755288,0.26588209423467535,0.0
8.75768,0.3060069209928793,0.0
8.760059999999996,0.3476673177886763,0.008913898954484146
8.762459999999997,0.39114282387578686,0.017884845678414574
8.764843999999997,0.4349396601506571,0.026838838905797642
8.767227999999996,0.48185485832895664,0.03577415915718456
8.769624,0.5328195839704639,0.044579685986241804
8.772011999999997,0.5835973181568678,0.053484195508682886
8.774395999999996,0.6337234260372137,0.06222872181941209
8.776792,0.6904621364924941,0.07049923147381276
8.779179999999997,0.7435234065369044,0.07881587479628416
8.781563999999996,0.7946297976631409,0.08718206806879683
8.78396,0.8429899139382857,0.09577993448156323
8.786347999999997,0.8936788920418111,0.10401808974376968
8.788727999999999,0.941389277868767,0.11216770780868418
8.791128,0.9807663954859615,0.12067098151688069
8.793515999999997,1.0203777263865021,0.1289047051983613
8.795899999999996,1.050584853890643,0.13750178295817114
8.798296,1.0800478072901087,0.14614699294371683
8.800683999999997,1.1066247162116227,0.15488913804987792
8.803067999999996,1.1332960687896227,0.1634396004392667
8.805464,1.157360916143391,0.1717223134777291
8.807851999999997,1.1824041508851808,0.17093062606443354
8.810235999999996,1.206144133014855,0.17012952408615656
8.812632,1.2280690058532155,0.16930826325741669
8.815019999999997,1.245664811974648,0.16862796175595965
8.8174,1.2601422561926512,0.16795516732554558
8.819795999999997,1.2725722736938636,0.1671000525752942
8.822187999999997,1.2846302041427384,0.16621486950911302
8.824568,1.2926839330987796,0.16580370309926032
8.826968,1.3019483668683198,0.16523580001260865
8.829355999999997,1.3088386128391056,0.16476173069827857
8.831736,1.322945865862641,0.1635740726459345
8.834139999999998,1.3346317092591786,0.16275693548256726
8.836528000000001,1.346829409334914,0.16200319087225343
8.838907999999996,1.3610292101570662,0.16099344892407755
8.841311999999995,1.3721559750461625,0.16031668543144023
8.843699999999998,1.3882181069878714,0.1591512517553063
8.84608,1.4053511741162186,0.15787728346315896
8.848484,1.4249056508715632,0.15632153303617388
8.850871999999995,1.4440408187463272,0.15493578933515095
8.853251999999998,1.4595910940088384,0.15383947097586453
8.855647999999995,1.4718360159128165,0.15292576467351027
8.858035999999998,1.4835690811375974,0.15196442516669115
8.860419999999998,1.4934398152428214,0.1511325938164095
8.862815999999995,1.5033105493480454,0.15027344852108027
8.865203999999999,1.512110348266631,0.14953658957703772
8.867579999999997,1.5215617734912743,0.14882320294085666
8.869976000000001,1.5279401627828624,0.14839550377998462
8.87236,1.5349701783805085,0.14797825149629235
8.874739999999996,1.5415808850975738,0.14768187448146333
8.877144000000001,1.5528474196135305,0.14706729246052336
8.879531999999998,1.5543829896511236,0.14720641476266808
8.881912,1.5551271637557986,0.14737073425420785
8.884304,1.5549401723006948,0.14759633668545996
8.886691999999996,1.5566155119651481,0.14769728315159614
8.889068000000002,1.560013413122298,0.14770834995273202
8.891483999999998,1.5616887527867511,0.1478094200431691
8.893872000000002,1.564435027637843,0.1478175028432356
8.896251999999997,1.5639684969290193,0.1481035092783799
8.898651999999998,1.5625708006604173,0.14844598246653148
8.901040000000002,1.5636870618174297,0.14868321241271074
8.903424000000001,1.5674570500269167,0.14878518565531224
8.905823999999996,1.5749517004755176,0.1486754923232875
8.908211999999999,1.5861710131632314,0.14835633226666262
8.910592000000001,1.6012547577169187,0.14780285421693082
8.912996,1.614336401524189,0.14737110395362532
8.915379999999999,1.6263471101448208,0.14702910336841674
8.917760000000001,1.639149214698371,0.1466515156688876
8.920164,1.6525103977593618,0.14615623761318278
8.922547999999999,1.6672220552607113,0.14553037286044831
8.924928000000001,1.6803509208962248,0.14497868982355966
8.927323999999999,1.7002774847039068,0.1440030014347721
8.929707999999998,1.717270782205394,0.14317177552444524
8.932088,1.7358468715727169,0.14230279092679554
8.934483999999998,1.7554938961266788,0.14137725186379183
8.936872000000001,1.775280690307501,0.14043757893425518
8.939251999999996,1.7955793411675203,0.13954671405578092
8.941648,1.813596352027403,0.13886285816377553
8.944035999999997,1.8351982554995385,0.13801935071807298
8.946416,1.8617355260242863,0.13692970483853445
8.948819999999998,1.883477199123282,0.1360838616327337
8.951208000000001,1.9052188722222776,0.13527664774248238
8.953587999999996,1.9201628471491046,0.13484584740723396
8.955991999999995,1.9335240302100951,0.1344675381149749
8.958379999999998,1.9442314862186112,0.13420292412966053
8.96076,1.9586636044662407,0.13376715806162442
8.963163999999999,1.9732354923407303,0.1333015076340835
8.965551999999995,1.9868762146554413,0.13286395079597232
8.967928,1.9978159880894348,0.13267595302745133
8.970331999999999,2.005682725590373,0.13267504316884818
8.972719999999995,2.0109882838374538,0.13289686109124044
8.975099999999998,2.013081036524618,0.13332507717680553
8.977495999999995,2.021040321824173,0.1334463813734463
8.979883999999998,2.0276963545116122,0.13354309455277752
8.982264,2.030767494586798,0.13377952234072826
8.984663999999995,2.0299742027960113,0.13421358946167722
8.987051999999998,2.029600219885804,0.13456252870696686
8.989432,2.0292262369755973,0.13491266805494415
8.991836,2.024196426266499,0.135475891296674
8.994219999999999,2.012368917385232,0.13637452083769305
8.9966,2.005476775556577,0.13701721350639215
8.999004,1.9955115977948668,0.13783946864374189
9.001391999999996,1.992344118205325,0.1383101185576476
9.003771999999998,1.9887573297352026,0.1388554488702686
9.006167999999995,1.9856823979442781,0.13943639772309313
9.008556,1.97874303428738,0.1402134576765119
9.010936,1.9716639010036219,0.14101858986196078
9.01334,1.9696599043993357,0.1415267235501219
9.015727999999996,1.9699375477951868,0.14187589035648995
9.018107999999998,1.973148457497233,0.14207374728304348
9.020511999999997,1.979572172759195,0.14206796069358138
9.0229,1.9864151969017376,0.1419826622833779
9.025279999999997,1.9883228539916682,0.14215665582410827
9.027676,1.9928842381340732,0.14223475602238445
9.030063999999996,2.00168214119479,0.1421896893819658
9.032443999999998,2.014996102427537,0.14196064737007993
9.034839999999996,2.0269595892199264,0.14185156956448777
9.037228,2.0412047160124525,0.14158947780366804
9.039608,2.062806619484588,0.14091654334139295
9.042004,2.087481558889779,0.14006506632095062
9.044391999999997,2.1102941671754127,0.13930929075025267
9.046771999999995,2.1352486458343245,0.13841676808763775
9.049175999999996,2.1536849655747874,0.13780772629699237
9.051564,2.1696073278896355,0.13725561162696223
9.053944,2.1887424957643997,0.1365395647436684
9.056343999999996,2.210950699572219,0.13564533807319515
9.058732,2.2340900689398167,0.13471363481128246
9.061112,2.2533650064414408,0.13399078762388106
9.063508,2.27678391506276,0.13309429154736394
9.065895999999997,2.2961986221912447,0.13238183036929044
9.068275999999996,2.310817731893977,0.1318633783847252
9.070679999999996,2.3259486982759072,0.13138237249192888
9.073068,2.345875262083589,0.1306983365071026
9.075448000000002,2.3630083292119366,0.1301364052738892
9.077839999999997,2.3768360429817506,0.12965040548630513
9.080227999999998,2.3890809648857294,0.12919132683990064
9.082611999999996,2.402536591603207,0.12865398157835164
9.085007999999997,2.4139901175742664,0.12821483086352184
9.087392,2.416736392425358,0.12823970235412926
9.089771999999996,2.417201027276313,0.12839560104349865
9.092171999999998,2.416454957313769,0.12862961673821338
9.094555999999995,2.4166400529110033,0.12882838619514606
9.096952000000002,2.419618645187572,0.12893053302317664
9.099348,2.425250964516616,0.12895480183812774
9.101735999999995,2.4270188519796867,0.12913303460606212
9.104115999999998,2.4297179050025357,0.129278450258568
9.106519999999996,2.431765331719326,0.1294118281386327
9.108908,2.4356750895556734,0.12948321672917162
9.111288000000002,2.4295743436599366,0.1299698217096036
9.113684,2.4265466336972548,0.13032360179260977
9.116071999999996,2.4273833556005466,0.13053211418262345
9.118455999999997,2.4295705519441975,0.13064303304198402
9.12086,2.4313856612355114,0.13069971743177625
9.123244,2.4350631016463815,0.1306974974297149
9.125623999999997,2.4423254346695047,0.13060115773883504
9.128028,2.4497275373194882,0.13048494839779295
9.130415999999997,2.4572694095963317,0.13035159773430754
9.132796,2.466533843365872,0.13018421795751256
9.135199999999998,2.4845055282553803,0.12961534579147244
9.137583999999997,2.5055502490779444,0.1289223554591859
9.139964,2.527945444340867,0.12813314688484395
9.142367999999998,2.543542941431621,0.12756926615337058
9.144756,2.559792064828433,0.12701786960973105
9.147135999999996,2.574178857105689,0.12652173617212456
9.149532,2.585632383076749,0.12612399085443313
9.151919999999995,2.5942924123684743,0.1258177558274103
9.1543,2.6033245287125366,0.12556460598764713
9.156703999999998,2.6114254794968215,0.1253461278482672
9.159087999999995,2.625952041400937,0.12481794372914846
9.161471999999996,2.640618372931913,0.12427796200742229
9.163875999999997,2.657147035582446,0.12369513900712957
9.16626,2.670602662299923,0.1232414010948319
9.168644,2.6816368793904024,0.12293084929713631
9.171043999999997,2.688015268681991,0.12275684683467414
9.173431999999998,2.6913206220405237,0.12270664650008303
9.175812,2.6972797024515307,0.12259771903448465
9.178207999999998,2.7010969124892608,0.12258074982613311
9.180596,2.7001185251012387,0.12271717581504511
9.182975999999996,2.6897812602871913,0.12323030298049323
9.185379999999997,2.6795837651000034,0.12371218679176967
9.187767999999998,2.6693862699128164,0.12419213215545738
9.190148,2.667336947338156,0.12437137240505748
9.192552,2.6667778688307155,0.1244469996075576
9.194939999999995,2.6683606606965515,0.12443372291283822
9.197319999999998,2.6719455533088046,0.12434758393156209
9.199723999999996,2.6778120859211945,0.12415252091917113
9.202112,2.6814442003616907,0.12395731902155474
9.204491999999997,2.6812118829362133,0.12388677197046208
9.206888,2.681491422189934,0.12384840390769668
9.209272,2.6786979255105985,0.12392726067528745
9.211652,2.6703174354725947,0.12416403861230568
9.214047999999998,2.6619369454345905,0.1244056468371427
9.216436000000002,2.6527650594636665,0.12465729424298472
9.218815999999997,2.646246900545219,0.12485174052327387
9.221212,2.637214784201156,0.12509715466297797
9.223599999999998,2.625389171177759,0.12542116558385152
9.22598,2.615705428527638,0.12564917780429055
9.228375999999995,2.6112365921838494,0.12565816637689523
9.230764,2.6129138277061714,0.1254158066106161
9.233143999999996,2.610726631362521,0.1253084065345338
9.23554,2.6119845580042633,0.12512997034321954
9.237927999999997,2.6108210750190075,0.12508648378924464
9.240311999999996,2.61058875759353,0.1250172987970125
9.242716,2.6092855049814143,0.12499260496179923
9.245103999999998,2.609844583488855,0.12491713341982877
9.247479999999996,2.6097048138619945,0.12493582777469532
9.249884000000002,2.617433677593941,0.12470758645371167
9.252271999999998,2.631029073938279,0.12429834313989128
9.254652,2.6446244702826163,0.12389910824646165
9.257052000000002,2.6632950033064255,0.12333264971682434
9.259436,2.686481594502266,0.12266072670728902
9.26182,2.7118100560713843,0.12190461014197886
9.264215999999998,2.7382094528271406,0.1211034854726616
9.266604,2.765679784769536,0.12026285450281259
9.268983999999996,2.7991564189511817,0.11922973719357363
9.27138,2.832772822759688,0.11818098370297439
9.273767999999995,2.863176421008278,0.11725120473715649
9.276148,2.89250908407023,0.116386922801184
9.278543999999997,2.919699876758904,0.11561486505546252
9.280932,2.9506153316866923,0.1147505389133968
9.283311999999995,2.977154498069309,0.11397958143119026
9.285711999999997,3.0038334340787856,0.11319815022443959
9.2881,3.027159794901487,0.11256468614006129
9.290479999999995,3.0514173212839664,0.11191336833256434
9.292879999999997,3.0756748476664457,0.11126965612063315
9.295268,3.1000721436757854,0.11061135389679914
9.297647999999995,3.114179396699321,0.1102872423573179
9.300044,3.1233512826702436,0.1101005197067945
9.302431999999996,3.1325231686411668,0.10991850711171992
9.304811999999998,3.141555284985229,0.10976093047484897
9.307207999999996,3.155010911702707,0.10946307904831985
9.309596,3.1703288695397407,0.10913816772006082
9.311996,3.1881607848023887,0.10879718218423895
9.314388,3.2077152615577336,0.10844397079057573
9.316775999999996,3.2257794942458586,0.10817794302745369
9.319156,3.247428619546238,0.10786996724858276
9.321559999999998,3.2730819463394507,0.10746622834840834
9.323948,3.2975245683191634,0.10710999921113636
9.326327999999997,3.322526268806318,0.10669801089644433
9.328724,3.343663537427499,0.10636320328011996
9.331108,3.366523367541377,0.10601215850139527
9.333492,3.389383197655254,0.10566516150205989
9.335887999999995,3.410520466276435,0.10532825876482182
9.338276,3.4335200660171723,0.10496756538152224
9.340655999999996,3.457450831317688,0.10459745705199897
9.343052,3.4805902006852865,0.1042294966762968
9.345439999999996,3.5086649371054954,0.10374249024087184
9.34782,3.54074387501854,0.10316246530251119
9.35022,3.567887445878971,0.10268616515200538
9.352604,3.590887045619708,0.10232065404696745
9.355004,3.6015945016282247,0.10225945400157468
9.357399999999998,3.608157986517046,0.10230410348469496
9.359783999999998,3.611136578793616,0.10239650546995036
9.362167999999995,3.6116012136445703,0.10250615377219326
9.364564,3.6103432870028285,0.1026315273943134
9.366951999999998,3.601356496629139,0.10290656141731488
9.369335999999995,3.591718079949393,0.10316460666008054
9.371732000000002,3.5840817640160627,0.10337767932190826
9.374119999999998,3.579750801441266,0.10356948360209615
9.3765,3.5795638099861624,0.10366338895903758
9.378895999999996,3.579376818531059,0.1037567952639752
9.381284,3.5804005318894543,0.10380895070324533
9.383663999999996,3.5826349500613484,0.10382051065011019
9.38606,3.5814242452478497,0.1038609686665243
9.388447999999997,3.5815640148747097,0.10384787289515279
9.390828,3.5818435541284304,0.10382170119497927
9.393223999999996,3.582402632635871,0.10376966074834224
9.395612,3.580819840770035,0.10376989534212164
9.398007999999995,3.58566266002403,0.10361463047463194
9.400408,3.5939978240916606,0.1033570676717824
9.402795999999997,3.6106209303986794,0.10291025304417825
9.405175999999996,3.6285945111460567,0.10240809087184752
9.407579999999996,3.647639027080073,0.10187815227686833
9.409968,3.668965183014227,0.10129103712489256
9.412348,3.6893601733886023,0.1007149747337279
9.414744,3.711245407830196,0.1000559703666607
9.417131999999995,3.7329908726449306,0.09941838059152742
9.419511999999996,3.7542244807804677,0.09876493515310195
9.421907999999997,3.767868994810917,0.09822923761553426
9.424295999999998,3.7793716384680898,0.09775038526116585
9.426679999999998,3.7882205550727877,0.09729629062396064
9.429071999999998,3.791994334998013,0.09694489464424709
9.43146,3.8016346475356286,0.09649778695846882
9.433844,3.81378891749886,0.09604143089314958
9.436239999999998,3.81979711559598,0.0957112644055215
9.438628,3.828738579999295,0.09533639929004033
9.441007999999997,3.83781981402947,0.09495270166007644
9.443404,3.8502536232464206,0.09448908731851866
9.445791999999996,3.8573327565301794,0.09414752040483605
9.448188000000002,3.8632011850004386,0.0938459196503834
9.450584,3.8679986782840596,0.09357074372936995
9.452967999999998,3.872796171567681,0.09329606008024667
9.455351999999998,3.879595765597719,0.09299055684022672
9.457747999999995,3.8819718492543425,0.09278758291904257
9.460132000000002,3.887281199217161,0.09254224549876673
9.462516,3.900039873658206,0.0922178314643822
9.46492,3.9126587784723905,0.09190781769338949
9.467307999999996,3.922996043286439,0.09165436227413667
9.469687999999998,3.941341711086154,0.09127533970810461
9.472083999999995,3.9596873788858695,0.09089631714207258
9.474475999999996,3.9826888744844755,0.09047053405938366
9.476855999999998,4.008623636389277,0.08999710445332328
9.479259999999996,4.025339290494914,0.08968612264717246
9.481648,4.037119577547937,0.08944661720939025
9.484027999999997,4.050762195720519,0.08918216741576279
9.486432,4.061331777960044,0.08897549217879042
9.488816,4.0717615905727085,0.08878317487379729
9.4912,4.077907662438819,0.08867842379941845
9.493592,4.086055835051347,0.08854129227657209
9.495979999999996,4.091270741357679,0.08844520323100125
9.498359999999998,4.094483546917595,0.08838064033849155
