Time,Force,Position
8.185848,0.09299836896225977,0.0
8.188248000000002,0.08876185004394879,0.0
8.190632,0.08824999336475109,0.0
8.193016,0.08974023743197025,0.0
8.195412000000001,0.0878779063124136,0.0
8.1978,0.0875983670586932,0.0
8.200184,0.0881102237378909,0.0
8.202580000000001,0.09183488597700418,0.0
8.204968000000001,0.0967702530296162,0.0
8.207352,0.10049491526872947,0.0
8.209755999999999,0.10449911676156318,0.0
8.212143999999999,0.1054302823213415,0.0
8.214528000000001,0.10757215269461856,0.0
8.216923999999999,0.11213543269489312,0.0
8.219311999999999,0.11749010862808577,0.0
8.221696000000001,0.1293796173677951,0.0
8.224091999999999,0.14140889573436466,0.0
8.226479999999999,0.15143607335451736,0.0
8.228860000000001,0.15946115022825322,0.0
8.231264,0.16627552228849032,0.0
8.233647999999999,0.16706691822140843,0.0
8.236032000000002,0.16183533802700753,0.0
8.238424000000002,0.15474142671305002,0.0
8.240808000000001,0.14657658021245393,0.0
8.243192,0.14055360408513495,0.0
8.245595999999999,0.13467039758467617,0.0
8.247983999999999,0.125714155151162,0.0
8.250368000000002,0.11568697753100929,0.0
8.252763999999999,0.10753880491848168,0.0
8.255151999999999,0.09953040193281426,0.0
8.257532000000001,0.09459503488020225,0.0
8.259927999999999,0.08979943745445042,0.0
8.262316000000002,0.08379313521519986,0.0
8.264696,0.07443425778917352,0.0
8.267092000000002,0.06842795554992298,0.0
8.269480000000001,0.061770027004614515,0.0
8.27186,0.05269068883230858,0.0
8.274256000000001,0.046544616966197806,0.0
8.276644000000001,0.04547368177955928,0.0
8.279024,0.045753221033279695,0.0
8.281424000000001,0.04989719215297361,0.0
8.283808,0.05820180828042988,0.0
8.286207999999998,0.06622688515416573,0.0
8.288604,0.07825616352073529,0.0
8.290992,0.08656077964819156,0.0
8.293372000000002,0.0936546909621491,0.0
8.295772,0.09981743671632831,0.0
8.29816,0.10691134803028585,0.0
8.300540000000002,0.1087736791498425,0.0
8.302944,0.11557137732201116,0.0
8.305332,0.1182251043744859,0.0
8.307711999999999,0.12087883142696065,0.0
8.310120000000001,0.12288093217337749,0.0
8.312508000000001,0.12809583847970993,0.0
8.314888,0.12702490329307142,0.0
8.317284,0.1259539681064329,0.0
8.319672,0.1293065432932087,0.0
8.322052,0.1368030895996784,0.0
8.324448,0.13922449922667587,0.0
8.326836,0.14122659997309273,0.0
8.329215999999999,0.14578987997336726,0.0
8.331616,0.15193595183947803,0.0
8.334004,0.1575701670263911,0.0
8.336383999999999,0.15798947590697174,0.0
8.33878,0.16385600851936208,0.0
8.341164,0.17014185001233303,0.0
8.343548000000002,0.1762879218784438,0.0
8.345944,0.17749862669194258,0.0
8.348332,0.18299307225199546,0.0
8.350712000000001,0.1804791148263809,0.0
8.353116,0.1807586540801013,0.0
8.355504,0.18103819333382176,0.0
8.357883999999999,0.18103819333382173,0.0
8.36028,0.1829005244533784,0.0
8.362668,0.1867649563193519,0.0
8.365051999999999,0.18634564743877124,0.0
8.367448,0.1837844681849136,0.0
8.369836,0.1724068161244019,0.0
8.372216000000002,0.16303126481030708,0.0
8.374611999999999,0.1539352527499327,0.0
8.376999999999999,0.14334899662233913,0.0
8.379380000000001,0.1288983086287721,0.0
8.381775999999999,0.11523901656812323,0.0
8.384164000000002,0.10279042932097304,0.0
8.386544,0.0886192805811264,0.0
8.388943999999999,0.0752395277741979,0.0
8.391328000000001,0.06411086702723195,0.0
8.393723999999999,0.05805734295973825,0.0
8.396124,0.048681791645643444,0.0
8.398508,0.04635292981726302,0.0
8.400888000000002,0.04216173686932596,0.0
8.403284,0.03783077429452868,0.0
8.405672,0.034570746906369944,0.0
8.408052000000001,0.026545670032634087,0.0
8.410452,0.019591528345536766,0.0
8.41284,0.016750809837958652,0.0
8.415220000000001,0.014049860957240751,0.0
8.417615999999999,0.01816328413675996,0.0
8.420003999999999,0.018272505823445466,0.0
8.422388000000002,0.019592432323629713,0.0
8.424783999999999,0.02077258919695375,0.0
8.427171999999999,0.021021580510499467,0.0
8.429556000000002,0.021021580510499467,0.0
8.431951999999999,0.021021580510499467,0.0
8.434336000000002,0.021021580510499467,0.0
8.436732,0.021021580510499467,0.0
8.439132,0.01984142363717543,0.0
8.441516,0.01759033157721286,0.0
8.4439,0.01759033157721286,0.0
8.446296,0.014547843584332186,0.0
8.448684,0.012576290778090039,0.0
8.451063999999999,0.0107445075987081,0.0
8.453468,0.008912724419326164,0.0
8.455856,0.008912724419326164,0.0
8.458236,0.008912724419326164,0.0
8.460636000000001,0.008012106799722547,0.0
8.463024,0.006971719553258719,0.0
8.465404,0.0028582963737395087,0.0
8.4678,0.00434854044095867,0.0
8.470188,0.0035571445080405596,0.0
8.472572,0.00504738857525972,0.0
8.474968,0.009191359694953632,0.0
8.477356,0.014795026941692001,0.0
8.479735999999999,0.024402895681264074,0.0
8.482140000000001,0.035081699607474676,0.0
8.484528000000001,0.04576050353368528,0.0
8.486908,0.0573704730196742,0.0
8.489304,0.06912021213252334,0.0
8.491692,0.07802923273779436,0.0
8.494076,0.08633195300738138,0.0
8.496472,0.09318975518012317,0.0
8.49886,0.10698312929402456,0.0
8.50124,0.12799161460280603,0.0
8.503636,0.15491195849435174,0.0
8.506024,0.18094646279649304,0.0
8.508403999999999,0.2087488545617047,0.0
8.5108,0.2386912208423242,0.0
8.513188,0.27705940313132243,0.0
8.515584,0.3188088126894019,0.009033022621950932
8.517980000000001,0.3648872889644095,0.01804075257773304
8.520368000000001,0.41273365270248735,0.027022437905225072
8.522748,0.4622081342767754,0.03620169017234803
8.525144000000001,0.5143344470456689,0.04559991148002617
8.527532,0.5679491080239123,0.05484257951226087
8.529916,0.6245423612787249,0.06400743231072148
8.532312000000001,0.6869077034894413,0.07297333651680432
8.5347,0.7554172217083994,0.08176740069479684
8.537084,0.8299311463087389,0.0904849997689708
8.539480000000001,0.916969532066777,0.0986499901829008
8.541868000000001,1.005265844466557,0.10681839542945488
8.544248,1.0962177797766812,0.1148735813098703
8.546652000000002,1.1795825168395877,0.12292463556353922
8.549040000000002,1.251867710841641,0.1312317578569353
8.551424,1.3170303414474307,0.13966096462835453
8.553820000000002,1.3858723083219604,0.14791259295271986
8.556204000000001,1.4530861573602796,0.1561340997711438
8.558584,1.5172288663234126,0.1644132416864641
8.560988000000002,1.5713157455840876,0.17290660291054516
8.563376000000002,1.6177209829410584,0.17268699818747593
8.565756,1.6633820461933546,0.17236219459490454
8.568152000000001,1.702851711609166,0.1722909306506593
8.570540000000001,1.741903964002266,0.17179452262033593
8.572924,1.7781646155739004,0.17098579063796776
8.575327999999999,1.8089327174433512,0.1703326119310431
8.577712000000002,1.8375136229691509,0.16963695473086773
8.580096000000001,1.8603224395390467,0.16914024612307016
8.582491999999998,1.8752645186080046,0.1688444197759352
8.584876000000001,1.8822000905491643,0.16874695405625464
8.58726,1.8801035461462612,0.16920245167033338
8.589656000000002,1.8830821384228302,0.16927615318789752
8.59204,1.8885746881250138,0.16925236104533836
8.59442,1.8967209648796721,0.16910618726860865
8.596827999999999,1.912316566112557,0.16854141782774612
8.599212000000001,1.9294949592112782,0.16791118935164706
8.601596,1.9474647482429175,0.16730507505972309
8.603992000000002,1.9668775595135328,0.16669222202100778
8.606383999999998,1.988292471530565,0.16595572436525827
8.608764,2.013339497988093,0.1648999550053382
8.611160000000002,2.0452314444460336,0.16330204733849088
8.613548000000002,2.0754008294112776,0.1618201859656191
8.615932,2.10678091919002,0.16017005181593205
8.618328000000002,2.135367512289428,0.15872508055826362
8.620716000000002,2.1628831702021962,0.1573734642120847
8.623096,2.1913299936747435,0.1559850398771135
8.625496000000002,2.216424241960515,0.15484368510536112
8.627884000000002,2.240959411738846,0.15379313379642878
8.630264,2.266937603756152,0.152720283562285
8.632660000000001,2.2963609187588516,0.15149398186779747
8.635052000000002,2.3251326074554934,0.15026732549979463
8.637432,2.349900094659301,0.14936628063902435
8.639828000000001,2.3749471211168296,0.1484898895684193
8.642216000000001,2.3970608812681626,0.14777477533487712
8.6446,2.4146585832474643,0.1472574641434088
8.646996000000001,2.4341658381745663,0.1465503809682546
8.649384000000001,2.4472947038100794,0.14610084800682596
8.651768,2.4588407775797565,0.14568817529813008
8.654164000000002,2.4742512832154078,0.14512940298125385
8.656552000000001,2.4837952562386683,0.14483126030547608
8.658932,2.4881243229555965,0.14481173114445445
8.661332000000002,2.489799662620049,0.14487864090122665
8.663720000000001,2.4973415348968935,0.14468930417174033
8.6661,2.5026017671736,0.14463358224519324
8.668496000000001,2.5100038698235836,0.14446665977013562
8.670884000000001,2.517405972473567,0.14430303281594126
8.673268,2.5283004199371866,0.14392667538734158
8.675664000000001,2.5416162770278032,0.14339609080344484
8.678052000000001,2.5545600470660825,0.1428188856704372
8.680436,2.5692736004253014,0.1421050729525645
8.682832000000001,2.5821248226649636,0.14145012361350973
8.685220000000001,2.592042778598431,0.1409175329830588
8.687604,2.5944641882254285,0.14076693314154953
8.690000000000001,2.595395353785207,0.1407321695654037
8.692388000000001,2.5963265193449847,0.14069689414773556
8.694783999999999,2.592973944158209,0.14088755545785564
8.69718,2.5937181182628843,0.1409884125678281
8.699568,2.596184853860256,0.14103948385247853
8.701948000000002,2.5937162224050154,0.14130266426544721
8.704343999999999,2.598464598002524,0.14122488658647808
8.706736,2.6042839087866714,0.14109057702487943
8.709116000000002,2.61447950811599,0.1408274166832743
8.711516,2.620810675579335,0.14072956160862696
8.713904,2.632356749349012,0.1403893029049709
8.716284000000002,2.6369653553196604,0.14033516449084263
8.718684,2.64064279573053,0.14031453854464335
8.721067999999999,2.6439009272608196,0.14035601242933762
8.723452000000002,2.647159058791109,0.14039843113457834
8.725848,2.6532106870007333,0.1403520731395277
8.728235999999999,2.654838804836943,0.14052252454587497
8.730620000000002,2.6589808800987678,0.14064261050109916
8.733016,2.6621917898008145,0.14079234423645226
8.735403999999999,2.6701057491299953,0.14067686146949004
8.737784000000001,2.6848646284595885,0.14020055463356973
8.740179999999999,2.7017653781624587,0.13962524898784734
8.742567999999999,2.720248919731165,0.13901204989176577
8.744952000000001,2.7394313094341722,0.13831194845072747
8.747356,2.753957871338288,0.13776207281897582
8.749744,2.7655511669362087,0.13731684493196814
8.752127999999999,2.7727209521607143,0.13710564377103446
8.754524,2.777748867011943,0.13699401893439206
8.756912,2.7810542203704753,0.13692792564822223
8.759291999999999,2.7862219048485652,0.13680321162826975
8.761692,2.7892477189533778,0.13678038102016812
8.76408,2.799862627163277,0.1364969447051052
8.766459999999999,2.8131312624256504,0.13614905459256668
8.768856,2.8249568754490486,0.13580704541807453
8.771244,2.8302643295539975,0.1356666928786315
8.773624000000002,2.8294257117928368,0.1357813247681205
8.776019999999999,2.8277956980987566,0.13590858297561792
8.778407999999999,2.8264452236583972,0.13599650083384018
8.780792000000002,2.8292387203377323,0.13590568307354742
8.783187999999999,2.831892447390207,0.1358358247555941
8.78558,2.8270496281362125,0.13610401505866077
8.787960000000002,2.817643528881943,0.1366100774528404
8.79036,2.8095879040680325,0.13702887211604506
8.792748,2.7985990129479275,0.1375526583679525
8.795131999999999,2.795618524813489,0.13776099442616158
8.797528,2.7972938644779424,0.1378243152146542
8.799916,2.800691765635092,0.1378472569488039
8.802299999999999,2.8093045730985744,0.13764795114057138
8.804696,2.814192718322943,0.13756390972464813
8.807084,2.8134938701886423,0.13765931920043312
8.809467999999999,2.8086510509346474,0.1379359669595315
8.811864,2.803948001307512,0.13818481365967167
8.814256,2.793797727948568,0.138591837118783
8.816635999999999,2.7833679153359023,0.13903659851057254
8.819032,2.7782455568281867,0.13934966782597494
8.82142,2.7780585653730836,0.13947337114044922
8.823799999999999,2.782667171343732,0.1394254731517236
8.8262,2.7835511150752676,0.13949939549376336
8.828588,2.785226454739721,0.13956183881305825
8.830967999999999,2.78848458627001,0.13960357259340403
8.833364,2.7988199552261888,0.1393697203237411
8.835756,2.81478953936928,0.13885634156979004
8.838135999999999,2.8310386627660926,0.13831495151143422
8.840536,2.851012448402018,0.13766636530132506
8.84292,2.863769226985194,0.13731667761820143
8.845303999999999,2.8761539185160325,0.13693112789996056
8.8477,2.888306292621394,0.1364865519268734
8.850088,2.898968422659536,0.13614996315093955
8.852468000000002,2.915217546056348,0.13565517598447963
8.854868,2.933049461318996,0.13512767197339742
8.857256,2.955444656581919,0.13437550651642083
8.859636000000002,2.9749065855386467,0.13373682808434662
8.862036,2.998744803040546,0.13299098437644855
8.864424,3.0237937253559433,0.13218665754096426
8.866804000000002,3.0524747621118378,0.13122496979259787
8.869204,3.08236650368123,0.13023400601414029
8.871592,3.1110475404371236,0.12932848945322525
8.873971999999998,3.1482488368578827,0.12820264678415783
8.876372,3.178792204733333,0.12725797749675627
8.87876,3.2048195144367524,0.12642149598192143
8.881139999999998,3.2245609826472004,0.12581834865071923
8.88354,3.241601501976931,0.1253668741322099
8.885928,3.259293647612719,0.12493456553577763
8.888307999999999,3.2743320661960325,0.12456199708814597
8.890708,3.295237017391736,0.12402614966832035
8.893096,3.3143721852665,0.12361069465638796
8.895475999999999,3.33495037538024,0.1232070055865214
8.897872,3.3531543776952253,0.12282274284349085
8.90026,3.3679132570248185,0.12249752521827115
8.902643999999999,3.3877472730338836,0.12202515959802038
8.90504,3.4090243112819247,0.1215705581820802
8.907428,3.4313722847166046,0.12108405189336545
8.909811999999999,3.4532084014720867,0.12057945788146496
8.912208,3.474764978973848,0.12010993141920205
8.914596,3.493900146848612,0.11975580709218522
8.916992,3.506889242857265,0.11957373080562415
8.919388000000001,3.5120097055071113,0.11958437495448132
8.921776000000001,3.5114034051714276,0.11972436730230596
8.92416,3.520528069314107,0.11963417364047926
8.926556000000001,3.531654834203204,0.1194908925391333
8.928944000000001,3.547344879092575,0.11918553844893301
8.931328,3.565735872862665,0.1187597743933935
8.933724000000002,3.5811936003265585,0.11840552250159282
8.936112000000001,3.597582493350231,0.11803605983133379
8.938496,3.6085241626420936,0.11776600742569386
8.940892000000002,3.6209560760011756,0.11742144932988678
8.943280000000001,3.632317054173618,0.11711274845987248
8.94566,3.6452608242118973,0.11679619553342954
8.948056000000001,3.6600669253697333,0.11644514986359898
8.950444000000001,3.670077429101818,0.11620118477739125
8.952828,3.677154666527707,0.11602557856951506
8.95522,3.679948163207042,0.11597307325861365
8.957608,3.682881429513237,0.11590776699271464
8.959992,3.683952364699876,0.11587676036005472
8.962388,3.681950263953459,0.11592502010220829
8.964780000000001,3.6830211991400983,0.11589354334803488
8.96716,3.6953133428723195,0.11556883803768415
8.969556,3.702670119551929,0.11535573608466725
8.971944,3.70322919805937,0.11530012552921176
8.974328,3.7035087373130895,0.11527232030073954
8.976724,3.699224996566536,0.11539898619756891
8.979112,3.69545311249918,0.11554621001562491
8.981496,3.6935435595513795,0.11565926832347286
8.983899999999998,3.6894921362303026,0.11583425594183999
8.986288000000002,3.685021404028645,0.11605361948998187
8.988668,3.6817613766404866,0.11622503780357658
8.991067999999999,3.6777099533194098,0.1163995923786769
8.993456000000002,3.6750090044386923,0.11651456596240785
8.995836,3.6703059548115573,0.11667664277320972
8.998232000000002,3.6657426748112827,0.11682613719034224
9.000620000000001,3.661598703691589,0.11693465697338794
9.003004,3.662949178131947,0.11687676589113917
9.005400000000002,3.660155681452612,0.11692824403041178
9.007791999999998,3.658852428840496,0.11690771649989802
9.010172,3.6568975499223226,0.1168770921697767
9.012568000000002,3.653871735817511,0.11687810429866423
9.01496,3.6459105546600865,0.11699048734148974
9.017344,3.648891042794525,0.11684777760941717
9.01974,3.6529424661156016,0.11667412882922576
9.022128,3.658344363877037,0.11644369292694642
9.024508,3.6701718727583046,0.11603352583904372
9.026904000000002,3.6764123882809017,0.11572363971326542
9.029296,3.6802787160047434,0.11542258279347706
9.03168,3.687218079661642,0.11504550137727637
9.034076,3.696718622572397,0.11456476732107225
9.036464,3.7008644895499603,0.11423514433565217
9.038848000000002,3.703148025407968,0.11393741965768894
9.041244,3.7014273597731413,0.1137349338933275
9.043636,3.7026399604445093,0.1134690291719671
9.046016000000002,3.7054353529817132,0.11319682548969731
9.048412,3.710744702944532,0.11290507933302403
9.0508,3.713772412907213,0.11268854801744502
9.053184000000002,3.7195936195492294,0.11242015974352523
9.05558,3.724855747683805,0.11220632987710184
9.057964000000002,3.736263947684491,0.11184499783520543
9.060348,3.7519558884317314,0.11137066714582698
9.062744,3.7679273684326926,0.11087273908605774
9.065131999999998,3.773888344701569,0.11060060869726232
9.067516,3.780640716903363,0.11032739718453463
9.069912,3.7871135498514374,0.11008272231688992
9.072299999999998,3.7885112461200396,0.10995418783428071
9.074684,3.7937733742546156,0.10975238181550412
9.07708,3.801689229441666,0.1095188539250751
9.079468,3.8065320486956606,0.10935647939640973
9.081852,3.8145404516813284,0.10918987714921066
9.084248,3.828555156906247,0.10889749859981385
9.086636,3.845223589183639,0.1085720885273973
9.08902,3.8648252877672276,0.10818885048554851
9.091416,3.8853581519105935,0.10780105226589987
9.093804,3.9063103249345406,0.10737964424962528
9.096188,3.921535734972957,0.10705513451020036
9.098584,3.93862347613093,0.1067051812935108
9.100972,3.958924022848819,0.1062814570755678
9.103352,3.9812266703131245,0.105820446649698
9.105752,4.000036972963794,0.10547181177304721
9.10814,4.016705405241187,0.10518130644497051
9.11052,4.035608255690475,0.10490491638408483
9.11292,4.061588343565651,0.10449011321963374
9.115308,4.08570610032127,0.10410095645114259
9.117692000000002,4.10996362670375,0.1037040218491056
9.120088,4.137154419392425,0.10325993384197138
9.122476,4.164205442454238,0.10283216418769603
9.124860000000002,4.195120897382027,0.1023576196566301
9.12726,4.2272470571233125,0.10184575185619267
9.129648,4.256999029065845,0.10134631679579345
9.132028000000002,4.283817734702183,0.10089983504371876
9.134424,4.313057849965517,0.10039411649632016
9.136812,4.342297965228852,0.09989392651191256
9.139196000000002,4.367673648626213,0.0994537806089049
9.141592,4.38997629609052,0.09906895187675209
9.14398,4.4193561809807145,0.09856584653313358
9.146364000000002,4.447944669937991,0.09806891064748578
9.14876,4.474531058148852,0.09761346602539614
9.151148,4.501396985613431,0.09714442697034437
9.153528,4.526680121212175,0.09667463273245337
9.155924,4.5539653575573364,0.09618244129490905
9.158312,4.575523830916968,0.09575938089476191
9.160696000000002,4.595871599463099,0.09537502470527458
9.163092,4.618221468755649,0.09496112172389197
9.16548,4.637358532488283,0.09460638211099281
9.167864000000002,4.655564430661138,0.09426583007584861
9.170268,4.674841264020631,0.09390911032156701
9.172656,4.686249464021317,0.09366150283125455
9.175036,4.6965867288353635,0.09343319066120365
9.177436,4.704642353649274,0.09325474270175986
9.179824,4.712697978463185,0.0930762947423161
9.182204,4.7195428984635965,0.09293067022240452
9.184604,4.728250149583565,0.09276922193895812
9.186992,4.7389595014499495,0.09258016504703201
9.189376,4.7555353859287255,0.09231998544689415
9.191772,4.76596519854139,0.09215409221967044
9.194164,4.772390809661221,0.09204205262449013
9.196544,4.777885255221274,0.09193935626029641
9.19894,4.780446434475133,0.09187295640767044
9.201328,4.782728074475271,0.09182599741449554
9.203712,4.780865743355714,0.09184308827975217
9.206108,4.78449785779621,0.09175833465941126
9.208496,4.786547180370869,0.09167148802279039
