Time,Force,Position
9.278736,0.19121708861990194,0.0
9.281119999999998,0.21402400933192844,0.0
9.283516,0.23915789601446613,0.0
9.285904,0.2683413101602114,0.0
9.288284,0.3027849565826631,0.0
9.290679999999998,0.3414179000951825,0.0075668107984984
9.293067999999998,0.3805154784586565,0.015260290528976126
9.295448,0.41872721723272616,0.02347995014908494
9.297843999999998,0.46005731791022497,0.03190732850362323
9.300231999999998,0.5106518523572638,0.03977668141910956
9.302612,0.563573352774814,0.047782046509205485
9.305008,0.6165401791627381,0.0560539720809943
9.307396,0.6749070074542286,0.06434716172494406
9.30978,0.7288031035440617,0.07311896791822574
9.312176,0.7812089555666757,0.0819347601485022
9.314564,0.8335222597906725,0.0905196373385226
9.316944,0.8892353610296884,0.09860876881706997
9.319347999999998,0.9382452077530218,0.10669241800615129
9.321735999999998,0.9834850662668682,0.11473512242744874
9.324116,1.0265377284370634,0.1227778268487462
9.326512,1.0687064468757237,0.1309025865722741
9.3289,1.1129717097172869,0.13871892655720552
9.33128,1.1589142080811725,0.1462941806059527
9.333683999999998,1.1988050782354338,0.1540408332506838
9.336071999999998,1.2322250112994901,0.1619358708502021
9.338452,1.2591740072733413,0.16249381977523158
9.340847999999998,1.2825853324631826,0.1630453896079768
9.343236,1.308744828361985,0.16280008568763502
9.345616,1.3335085238500546,0.16231402027140845
9.348012,1.3535238437406152,0.16221562804462317
9.350396,1.3710724280338047,0.16201888269009668
9.352776,1.3910896437822347,0.1612970094128511
9.35518,1.409990598373652,0.1603650299718781
9.357568,1.4297773925544743,0.15892030845813562
9.359944,1.446678142257344,0.15752411592183735
9.36234,1.4565016545343257,0.15679285197013682
9.364728,1.459247929385417,0.15677463713772263
9.367124,1.46050396016929,0.1569924225983395
9.369519999999998,1.460549286139664,0.15737174980573582
9.371904,1.4584527417367605,0.15800379723624358
9.374284,1.46157110364019,0.1580678824479992
9.37668,1.4627799125958196,0.1584839717279507
9.379064,1.4601242896854754,0.15921686933391618
9.38146,1.4613330986411048,0.1596288393841083
9.383852,1.4634730731565126,0.15997013026664558
9.38624,1.4706881843513933,0.15983034043044736
9.38862,1.4819074970391068,0.15933752200597387
9.391023999999998,1.491264478607264,0.15901849660628284
9.393408,1.5007612298022812,0.15867222384485458
9.395788,1.506533318758185,0.15859127225531844
9.39818,1.5141677388336459,0.15838626047732485
9.400568,1.5180774966699933,0.15843981614035746
9.402964,1.5184949096927047,0.15884571522420526
9.405359999999998,1.5202155753275317,0.15926601805402965
9.407744,1.5230071761489974,0.15959380586941505
9.410124,1.5323641577171547,0.15930270003581262
9.412527999999998,1.54265230484509,0.15891906522662236
9.414915999999998,1.556804883838999,0.1582213717065243
9.417296,1.5728197939524642,0.15737876964342154
9.4197,1.5937700711185416,0.1561193042103737
9.422083999999998,1.6087140460453688,0.155430891854359
9.424464,1.6239375602259163,0.15467620903383267
9.426868,1.6396729310856613,0.15394024230880426
9.429251999999998,1.6534062011989896,0.15338548554086426
9.431632,1.668629715379537,0.15263568584272794
9.434027999999998,1.6797092584403905,0.1522545818823815
9.436412,1.6866448303815502,0.1522268525315755
9.438796,1.6903675967627942,0.1524805283902034
9.441192,1.6948817590769563,0.1527075856162408
9.44358,1.6992561517642581,0.15296576359857822
9.44596,1.7040498533321407,0.15312595976230997
9.448356,1.7104263467658598,0.15323622576092918
9.450744,1.720667272065552,0.15308076369614088
9.453128,1.7337489158728223,0.1526239520521432
9.455524,1.7466907900532325,0.1521958883905198
9.457912,1.7582821897932837,0.15193336017457476
9.460307999999998,1.7760196613994454,0.15126496684423685
9.462704,1.7951076074459664,0.15050373306668843
9.465087999999998,1.813264387932709,0.1497925496176552
9.467472,1.828627671740117,0.1492455093154555
9.469867999999998,1.844922121107303,0.14863913119887864
9.472255999999998,1.8573521386085157,0.14823389064275014
9.474636,1.872203565736726,0.1476227847683264
9.47704,1.8881259280515743,0.14693885151433758
9.479428,1.9025580462992038,0.14642422255435264
9.481808,1.921925531599445,0.14563260690341415
9.484208,1.9439467439521612,0.14471815340101774
9.486591999999998,1.967830287424434,0.14366852308121852
9.488976,1.991062204590649,0.14264318488642008
9.491371999999998,2.0164359921301407,0.14145447881923268
9.493755999999998,2.0381776652291363,0.14058555455450109
9.49614,2.058336546462296,0.13976656045488192
9.498544,2.075050304710062,0.13908876162253242
9.500927999999998,2.0851986822111375,0.13888873716072675
9.503311999999998,2.0952072900853524,0.1387114414500352
9.505712,2.1042847323997895,0.1385793317922167
9.5081,2.109078433967672,0.1387376067805736
9.510479999999998,2.106515358855945,0.1393555695618972
9.512876,2.103952283744218,0.13997504098136052
9.515263999999998,2.1013892086324915,0.1405945124008238
9.517644,2.1006884646403208,0.14112271106699986
9.520039999999998,2.105854253260541,0.1413394197103151
9.522427999999998,2.1098093370672624,0.1416503663110458
9.524808,2.1157665216204005,0.14185284944635734
9.527212,2.122794641360177,0.14198795841304696
9.5296,2.127029264420619,0.14224319397351454
9.53198,2.1279585341225276,0.14258035220302467
9.53438,2.1350338756905476,0.14259024079879207
9.536768,2.1378254765120133,0.1428461869890984
9.539148,2.1386149765870623,0.14320292532431586
9.541552,2.1419656559159685,0.14336075086616865
9.54394,2.1421035296849595,0.143712878928274
9.546319999999998,2.1441037345735072,0.14398478635424333
9.548716,2.145312543529137,0.14427729805297201
9.551104,2.146800891738487,0.14451833301821224
9.553484,2.1493601751344746,0.14469027053993086
9.555888,2.149405501104849,0.1449401901390792
9.558276,2.155736668568194,0.1447940775053369
9.560655999999998,2.1622076056583985,0.14462071746894894
9.563052,2.1704011042413,0.14438850852319782
9.56544,2.1747301709582287,0.14435716095560275
9.567819999999998,2.178128072115378,0.14437346322658734
9.57022,2.1785927069663322,0.1445437092509989
9.572603999999998,2.173982205137815,0.1450059200318827
9.574987999999998,2.167649141816601,0.14553011951538608
9.577388,2.15931397774897,0.14616838017549866
9.579776,2.1537723103606736,0.14667918632022214
9.582159999999998,2.1394308440537917,0.14764160894367795
9.584556,2.131514988866742,0.1481933796061117
9.586944,2.1268119392396074,0.1485378169639854
9.589323999999998,2.1190358536794176,0.1490629272944418
9.591728,2.11661444405242,0.14925064340395086
9.594116,2.1161951351718393,0.1493253682321971
9.596495999999998,2.123784229276926,0.14897548838988156
9.598892,2.134306589688208,0.14849182243502776
9.60128,2.146831050845907,0.14792417587403656
9.603659999999998,2.1621490086829405,0.14723552703818246
9.606064,2.177466966519974,0.1465721733822503
9.608448,2.194926794730285,0.1458031683201706
9.610831999999998,2.212805931821176,0.14499092292251997
9.613228,2.2328269392853444,0.14404328055386642
9.615612,2.2497749108164578,0.143252428370512
9.617995999999998,2.2719377886539034,0.1421949820931645
9.6204,2.2951716016779877,0.14104456483431269
9.622788,2.3204075154484882,0.13979818196324056
9.625172,2.345643429218989,0.1385266447969536
9.627568,2.3727416741090472,0.13721653420769298
9.629956,2.4057064516114948,0.13563070736527386
9.632336,2.434387488367389,0.13431861699337222
9.634736,2.461718050682924,0.13314255792567412
9.637124,2.494123749677931,0.131731778132171
9.639504,2.523316643113022,0.13050903092712612
9.6419,2.5495762702419182,0.1294405271063693
9.644288,2.567827494385148,0.12873887908073284
9.646667999999998,2.5822142866624036,0.1281989152533773
9.649068,2.58952384151377,0.12796352421054255
9.651456,2.5965538571114157,0.12777274275014666
9.653835999999998,2.6054462038286186,0.12753207195713256
9.656232,2.6112655146127652,0.12742563122466083
9.65862,2.6128010846503584,0.12752037690067286
9.661003999999998,2.6160592161806484,0.1275760817499271
9.663408,2.622018296591656,0.12745198805610525
9.665796,2.6230420099500513,0.1275149557671616
9.668176,2.626347363308584,0.12745998582654522
9.670576,2.630444112600034,0.1273986583089703
9.67296,2.639755768197818,0.12712463956964948
9.675344,2.644551365623569,0.1269696868932394
9.67774,2.645202991929627,0.12698146153615025
9.680124,2.64864811491502,0.12691284053005414
9.682503999999998,2.6492997412210775,0.1269244512912323
9.6849,2.64659879234036,0.1270923586415285
9.687288,2.6500439153257527,0.12702711600450653
9.68968,2.6504160023780905,0.12707691784510272
9.692083999999998,2.6590760316698154,0.126806108174911
9.694471999999998,2.668667226521319,0.12650740041897665
9.696852,2.6856151980524317,0.12590713786615634
9.699248,2.7003287514116505,0.12530660787596024
9.701636,2.7090360025316187,0.12492667404176672
9.704016,2.719326045517424,0.12453036421611297
9.706419999999998,2.7360416996230597,0.12387124666472707
9.708804,2.75145410111658,0.12319907686052047
9.711184,2.7669590504087176,0.12262621267385193
9.71358,2.7892616978730236,0.12185841748882868
9.715968,2.812495510897107,0.12108716533490377
9.718348,2.832935827241856,0.12039113292901911
9.720752,2.8470903020936342,0.11993113738855495
9.72314,2.863898503997887,0.11941818592353345
9.72552,2.8824764892230794,0.11877503632425164
9.727916,2.8994716825824356,0.11814945357186483
9.7303,2.9204710774346263,0.11739688519598362
9.732684,2.9438918819138133,0.11653666867144215
9.73508,2.958233348220695,0.11597184285837286
9.737464,2.97671878564727,0.1152565944160636
9.739843999999998,2.986776511207598,0.1148500396141433
9.742252,2.9968342367679255,0.114443484812223
9.744636,3.0063328838208117,0.11411819742296951
9.747016,3.021278754605508,0.11369045322429963
9.74942,3.0365041646439246,0.11321679226943733
9.751808,3.0521488835629222,0.11269629026054329
9.754188,3.061088452108368,0.1124415458679201
9.756591999999998,3.0705398773330113,0.11221953556439142
9.758979999999998,3.0776171147589007,0.11200981606150498
9.76136,3.0776171147589,0.11200981606150497
9.763763999999998,3.076126870691681,0.11209457522641117
9.766151999999998,3.076498957744019,0.1121399119361712
9.768532,3.077010814423217,0.11216916595399726
9.770927999999998,3.0773829014755543,0.11221473424658665
9.773315999999998,3.0786389322594268,0.11233444812598939
9.775696,3.0808261286030776,0.11243425852951307
9.778092,3.079009123453895,0.11264510495416935
9.780476,3.0758416438643534,0.11292088593816317
9.782856,3.080542797633619,0.11299442201856431
9.78526,3.0861751169626626,0.113049729283925
9.787648,3.097162112224899,0.11292977316836512
9.790024,3.1109426041664707,0.1127566302940979
9.79242,3.1203468075628713,0.11264648046757218
9.794808,3.123604939093161,0.11271037691020323
9.797204,3.1316586680492025,0.11266733146218955
9.799599999999998,3.140503792938161,0.11262386702236651
9.801987999999998,3.1509789315212,0.11248074798570198
9.804368,3.162105696410297,0.11235222579545977
9.806772,3.1748152531652294,0.11221815706363662
9.80916,3.1916687810398567,0.11196357195681308
9.81154,3.2088018481682035,0.11167965873895801
9.813948,3.2288681816027456,0.11133702630863293
9.816332,3.2507968461568444,0.11095186893559293
9.818711999999998,3.274075985151303,0.11051147760051369
9.821116,3.294701397093286,0.1101058648434293
9.823504,3.315047269781549,0.10973488979595371
9.825884,3.3383264087760067,0.10929195986300155
9.828288,3.360022755904629,0.10885449973634445
9.830676,3.3766439663537784,0.1085557774707707
9.833056,3.3931254071760675,0.10827940226524423
9.835456,3.406254272811581,0.10811424775587375
9.837844,3.4145875410213424,0.10804846342210839
9.840224,3.42436383147008,0.10799117875578165
9.84262,3.439634567478871,0.10776124377922529
9.845004,3.451972037181466,0.10760089104067695
9.847388,3.4605848446449485,0.10750720394316261
9.849784,3.4719911487877653,0.10736556617172938
9.852168,3.4810232651318285,0.10723030965461455
9.854551999999998,3.489403755169833,0.10708340843716709
9.856956,3.4936402740881443,0.10704478976935344
9.85934,3.4980165626333153,0.10699267877438727
9.861719999999998,3.4945242178196794,0.10711274659628249
9.864124,3.492242577819542,0.10718770984035637
9.866512,3.488750233005906,0.10730547183750469
9.868896,3.487819067446128,0.10732117715118754
9.871292,3.486236275580292,0.10732432962369223
9.87368,3.4857244189010936,0.10729794799358183
9.87606,3.4849330229681756,0.10729945259538695
9.878456,3.4857716407293373,0.10721531446470701
9.880844,3.4848876969978018,0.10714849144822342
9.883223999999998,3.486285393266404,0.10700912567347548
9.885628,3.4927582262144785,0.10675233569153832
9.888012,3.4996503680431332,0.10645348073003583
9.890396,3.503329704311873,0.1062450707073849
9.892792,3.503936004647558,0.10610760975381389
9.89518,3.508546506476075,0.10588190215508299
9.89756,3.5102237419983977,0.10571621334742058
9.899956,3.512692373453638,0.10554890542950149
9.902344,3.517023336028436,0.10535331570035449
9.904723999999998,3.52363593860337,0.10508446758404934
9.90712,3.5281066708050277,0.10487340216312645
9.909508,3.5367213741263788,0.10455525859379124
9.911887999999998,3.5464070126343685,0.10421320696195363
9.914284,3.554230320022802,0.10390131581009565
9.916671999999998,3.5607031529708757,0.10364806984664558
9.919052,3.56717598591895,0.10339552693525314
9.921447999999998,3.5736488188670243,0.10314735359809972
9.923835999999998,3.580121651815099,0.1028966653950055
9.926216,3.5858956366288726,0.10271464453544292
9.92862,3.5905986862560075,0.10256049071653885
9.931008,3.597303836629559,0.10236755452924819
9.933388,3.6009359510700554,0.10224585913224901
9.935783999999998,3.6056390006971903,0.10209818765349944
9.938171999999998,3.609410884764547,0.1019637103382951
9.940552,3.6194686103248745,0.10168046546070449
9.942951999999998,3.627104926258204,0.10147959421119385
9.945339999999998,3.6375347388708685,0.10123893111672391
9.94772,3.648104321110394,0.10098553686470733
9.950115999999998,3.6545299322302247,0.10082537538505944
9.952503999999998,3.663888809656251,0.10061532964679738
9.9549,3.6735272263359975,0.10037726765783923
9.957296,3.687309614135438,0.1000546035128914
9.959684,3.69988129712138,0.09977523954953468
9.962068,3.712313210480462,0.09950598208546393
9.964464,3.724465584585823,0.09926149529720794
9.966852,3.734476088317907,0.09906691365777637
9.969231999999998,3.741693095370656,0.09891254976520017
9.971636,3.7530540735430993,0.098670474015834
9.974024,3.764974130222984,0.09837700018944658
9.976404,3.777825352462646,0.09806960411481931
9.9788,3.7877433083961134,0.09781761268232114
9.981188,3.794867767650246,0.09760066029420347
9.983572,3.802504083583576,0.09741212575046006
9.985968,3.811351104330405,0.097185633437617
9.988356,3.81591438433068,0.09706101154424918
9.990735999999998,3.8231786132116725,0.09683829618324616
9.993136,3.8305826117195245,0.09660654219457368
9.995524,3.839988710973794,0.09634190770665861
9.997903999999998,3.8539580902283386,0.09595817144684121
10.0003,3.865925368736465,0.09561599612483339
10.002688,3.8788238128043706,0.0952624742124401
10.005067999999998,3.8854364153793055,0.095039013874571
10.007464,3.889255521274905,0.09484777031444219
10.009852,3.8953562671706417,0.09459855803462806
10.012232,3.9021558612006797,0.09428921216796105
10.014627999999998,3.9138908222833297,0.09390222100642383
10.017015999999998,3.9284192800453144,0.09348504478253117
10.0194,3.9389435363144654,0.093138192807136
10.021795999999998,3.9491882533298965,0.09281603972830733
10.024183999999998,3.959432970345327,0.09249388664947866
10.02658,3.965533716241064,0.09224633298368672
10.028976,3.9785719299358293,0.09188998322334166
10.031364,3.98895641657812,0.09155421790236418
10.033748,3.9987818247129696,0.09126631152466311
10.036144,4.009678168034458,0.09095435322079316
10.038528,4.019084267288728,0.09070513146055104
10.040912,4.025557100236803,0.09049990128150086
10.043308,4.026954796505405,0.0903814417895363
10.045696,4.024860147960371,0.09035300630813034
10.04808,4.022625729788476,0.09033626548890557
10.050476,4.019180606803085,0.09035313716856169
10.05286,4.0194601460568045,0.09032960357532717
10.055243999999998,4.025466448296055,0.09023431185250795
10.057648,4.032403916095085,0.0901311618157303
10.060036,4.040784406133088,0.09004478895032388
10.062416,4.0454402339319815,0.08999754716021577
10.064812,4.048233730611316,0.08996963427615962
10.0672,4.05810446471654,0.08983503766812925
10.069584,4.071979400314597,0.08964577712617293
10.07198,4.088135975912793,0.08940892525166329
10.074368,4.112440724123514,0.0890482400651229
10.076747999999998,4.1344638323341005,0.08874661381998802
10.079144,4.158768580544824,0.08839792941378716
10.081536,4.184423803195905,0.08800905939858417
10.083916,4.2122208962202645,0.08758648649404677
10.086316,4.2380158884982055,0.08719030785339472
10.088704,4.265952751149425,0.08675783234455901
10.091084,4.300547542345952,0.08625766097634463
10.093488,4.337144434288897,0.08572910574545219
10.095876,4.370947829552505,0.08522371790877285
10.098256,4.409826361495586,0.08465128991269626
10.100656,4.445259770453275,0.08409040310075236
10.10304,4.474966416425433,0.08359345045246341
10.105424,4.501460256837675,0.0831546335868393
10.10782,4.525160600570583,0.08274097603464252
10.110208,4.548721174676631,0.08233597316281183
10.112588,4.570000108782541,0.08197559643857122
10.114984,4.581920165462425,0.08176366336022627
10.117372,4.591698351769033,0.08159218775267837
10.119756,4.597984193262003,0.08149563014949311
10.122152,4.598123962888863,0.08148537859176756
10.12454,4.595330466209529,0.08150751800210936
10.126924,4.591186495089835,0.08156721289136294
10.129328,4.590255329530057,0.08157422900281522
10.131716,4.587182293597001,0.0816149480036019
10.134096,4.586390897664083,0.08161185791102983
10.136492,4.585459732104305,0.08161862693161816
10.13888,4.580152277999356,0.08163881011276723
10.14126,4.573913658334629,0.08166549589705252
10.143656,4.570468535349236,0.08167238948405146
10.146044,4.56329875012473,0.08170455353242366
10.148424,4.561995497512614,0.08167852577301354
10.15082,4.563765280833554,0.08161417707292393
10.153208,4.5667457689679924,0.08152395717916225
10.155592,4.5727992930354855,0.08139601776708233
10.157988,4.579644213035897,0.08127095997664152
10.160376,4.590912643409723,0.08107244264825576
10.16276,4.604602483410546,0.08081903624798516
10.165156,4.614567661172257,0.08059145197643709
10.167544,4.628956349307381,0.08029106767768744
10.169928,4.645486907815783,0.07995658315620306
10.172324,4.6633679407645445,0.0795857369810085
10.174712,4.6821801392730835,0.07920943149849755
10.177108,4.69577743147529,0.07890835437238443
10.179503999999998,4.71379823405091,0.07853997595016277
10.181891999999998,4.728606231066616,0.07821816139541617
10.184272,4.740341192149265,0.07793301491606672
10.186668,4.753798714724612,0.0776464019083423
10.189056,4.770608812486733,0.07730769542980374
10.19144,4.787977988756296,0.07693461842549791
10.193836,4.80427622983922,0.07657715758584967
10.196224,4.813357463869396,0.07630781782488456
10.198604,4.8252321945789065,0.07602622572307455
10.201003999999998,4.838038090848196,0.0757405184827526
10.203392,4.846979555251511,0.07548644752279358
10.205772,4.860484299655099,0.07515991705713404
10.208168,4.873849274431829,0.07484719780573011
10.210556,4.887354018835419,0.0745249401758449
10.21294,4.902069468052507,0.07417780585177484
10.215336,4.9138516509634,0.07385864309082349
10.217724,4.9265649994340714,0.07353598803468298
10.220104,4.939929974210801,0.07322792523885738
10.2225,4.954785193054749,0.07288295121579952
10.224888,4.968429707085198,0.07255758166817006
10.227272,4.976579775555595,0.07231220444592051
10.229668,4.987942649585909,0.07202596973657538
10.232056,5.003449494735915,0.07169490508638902
10.23444,5.019096109512781,0.07135759481340695
10.236836,5.0304589835430935,0.07107613426558135
10.239224,5.043264879812384,0.0708161637910194
10.241608,5.056862172014589,0.07056038646321192
10.244004,5.075814140149989,0.07023934829482223
10.246392,5.089039345299857,0.06995476042255686
10.248772,5.104406420823004,0.06964859062387645
10.251172,5.123498158585263,0.06932705617630489
