Time,Force,Position
7.837816,0.01040654124233261,0.0
7.840211999999999,0.0168353030193126,0.0
7.842599999999999,0.025126395915849233,0.0
7.84498,0.03448842399902439,0.0
7.847376000000001,0.045852552828616396,0.0
7.849764,0.05907901277776505,0.0
7.85216,0.07123453754027517,0.0
7.854556,0.08352983192964551,0.0
7.856944,0.09782722706543269,0.0
7.859323999999999,0.10611831996196931,0.0
7.86172,0.11333847767186742,0.0
7.864108,0.11855653463534865,0.0
7.866491999999999,0.12456598753174804,0.0
7.868888,0.12778194374881244,0.0
7.871271999999999,0.1307152100550076,0.0
7.873656,0.13243777154770403,0.0
7.876059999999999,0.13416033304040048,0.0
7.878444,0.1341603330404005,0.0
7.880824,0.13374102415981987,0.0
7.88322,0.13588289453309693,0.0
7.885607999999999,0.14067849195884877,0.0
7.887988,0.1397473263990704,0.0
7.890383999999999,0.13495172897331859,0.0
7.892771999999999,0.13015613154756678,0.0
7.895168,0.12522076449495473,0.0
7.89756,0.11548980001659089,0.0
7.899948,0.10897164109814264,0.0
7.902327999999999,0.10124277736619566,0.0
7.904724,0.09151181288783183,0.0
7.907112,0.09086018658177392,0.0
7.909492,0.09328159620877141,0.0
7.911887999999999,0.09998674658232301,0.0
7.914275999999999,0.10417793953026007,0.0
7.916672,0.11209379471731043,0.0
7.919067999999999,0.11521405247860897,0.0
7.921455999999999,0.12019664135946415,0.0
7.923836,0.12382875579996036,0.0
7.92624,0.12317712949390244,0.0
7.928628,0.12359643837448309,0.0
7.931008,0.12131479837434582,0.0
7.933412000000001,0.11595697178400438,0.0
7.935796,0.11045937556680269,0.0
7.938176,0.10817773556666543,0.0
7.940576,0.10589609556652817,0.0
7.942959999999999,0.10189189407369445,0.0
7.945344,0.10589609556652815,0.0
7.94774,0.10561655631280772,0.0
7.950123999999999,0.10654772187258604,0.0
7.952503999999999,0.10747888743236438,0.0
7.954903999999999,0.10640795224572584,0.0
7.957288,0.1013328155662536,0.0
7.959671999999999,0.09784047075261758,0.0
7.962068,0.09900395373787317,0.0
7.964452,0.09937604079021066,0.0
7.966835999999999,0.10775653082821554,0.0
7.969232,0.11562516418702273,0.0
7.97162,0.12084007049335518,0.0
7.974015999999999,0.1331322142255767,0.0
7.976419999999999,0.14328248758452117,0.0
7.978804,0.15878743687665828,0.0
7.981183999999999,0.17471484570652487,0.0
7.983587999999999,0.18943154972289264,0.0
7.985975999999999,0.19972159270869735,0.0
7.988356,0.20786976532122498,0.0
7.990752,0.2117341971871985,0.0
7.99314,0.20745045644064433,0.0
7.995519999999999,0.2071709171869239,0.0
7.997916,0.20675160830634323,0.0
8.000304,0.20419042905248555,0.0
8.002684,0.19841644423871227,0.0
8.00508,0.19557572573113416,0.0
8.007464,0.18714486320773732,0.0
8.009844,0.1757807343781453,0.0
8.012248,0.16427683592169307,0.0
8.014636,0.14969990153218546,0.0
8.017016,0.13484342788895748,0.0
8.019411999999999,0.12292022055192464,0.0
8.021799999999999,0.1080637469086966,0.0
8.024192,0.09441797807896732,0.0
8.026588,0.07769917331618266,0.0
8.028976,0.06256631107638301,0.0
8.031356,0.04971508883672065,0.0
8.033752,0.04300993846316904,0.0
8.03614,0.03737572327625597,0.0
8.03852,0.03788757995545366,0.0
8.040916,0.04240363812748505,0.0
8.0433,0.04212409887376462,0.0
8.045696,0.04463805629937916,0.0
8.048092,0.049154114471410555,0.0
8.05048,0.05581204301671901,0.0
8.052864,0.05953670525583228,0.0
8.05526,0.06098287815195711,0.0
8.057648,0.060982878151957104,0.0
8.060027999999999,0.06242905104808193,0.0
8.062424,0.06242905104808192,0.0
8.064812,0.06242905104808192,0.0
8.067196,0.06242905104808192,0.0
8.069592,0.062429051048081934,0.0
8.071976,0.062429051048081934,0.0
8.07436,0.062429051048081934,0.0
8.076756,0.061634504458015014,0.0
8.079144,0.059769022681309576,0.0
8.081524,0.054970274598408954,0.0
8.083919999999999,0.050171526515508345,0.0
8.086307999999999,0.04337067768619088,0.0
8.088704,0.035638663297095086,0.0
8.091099999999999,0.03181576568575702,0.0
8.093487999999999,0.026874711059537273,0.0
8.095868,0.024819700911269532,0.0
8.098264,0.02630236154701171,0.0
8.100655999999999,0.032905484832600036,0.0
8.103036,0.053848178567200665,0.0
8.105432,0.0796349463550758,0.0
8.107816,0.10672181609791795,0.0
8.110199999999999,0.14186556545395018,0.0
8.112596,0.1793362807804936,0.0
8.114984,0.22020489726418674,0.0
8.117364,0.266193976397726,0.008873475952843367
8.11976,0.31679166150191373,0.017439911612225106
8.122148,0.3698560822034729,0.02606625825729092
8.124544,0.4260388648084613,0.03474708057475239
8.12694,0.4845486133839609,0.043527356415694406
8.129328,0.551159312743745,0.051592817095079846
8.131708,0.6196323432230856,0.05950413540335012
8.134103999999999,0.6870344385157878,0.06753337634880087
8.136492,0.7513634978754348,0.07589516703058563
8.138876,0.8144371675097983,0.0843468078660866
8.141271999999999,0.8756957278528488,0.09284366852977151
8.14366,0.9359305748375037,0.10121160341981537
8.14604,0.9952814780906236,0.10937746823189978
8.148436,1.053655889813591,0.11730987912759502
8.150824,1.099553062207103,0.12547574393967942
8.153208,1.1448458301228002,0.13341492787427792
8.155604,1.18990628061302,0.14122037151778122
8.157992,1.226074384386037,0.14928480948318473
8.160371999999999,1.2629885581215987,0.15706019985159897
8.162772,1.298227392192707,0.16474073853866752
8.16516,1.3291371595468875,0.16352001593726648
8.167539999999999,1.358231817609754,0.16242213781101145
8.169936,1.3877930063814445,0.1610596055351335
8.172324,1.4162379339961226,0.15950333315150475
8.174707999999999,1.4423558956402893,0.1578476072443955
8.177104,1.459162201686673,0.1570243002869496
8.179492,1.471964306240223,0.15653308928812934
8.181887999999999,1.4866287419133297,0.15590043137367846
8.184284,1.5070199405719662,0.15480277768476966
8.186672,1.527271369603743,0.15371221264276885
8.189055999999999,1.5473830290086594,0.1526415911653607
8.191452,1.565632357294019,0.15173264002788514
8.193836,1.5782946922207086,0.1512343974552673
8.19622,1.5886753871472612,0.15100401609975347
8.198624,1.599987247633592,0.1506722108591957
8.201012,1.6095765466272263,0.1504695829960637
8.203392,1.6126476867024124,0.1507328461501692
8.205796,1.6189316323375145,0.15066906593338789
8.208184,1.6209318372260622,0.15103664987320922
8.210564,1.6232115813683299,0.15132627924583428
8.212968,1.6236289943910411,0.1517473106725955
8.215356,1.6199024362940588,0.15253415355090238
8.217736,1.6118921374505222,0.1537139294071616
8.220132,1.60080880267393,0.1551487944848599
8.222516,1.5918673382706152,0.15635528775473348
8.2249,1.5812033123746037,0.15771147802602056
8.227295999999999,1.5768251279715633,0.15847584291914787
8.229683999999999,1.5736576483820217,0.1590909938920167
8.232064,1.5693266858072246,0.15963282621250485
8.234464,1.567696672113145,0.15985429702238163
8.236848,1.5652752624861472,0.16010369438577282
8.239232,1.5631333921128703,0.16028631814033387
8.241628,1.565926888792205,0.16011053352456547
8.244016,1.5719331910314556,0.15967294803257948
8.2464,1.5800813636439832,0.15905169010032497
8.248796,1.5850167306965957,0.15869615560598282
8.25118,1.5947476951749593,0.1579864828804954
8.253563999999999,1.6052700555862416,0.15727107508973645
8.25596,1.6165838119304414,0.1565066345820496
8.258348,1.624824532341586,0.15600016519317744
8.260731999999999,1.6352071231260077,0.15530491421552267
8.263128,1.6449380876043715,0.15456825490773402
8.265516,1.652946490590039,0.15388333481482128
8.2679,1.6616065198817644,0.1531845235860362
8.270296,1.6678451395464924,0.15278261961865594
8.272684,1.6787395870101118,0.15202394693909224
8.275064,1.6852105241003168,0.15174642502919286
8.277464,1.690890065257604,0.15151445296706623
8.279852,1.696662154213508,0.1514368261537865
8.282232,1.6990816679826364,0.15167372836934448
8.284632,1.7056451528714585,0.15158220610129033
8.287016,1.712720494439478,0.1515326888123582
8.289396,1.716443260820722,0.15178324281342734
8.2918,1.7146715816419134,0.1525094918729557
8.294188,1.7130396720899645,0.15319409743053952
8.296567999999999,1.7143410288442114,0.15368392215870913
8.298964,1.7147112200386796,0.15422810671901105
8.301352,1.7132190801135914,0.1548785521851126
8.303735999999999,1.7164299898156377,0.15508484546877613
8.306132,1.7207118347043224,0.15520597388216695
8.30852,1.7257850755259254,0.1553081464517463
8.3109,1.7337915826537236,0.15521960339299157
8.313296,1.749666723140329,0.1546253816552381
8.315684,1.7679632732539319,0.15381393691897685
8.318068,1.7863995929943948,0.152960799413124
8.320464,1.8031133512421613,0.15219712982993427
8.322852,1.8216894406094843,0.15133364904331445
8.325248,1.8384957466558682,0.15070361181496003
8.327644,1.8526483256497772,0.15019609694562838
8.330032,1.8708051061365203,0.14944066408339562
8.332412,1.8865404769962655,0.14893064569090203
8.334812,1.903486552669509,0.1483303116490012
8.337196,1.9216433331562517,0.14760510608459632
8.33958,1.9432924584566302,0.14656607723584342
8.341975999999999,1.9637308789435102,0.14564548935936208
8.344364,1.9864509394305272,0.14458582151033444
8.346744,2.0131752014103776,0.14332550126121502
8.34914,2.040039233017089,0.1420327042205542
8.351528,2.0594067183173306,0.14127004651834285
8.353912,2.0786344339907115,0.14053156076398765
8.356308,2.093857948171259,0.14002326958552871
8.358696,2.108801923098086,0.1395756755139145
8.361075999999999,2.116948199852745,0.139499064389471
8.363472,2.120159109554791,0.13969009041707292
8.36586,2.1235097888836982,0.13985427376068635
8.368256,2.127931403399243,0.13994946207218445
8.370652,2.132772326795368,0.13996855126610108
8.37304,2.140034659818492,0.1398014305259895
8.37542,2.1505097984015307,0.1394376775548045
8.377816,2.158843066611292,0.13921742771178167
8.380203999999999,2.1685268092614125,0.1388907394141483
8.382584,2.1760686815382564,0.13869319958993778
8.384984,2.186404050494435,0.13838724771161132
8.387372,2.1955287146371143,0.13816967033819003
8.389752,2.2047931484066545,0.13792693790336508
8.392147999999999,2.2097738414296404,0.13793132020762222
8.394536,2.2096793977731544,0.13818719622408043
8.396916,2.209584954116668,0.13844307224053867
8.399312,2.2145656471396538,0.1384469548130402
8.4017,2.220477505722418,0.13841408093693475
8.404084,2.226389364305182,0.13837404561244376
8.40648,2.2316495965818888,0.13832382150634595
8.408868,2.2407742607245686,0.13809542259354662
8.411252,2.2556256878527785,0.13760956009128092
8.413648,2.2711287412870464,0.1371341752861387
8.416036,2.2894252914006494,0.13657407257331558
8.418416,2.301436000021281,0.13634334234844694
8.420816,2.3117241471492163,0.13617017160173822
8.423204,2.3177285535305976,0.13623843019465448
8.425588,2.3217308591655628,0.13640278614753715
8.427984,2.322520359240612,0.13674804218612546
8.430372,2.3226582330096024,0.13708502460664745
8.432756,2.3193509837932003,0.13752009724760797
8.435152,2.319116770509854,0.13779413242862046
8.43754,2.3196739531594255,0.13805438008209295
8.439919999999999,2.322233236555414,0.1382195525889774
8.44232,2.3300074262577346,0.1381163353866663
8.444708,2.339364407825892,0.1379897168121846
8.447104,2.3468590582744926,0.13793582068296256
8.4495,2.353702082417035,0.1378729027725597
8.451888,2.367762113612327,0.13747053855866406
8.454272,2.381961914434479,0.13704771178078065
8.456668,2.3950907800699923,0.1366884397042231
8.459056,2.405565918653031,0.1364140008428312
8.46144,2.415668970183733,0.13608865067422887
8.463836,2.419765719475183,0.13601722028330226
8.466224,2.4322901806328825,0.1355476627695006
8.468608,2.443324397723362,0.13518886900629154
8.471008,2.4603649170530923,0.13458188572419064
8.473396,2.4796870763829593,0.13384584203910058
8.475776,2.5008715668323838,0.13303678954455297
8.478183999999999,2.5229872228415857,0.13218920190747263
8.480576,2.545894274783706,0.13132650622000372
8.48296,2.564005729300075,0.13065612028674098
8.485368,2.583048349376222,0.12996450059017356
8.487756,2.600508177586533,0.12929425377361276
8.490132,2.609959602811176,0.12896041376243397
8.492528,2.6187594017297617,0.12862121132067936
8.494916,2.6294215317679037,0.1282256858120043
8.497296,2.6416664536718817,0.1278161770763213
8.499692,2.648696469269528,0.1276464247344728
8.50208,2.660242543039206,0.12736504085071804
8.50446,2.671136990502825,0.12707459355143624
8.506864,2.682683064272503,0.12679751014036078
8.509248,2.695811929908016,0.12651111753619151
8.511628,2.7130847666632234,0.12605832319242757
8.514028,2.728075963418294,0.1257359615688088
8.516416,2.746559504987,0.12524515128831148
8.518796,2.7610388450628727,0.12490376791995382
8.521192,2.7721656099519696,0.12470656252637571
8.523579999999999,2.7819891222289503,0.12448618698814454
8.52596,2.794606131185266,0.12419671220467697
8.528356,2.8100166368209174,0.12384069540226586
8.53074,2.8260787687626254,0.12348638424757882
8.53312,2.837624842532303,0.12323524582571244
8.535516,2.851824643354455,0.12293061722876132
8.537904,2.8700286456694406,0.12247475789638493
8.540284,2.8906540576114237,0.12191445656174396
8.542688,2.908346203247212,0.12144862979308797
8.545076,2.9221739170170262,0.12109634119797502
8.547456,2.9372123356003397,0.12068557757353504
8.549859999999999,2.944661660078567,0.12049161914898845
8.552244,2.9529023804897117,0.12029323869183228
8.554628,2.960211935341078,0.12011901160387599
8.557024,2.9656591590728874,0.1199945273191004
8.559412,2.9669624116850026,0.12001763547685715
8.561792,2.9634700668713667,0.120178244640087
8.564188,2.956625146870955,0.1204803105271349
8.566576,2.9500597661242636,0.1207470099672787
8.568956,2.9500597661242636,0.12074700996727872
8.571352,2.948709291683905,0.12082394815776733
8.573736,2.9434943853775724,0.12101231566634996
8.576115999999999,2.935765521645625,0.12123130138375636
8.578516,2.9323203986602326,0.12128778574282977
8.5809,2.933810642727452,0.12119603850510242
8.58328,2.9314364549286975,0.12121265821658858
8.585676,2.932926698995917,0.12112250093870434
8.588064,2.925849461570028,0.12134831745090575
8.59046,2.921985029704054,0.12145439201296225
8.592856,2.922544108211495,0.12138628924213099
8.595244,2.9206817770919375,0.12143092590719688
8.597624,2.921892481905437,0.12137368172822882
8.600019999999999,2.9232429563457965,0.12129997054846169
8.602408,2.922870869293459,0.12125370863608383
8.604792,2.921288077427622,0.12126504476237229
8.607187999999999,2.9227783214948415,0.12117195212016377
8.609576,2.927201831868256,0.12098831172925403
8.611956,2.9321844207491106,0.12073149569369401
8.61436,2.9358165351896077,0.1205510652488212
8.616748,2.9359563048164676,0.1205335667075432
8.619128,2.943033542242357,0.12030419646770758
8.621523999999999,2.9536031244818823,0.11992384297973341
8.623911999999999,2.9625426930273275,0.11964991497809549
8.626292,2.968409225639718,0.11948265768929467
8.628692,2.9721338878788304,0.11939548055531864
8.631079999999999,2.9807939171705558,0.11916677083512305
8.63346,2.9826562482901124,0.11912372230799628
8.635856,2.993877456835695,0.11876657226588574
8.638247999999999,3.0058900613141963,0.11841660010416337
8.640628,3.0165521913523383,0.11814385468653187
8.643024,3.0307066662041167,0.11772955941999762
8.645412,3.0456525369888126,0.11731428623661184
8.647796,3.059387702960011,0.1169535930483247
8.6502,3.0771270704240417,0.11648228083925724
8.652588,3.098219013074849,0.11588912276104257
8.654968,3.1202421212854343,0.1152854528089211
8.657364,3.1431963950557984,0.11466528658319854
8.659752,3.167593691065138,0.11405499386631683
8.662132,3.196414497447892,0.11329607680013169
8.664527999999999,3.221510641591533,0.11260472979395815
8.666916,3.239669317936145,0.1121071344038932
8.669296,3.2520540094669834,0.11182839493048598
8.671695999999999,3.2679310458114577,0.1114149968795696
8.674084,3.2838080821559323,0.11100159882865321
8.676468,3.3015474496199633,0.11055464927987317
8.678863999999999,3.316074011524079,0.11021567009563121
8.681251999999999,3.3366068756674445,0.10971974999100667
8.683636,3.3517850638776183,0.1094000267749876
8.686031999999999,3.3600257842887635,0.10925140302172377
8.688419999999999,3.369197670259686,0.10908746983755041
8.690816,3.3752965202975544,0.1090086604225658
8.693211999999999,3.380464204775643,0.10894799867446732
8.695596,3.38791352925387,0.10880916589568976
8.69798,3.396154249665015,0.10867309221828914
8.700376,3.4033240348895206,0.10857129655597803
8.70276,3.4089110282481903,0.108474954408661
8.705143999999999,3.4135668560470824,0.1083951085349451
8.70754,3.4215752590327497,0.108215358705533
8.709928,3.4252999212718622,0.10815451939699658
8.712308,3.434099720190448,0.1079754240313886
8.714704,3.4489058213482844,0.10766627257865327
8.717092,3.47120846881259,0.10715476209227347
8.719488,3.4882962099705637,0.10677287273501328
8.721888,3.505244181501677,0.10640405543132836
8.724272,3.5193986563534554,0.10608240963637254
8.726656,3.5362540800859517,0.10565270492648668
8.729052,3.5491053023256143,0.10531423961638964
8.731436,3.5642381645654133,0.1049048095327096
8.73382,3.583375228298046,0.10439869255696661
8.736215999999999,3.5977166946049284,0.10397975465232397
8.738604,3.6139204920313666,0.10353030526999367
8.74098,3.630124289457805,0.10308085588766339
8.743383999999999,3.642044346137689,0.10274788133962895
8.745772,3.653173006884655,0.10242453821528846
8.748152,3.662299566885204,0.10214461555340262
8.750548,3.6672821557660598,0.10196145790389324
8.752936,3.673335679833553,0.10175080757309783
8.755316,3.67724733352777,0.10160116901029233
8.757719999999999,3.6811589872219863,0.10145003729155257
8.760107999999999,3.686793202408899,0.10128837841854409
8.762492,3.686700654610282,0.1012230838049668
8.764888,3.6826039053188304,0.10123683997617178
8.767275999999999,3.684792997520351,0.10110733605884142
8.769656,3.687401398602452,0.10093917242806043
8.772052,3.69215167005783,0.10071955499640477
8.77444,3.6934095966995715,0.10060397885168623
8.776819999999999,3.6976007896475087,0.10043795016035878
8.77922,3.700860817035668,0.10028543843881095
8.781608,3.7051917796104656,0.10010841894143002
8.783987999999999,3.715808583678234,0.09979441083392183
8.786384,3.725773761439944,0.09946946689627813
8.788772,3.73895174476157,0.09907570424261829
8.791155999999999,3.751617871403998,0.09864865239570021
8.79356,3.76093142285965,0.09831045521702546
8.795948,3.7711761398750814,0.09795880739128747
8.798328,3.7872873895029024,0.09750439617036742
8.800723999999999,3.8035384087575834,0.09704273540088958
8.803112,3.812851960213236,0.09670083812984837
8.805492,3.8232364468555273,0.0963319912802216
8.8079,3.8278941705122875,0.09605296916988915
8.810284,3.834134686034885,0.0957729284245768
8.812664,3.8411665974904006,0.0954944934904867
8.815059999999999,3.8488501352519737,0.09523682248737876
8.817447999999999,3.8582562345062428,0.09497107218096809
8.819832,3.867382794506792,0.09473253162684123
8.822227999999999,3.8755781889475625,0.09450232096063912
8.824615999999999,3.8827026482016946,0.0942985906144032
8.826996,3.890758273015605,0.09408483583604084
8.829392,3.8968117970830987,0.09390621287123697
8.83178,3.8983020411503175,0.09384655182910889
8.834159999999999,3.9023062426431516,0.09377901965477103
8.83656,3.901095537829652,0.09381372841893659
8.838944,3.910407193427436,0.09370989334739979
8.841344,3.919067222719162,0.09359075160493342
8.84374,3.9308002879439417,0.09341892179828165
8.846128,3.946537554661557,0.09319139418368574
8.848507999999999,3.959993181379034,0.09301875611304516
8.850908,3.984250707761514,0.09269208811352932
8.853296,4.009579169330632,0.09234618571653691
8.855675999999999,4.039703228325501,0.09194192738703962
8.858072,4.07103799213387,0.09150657711436835
8.86046,4.100510424822682,0.0910908525764317
8.86284,4.123324928966186,0.09075695492413666
8.865236,4.146139433109689,0.09042959223053046
8.867624,4.169885102812971,0.09009663137628143
8.870004,4.194701707702891,0.08973834898829451
8.872399999999999,4.217655981473254,0.0893990014551803
8.874788,4.239399550430119,0.08909279477083508
8.877184,4.266078486439596,0.08872293461322998
8.879579999999999,4.295178832076069,0.08828989143048756
8.881968,4.319763119540513,0.08789430582081402
8.884348,4.34821183887093,0.08744986064339841
8.886744,4.363856557789927,0.08718375697909281
8.889128,4.384576413388396,0.086842714578757
