Time,Force,Position
9.916416000000003,0.03916207812234334,0.0
9.918796,0.03399439364425404,0.0
9.9212,0.03269114103213824,0.0
9.923588000000002,0.03874466509963194,0.0
9.925968000000005,0.04144561398034984,0.0
9.928372000000005,0.0508044914063762,0.0
9.93076,0.06030313845926276,0.0
9.933140000000002,0.06994155513900953,0.0
9.935536,0.08051113737853463,0.0
9.937924000000002,0.0922607159031976,0.0
9.940304000000005,0.09938517515732984,0.0
9.942700000000002,0.10464730329190544,0.0
9.945088000000004,0.1086987266129823,0.0
9.947472000000005,0.11275014993405914,0.0
9.949868000000002,0.11756226065969323,0.0
9.952252,0.1182304002656334,0.0
9.954636,0.11823040026563342,0.0
9.957032000000003,0.11823040026563342,0.0
9.95942,0.11705040398049554,0.0
9.961800000000004,0.1169413428819962,0.0
9.964200000000003,0.11548180734313791,0.0
9.966588000000002,0.11202017105786277,0.0
9.968968000000004,0.10655643402617078,0.0
9.971372000000002,0.09787989143456319,0.0
9.973756000000002,0.09227638477601101,0.0
9.976136000000004,0.08173751106484677,0.0
9.978544,0.07105886772682234,0.0
9.980928000000006,0.05930928920215937,0.0
9.983308,0.04769948030435662,0.0
9.985712,0.03594990177969365,0.0
9.988100000000005,0.02606265437458732,0.0
9.990480000000003,0.018037738089037633,0.0
9.992876000000004,0.011223526616986687,0.0
9.995264,0.005480250331574274,0.0
9.997644,0.0022674447716586814,0.0
10.000040000000006,0.002919071077716581,0.0
10.002424000000005,0.0030281321762159205,0.0
10.004808000000004,0.0042081284613537905,0.0
10.007204000000002,0.006319290306269982,0.0
10.009588,0.010292783270742813,0.0
10.011968000000005,0.010292783270742813,0.0
10.014372000000002,0.010292783270742815,0.0
10.016760000000003,0.010292783270742815,0.0
10.01914,0.010292783270742815,0.0
10.021544000000006,0.010292783270742815,0.0
10.023928000000003,0.010292783270742815,0.0
10.026308,0.010292783270742815,0.0
10.028704000000005,0.011612549182740895,0.0
10.031092,0.01679674696071247,0.0
10.033488000000006,0.019978843992267188,0.0
10.035884000000005,0.022090005837183378,0.0
10.038268000000002,0.02420116768209957,0.0
10.040648000000004,0.02645209915387597,0.0
10.043048,0.02670092987923552,0.0
10.045432000000003,0.025350455438876568,0.0
10.047812,0.026421390625515098,0.0
10.050216,0.029773965812290897,0.0
10.052604000000002,0.03219537543928838,0.0
10.054984000000005,0.034616785066285856,0.0
10.057388000000005,0.03303399320044964,0.0
10.059772000000002,0.03835796060528142,0.0
10.062156000000002,0.043542158383252996,0.0
10.064552,0.04872635616122457,0.0
10.066940000000002,0.05484171949897446,0.0
10.069320000000005,0.05788404690366897,0.0
10.071716000000002,0.060646835054643064,0.0
10.074104000000004,0.06064683505464306,0.0
10.076484,0.05932706914264498,0.0
10.078884000000002,0.054142871364673405,0.0
10.081268,0.05096077433311869,0.0
10.083648000000004,0.0488496124882025,0.0
10.086048000000003,0.04673845064328631,0.0
10.088432000000005,0.044487519171509914,0.0
10.090828000000002,0.04551123252990529,0.0
10.093228000000003,0.045464010701662144,0.0
10.095616,0.043073309603025536,0.0
10.097996000000002,0.04288631814792217,0.0
10.100392,0.04134885225245986,0.0
10.102780000000005,0.037017889677662584,0.0
10.105160000000003,0.03603950228964111,0.0
10.107556000000002,0.03226761822228468,0.0
10.109944000000006,0.03077737415506552,0.0
10.112328000000003,0.028495734154928242,0.0
10.114724000000002,0.026493633408511394,0.0
10.117112,0.030497834901345094,0.0
10.119496000000003,0.036132050088258164,0.0
10.121888000000006,0.047462319732340504,0.0
10.124276000000002,0.05986352456306137,0.0
10.12666,0.0711937942071437,0.0
10.129052,0.08159289829144771,0.0
10.131440000000005,0.09092106718911319,0.0
10.13382,0.10253087608691595,0.0
10.136216000000005,0.11013648349188501,0.0
10.138604,0.11353628050690397,0.0
10.140984000000005,0.1192177175220602,0.0
10.14338,0.12402982824769429,0.0
10.145768000000004,0.12235448858324101,0.0
10.148148,0.12282101929206479,0.0
10.150564000000005,0.12608104668022355,0.0
10.152952,0.1301324700013004,0.0
10.155332,0.13017969182954353,0.0
10.157728000000006,0.12648573811879113,0.0
10.160116000000002,0.1241115503200368,0.0
10.162512,0.12131805364070185,0.0
10.164908000000004,0.11666222584181024,0.0
10.167292000000003,0.10826522250392308,0.0
10.169672000000006,0.09693495285984075,0.0
10.172072,0.08453374802911988,0.0
10.174456,0.07345230911039709,0.0
10.176836000000002,0.06651484131136821,0.0
10.179236000000005,0.06265040944539471,0.0
10.181624,0.055433402392645416,0.0
10.184004000000002,0.053431301646228564,0.0
10.1864,0.054362467206006876,0.0
10.188788000000002,0.05501409351206478,0.0
10.191184,0.05780759019139975,0.0
10.193580000000004,0.06409343168437072,0.0
10.195964000000004,0.07145020836398022,0.0
10.198348000000005,0.07210183467003813,0.0
10.200744,0.06842249840129876,0.0
10.203132000000004,0.07372805664837902,0.0
10.205512,0.08254057715110832,0.0
10.207908000000003,0.09287215439154843,0.0
10.210296,0.10515861055016222,0.0
10.212676000000002,0.11297433450711852,0.0
10.215072,0.12951192702605635,0.0
10.217460000000004,0.15009904700820173,0.0
10.219844000000002,0.17259382408027774,0.0
10.22224,0.1983774412110041,0.0
10.224624000000006,0.21955055651321273,0.0
10.227004,0.23932597554681928,0.0
10.229400000000004,0.2652927924169105,0.0
10.231788000000002,0.29302749675007206,0.0
10.234168000000004,0.32495149817330143,0.0
10.236564,0.3585508392609841,0.0
10.238952000000005,0.3934062111325394,0.010640688731813638
10.241336000000004,0.4318918015867216,0.021115320932959022
10.243732,0.46977109170521986,0.03178183434966855
10.246120000000005,0.521525317421776,0.04132256499901247
10.2485,0.5785416712729077,0.05047222474392238
10.2509,0.6313687280339715,0.05951663311822132
10.253284,0.6834988325186034,0.06836192736368321
10.255668,0.7363750069657797,0.07692464471366436
10.258064000000005,0.7880876984277003,0.08540056292044002
10.260452,0.8487871802633098,0.09339757872267791
10.262832000000005,0.9034350338892949,0.10131518376561745
10.265228,0.9541731296789324,0.1091933168501195
10.267616000000004,1.0031433380054997,0.11703213237293861
10.269996,1.0473651707345584,0.1250228948024242
10.272392000000004,1.0945674915980554,0.13294733576346188
10.27478,1.1410256383568773,0.14091105716177227
10.277164,1.178079581719299,0.14934971878841288
10.279560000000004,1.2132258679917904,0.157664075153519
10.281948,1.2449742531071317,0.1659403481267006
10.284332,1.2726258889310225,0.1744664602080675
10.286728000000004,1.2990214939710405,0.17222688988856252
10.289116,1.3233696722942676,0.1699952896662995
10.291496000000002,1.3499069428190151,0.16731731584903944
10.293892,1.3720679247985914,0.1654982646975371
10.296280000000005,1.3919472667780306,0.16407814847974284
10.298660000000003,1.4087535728244143,0.16296588994321307
10.301076000000002,1.4262115051768558,0.16192128822582363
10.303464000000004,1.4418071064097406,0.1610958492428447
10.305844,1.4527468798437342,0.16062597091797887
10.308244000000002,1.4579598902921973,0.16067214353517276
10.310628,1.463544987792998,0.16080305758789223
10.313012,1.4708526467864953,0.1608396185994119
10.315408000000003,1.4777409968994113,0.16098734961060313
10.317796,1.4854207429452462,0.16109187884229842
10.32018,1.4941714241777195,0.1611004834948794
10.322576000000003,1.5047844365297494,0.16097880465077122
10.324964,1.5227542255613884,0.1601383752326939
10.327344000000004,1.5412358712722252,0.1593746113125436
10.32974,1.5607884521697006,0.1585409052864368
10.332124,1.5847645434405906,0.15727383277655196
10.334504000000004,1.6093922610175382,0.15606404766290374
10.336896000000005,1.6309469426614307,0.15511954119239896
10.339284,1.6458436957600147,0.1546441793040431
10.341664000000002,1.656876016992625,0.15446665432816936
10.344076,1.666837403038597,0.15437478188536594
10.346464000000005,1.6826653216969594,0.1538690155565139
10.348844,1.6944890388624878,0.15365938282052688
10.351256,1.7043106552815994,0.15359846959449244
10.353644000000005,1.7190676387533232,0.1531607917976094
10.356024000000003,1.7338246222250469,0.1527164084340016
10.358436000000005,1.746859044204074,0.15235147312925218
10.360824,1.7558892646902675,0.15229613448491586
10.363204000000003,1.7670613555497379,0.15205533591130768
10.365608000000002,1.7805150864093457,0.15159681498422295
10.367992,1.793317190962896,0.15116634644885507
10.370372000000003,1.804117194770029,0.15088610829977434
10.372776000000002,1.810493688203748,0.15099250067891665
10.375164000000003,1.8131455193983534,0.15131897316796492
10.377540000000003,1.8117931491001251,0.15193435597580618
10.379944000000002,1.8061570380553427,0.1528932091340331
10.382332000000003,1.8005209270105604,0.1538289168685476
10.384712,1.798237391152554,0.154475651032737
10.387116,1.8020999271606581,0.15468063401614623
10.389500000000004,1.805031297608984,0.15493879272274078
10.39188,1.807450811378112,0.15515869742717459
10.394276000000003,1.8062854325349873,0.15555911194264868
10.396664,1.8111263559311128,0.15555266999577497
10.399044000000004,1.8179693800736556,0.1554106129468493
10.40144,1.8237414690295597,0.15535567889657842
10.403828000000004,1.8275114572390472,0.15542925475158118
10.406208,1.831793302127732,0.15553628612991852
10.408624000000003,1.8416621403750866,0.1553189761422811
10.411008000000002,1.849948186756605,0.15515849439468324
10.413392000000002,1.8554407364587888,0.15515684682810638
10.415796,1.8554388406009197,0.15559466849687595
10.41818,1.8557164839967708,0.1559732628387749
10.420560000000002,1.859486472206258,0.15604198183084828
10.422956,1.8674004315354396,0.15580696236089214
10.425344000000004,1.8773164916110374,0.15541956992336595
10.427728000000002,1.888303486873274,0.15492950443233675
10.430124,1.8943551150828983,0.15477795008585593
10.432508000000006,1.8981251032923854,0.15483829052318795
10.434892000000003,1.8977511203821786,0.15521257080002512
10.437288000000002,1.8972373678451118,0.15562274857684477
10.439676000000006,1.899097803106799,0.15595335585691245
10.442056,1.9003991598610457,0.15640727384402278
10.444456000000002,1.8976963151224586,0.15713440302824266
10.446840000000002,1.8921999737045365,0.1580335354388588
10.449224,1.8876347978463923,0.1588629795107208
10.451620000000004,1.8909382553470557,0.15916503060679657
10.454004000000005,1.8969426617284375,0.1591886770767075
10.456388000000004,1.8989900884452282,0.15932715819567347
10.458784,1.8994075014679395,0.1596588401119134
10.461172000000005,1.9043409726626823,0.15976641776027634
10.463552,1.9166312205370344,0.15935393649135599
10.465952,1.9286419291576664,0.15899384448770373
10.468336,1.9373000625915224,0.1589002619661307
10.470736000000002,1.9418142249056844,0.15908889465241713
10.473132,1.9483304879662635,0.1591516475166221
10.475520000000005,1.9591304917733965,0.15892128024661437
10.477904000000002,1.975145401886862,0.15833177245230157
10.4803,1.9891582112539106,0.1578492103876233
10.482684,2.0042419558075983,0.15727980746150402
10.485064,2.0236094411078396,0.15641139404389967
10.487460000000006,2.0415339041691047,0.15556728856286364
10.489848000000002,2.0597379064840906,0.15465535685009643
10.492232,2.078081678425937,0.15371239411939908
10.494628000000006,2.100150112606896,0.15256550214994993
10.497012000000003,2.11942505010852,0.15157446383871576
10.499396000000004,2.1329732246246143,0.15095186562719684
10.501792000000002,2.1442397591405706,0.15051400965454667
10.504180000000003,2.1549472151490874,0.15017676324136792
10.506576000000004,2.171800743023714,0.1494750954359069
10.508972,2.1861403134727264,0.14888566363414907
10.511360000000003,2.1938219553764298,0.148628196767297
10.513740000000006,2.205927107653548,0.14809432471728062
10.516144000000004,2.2221762310503603,0.14733081561505545
10.518532,2.2436402607535046,0.14627087619661713
10.520912000000004,2.264312894523731,0.14525430981390883
10.523312000000004,2.2791189956815674,0.14453913244072625
10.5257,2.2948562623991813,0.1438168228146223
10.528080000000005,2.31487726986335,0.14285397361424515
10.530476,2.3355499036335767,0.14190183401853473
10.53286,2.3520785662841095,0.14117978542133172
10.535244000000006,2.368607228934642,0.14045773682412874
10.537644,2.3872777619584515,0.13962981763799093
10.540032000000004,2.4058085253554005,0.13882219389192868
10.542416000000005,2.4201953176326563,0.13821992298734984
10.54482,2.4387260810296056,0.1374196303840398
10.547208000000005,2.456325678866776,0.13664929652794744
10.549588,2.476067147077224,0.13577491231047106
10.551992000000006,2.49660001122059,0.13487367035708966
10.554376000000005,2.50954378125887,0.13429084895132296
10.556756,2.5215563857373713,0.13374947394296188
10.559164000000004,2.537293652454986,0.13306052327100515
10.561552,2.548747178426046,0.13261597199300112
10.563932,2.5572674380909115,0.13230160345236833
10.566328000000006,2.560712561076304,0.13221514234910253
10.568716000000002,2.5630867488750586,0.1321826761788463
10.5711,2.571187699659343,0.1319424317998108
10.573496000000006,2.575284448950794,0.1318707574766491
10.575880000000003,2.5780307238018856,0.13189279499985845
10.578264000000004,2.579473746040861,0.1318936428523321
10.580660000000002,2.5850607393995313,0.13171615287544763
10.583048000000003,2.5926498335046184,0.13146349185534834
10.585428,2.5986561357438687,0.1312344036524132
10.587824000000005,2.6069440779832567,0.13089434216412105
10.590208000000004,2.6207264657826976,0.13030032189195961
10.592588,2.629433716902666,0.1299070527208769
10.594992000000005,2.638932363955552,0.1295023639304877
10.59738,2.6434956439558266,0.1292739231325979
10.599764,2.64954916802332,0.1289413194602529
10.602160000000003,2.6602585198897057,0.12846713256342726
10.604552000000004,2.671759267689009,0.12798844097211903
10.606932,2.6852621162347297,0.12744897879441047
10.609336,2.6981133384743914,0.12689505631779618
10.611724000000002,2.7091022295944973,0.1263897049403907
10.614104000000005,2.725026487767215,0.12571172588760746
10.616508000000003,2.739879810753294,0.1250754091977106
10.618896,2.7479354355672045,0.12467314119136677
10.621276000000002,2.7570619955677538,0.12422091645836116
10.623676000000003,2.7632552892621085,0.12386696856679436
10.626060000000004,2.772893705941855,0.12344681496876443
10.628440000000005,2.779319317061686,0.12317229583002835
10.63084,2.7826718922484615,0.12301692966787829
10.633228000000004,2.788119115980272,0.1228800622312441
10.635608000000005,2.792215865271722,0.12282719914124637
10.638004000000002,2.793891204936176,0.12289857843043689
10.640392000000006,2.800362142026381,0.12282953879787407
10.642772,2.8061814528105278,0.12274803493585343
10.645172000000002,2.816796361020427,0.12252268993281842
10.647556000000002,2.8288542914693027,0.12231017391898717
10.64994,2.837047790052204,0.12221177039067391
10.652336000000004,2.8438908141947468,0.1221907679602748
10.654724000000002,2.847660802404234,0.12227844064211843
10.657104000000004,2.8558070791588923,0.12228460924839932
10.6595,2.8664673133391645,0.12225353005351648
10.661888000000005,2.876196381959659,0.12225117801444768
10.664268,2.890860817632765,0.12210504618293859
10.666664000000004,2.912322951478041,0.12176991009220987
10.669052,2.934576481256234,0.12143072707211755
10.671436,2.9619051477138996,0.12092974385895801
10.673832000000004,2.9842984471189524,0.12057473097493268
10.67622,3.007483142456926,0.1202128131366493
10.678604,3.034672039287731,0.11973412727662393
10.681000000000004,3.0573448779465044,0.11934789926344866
10.683388,3.077224219925944,0.11902303338765972
10.685768000000005,3.096032626718744,0.11873609557459994
10.688164,3.1109766016455707,0.11855757281647814
10.690552000000004,3.1335096706774843,0.11820546350871813
10.692932,3.15525134377648,0.1178669396639493
10.695328000000003,3.1749909161290595,0.11759117412730974
10.697716,3.1993863162805294,0.11721291535741797
10.700096000000002,3.224620334193162,0.1167386060934975
10.702496000000004,3.2493424954265957,0.11623523356343261
10.704880000000005,3.269408828861138,0.11583979770573948
10.707280000000004,3.291756802295818,0.11536592136276726
10.709676000000002,3.312894070916999,0.11495076873243686
10.712064000000003,3.329235742112428,0.1146549259997078
10.714444,3.3426441470016623,0.11443908578677442
10.716840000000005,3.3560525518908966,0.11422453514353022
10.719228,3.366527690473935,0.11408327642697708
10.721612,3.381146800176668,0.11382500129971984
10.724008000000005,3.396324988386841,0.11351081757561415
10.726396,3.412434342156793,0.11319229144123846
10.72878,3.4304060270463013,0.11283398740745276
10.731176000000003,3.4477260856297516,0.11245456512190627
10.733564,3.465744992347503,0.11200243279454158
10.735944000000003,3.4860455390653926,0.11147134417986912
10.738336000000004,3.495544186118279,0.11119859669797857
10.740724,3.5027611931710285,0.11100388974005568
10.743120000000005,3.5049502853725487,0.11085365254461267
10.745516000000002,3.5036942545886753,0.11074570524005856
10.747904000000004,3.5040210156706393,0.11063264941926565
10.750284,3.5048596334318005,0.11054557610781164
10.752688,3.5070487256333207,0.11039731104019328
10.755076000000004,3.503511054849311,0.11036748286664502
10.757456000000005,3.496388491453047,0.11039347777868917
10.759852000000002,3.4935496688033383,0.11029073568666219
10.762240000000006,3.4849840831681,0.11030771127778662
10.76462,3.4771173456671627,0.11024971119254823
10.767016000000003,3.4704613129797233,0.11014478954047244
10.769404000000002,3.463945049919144,0.11002471836710385
10.771784000000004,3.4534245853657315,0.10999948441267644
10.774184000000004,3.4343838611474538,0.11013931655158808
10.776572000000002,3.41990641692945,0.11012070017273463
10.778956,3.4119471316298955,0.10998838918253508
10.781352000000004,3.4026373718899814,0.1099135346281439
10.783740000000002,3.3902545762170124,0.10991431019547619
10.786124,3.3820157516637366,0.10980962724015902
10.788520000000004,3.3772692719240975,0.10958470847667469
10.790908000000002,3.379832347035824,0.10924317747272559
10.793288000000004,3.3823954221475514,0.1089000400060203
10.795684,3.3829563965128617,0.10860573005820397
10.798072000000005,3.383657140505032,0.108296990407823
10.800452,3.3823557837507856,0.10803367588270904
10.802852,3.385989794049151,0.1076601567087686
10.805236,3.3924173010268515,0.10723359704287505
10.80762,3.3901375568845835,0.10706861463553853
10.810024000000006,3.395586676474262,0.10673858375735357
10.812408000000003,3.399685321623582,0.10647196193863222
10.814792000000004,3.399639995653208,0.1063144825346308
10.817188000000002,3.3962420944960576,0.10626567458534569
10.819576000000003,3.398570956324438,0.10610295852859326
10.821956,3.407557746698127,0.1058064561927764
10.824356000000002,3.410910321884903,0.10569915223381621
10.826744000000003,3.4131919618850404,0.10562508049188019
10.829124,3.418406868191373,0.1054905766734758
10.831520000000005,3.428277602296597,0.10527919252741205
10.833908,3.4380085667749607,0.10508243742240066
10.836288000000003,3.445318121626327,0.10497503749859385
10.838688000000005,3.4506255757312765,0.10491383121115985
10.841072000000004,3.4576555913289218,0.10483712749822278
10.843468,3.460681405433734,0.10484651427820266
10.845864,3.4666404858447413,0.10479778030911219
10.848252000000002,3.4761844588680018,0.1047037281061913
10.850632000000004,3.4847972663314835,0.10462769814094468
10.853032,3.495551944168243,0.10449780081477683
10.855420000000002,3.5147343338712504,0.10415225111925211
10.857800000000005,3.532985558014479,0.10383090070753918
10.860196000000002,3.55002607734421,0.1035493338369688
10.862584000000004,3.5721417333534125,0.10315491406832392
10.864964,3.595887403056695,0.102676920180287
10.867364000000002,3.616699806453782,0.10226238356088257
10.869752000000004,3.6325768427982563,0.10194361961809388
10.872132,3.6490129576501715,0.10156750611895186
10.874528000000003,3.6607932447031954,0.10126376673934856
10.876916,3.6684295606365254,0.10105669751650723
10.879296000000004,3.6724809839576023,0.10089393471568593
10.881696000000003,3.676672176905539,0.100717948254667
10.884084,3.6822138442938352,0.10048885599669505
10.886464000000004,3.6878952813089914,0.10024834732998367
