Time,Force,Position
12.076368000000002,0.047218754367054236,0.0
12.078764,0.05854902401113657,0.0
12.081152000000005,0.06801696253566225,0.0
12.083536000000002,0.07548280031377111,0.0
12.085932,0.08774423551763177,0.0
12.088320000000005,0.10000567072149243,0.0
12.090700000000004,0.11212733629849286,0.0
12.093096000000005,0.12639087224877035,0.0
12.095484,0.13449182303305485,0.0
12.097868000000004,0.1377971763915875,0.0
12.100264000000005,0.14898767640880964,0.0
12.102652,0.16017817642603177,0.0
12.105036000000004,0.16722470532355999,0.0
12.107432000000005,0.17334006866130988,0.0
12.10982,0.17771635720648107,0.0
12.112204000000006,0.17743681795276064,0.0
12.114600000000005,0.17276447685398674,0.0
12.116988,0.16834096648057242,0.0
12.119372000000006,0.15915256720976712,0.0
12.121768000000005,0.14889323275232333,0.0
12.124160000000003,0.13956506385465783,0.0
12.126540000000006,0.12823479421057551,0.0
12.128936000000005,0.11876685568604983,0.0
12.131324,0.11130101790794097,0.0
12.133708000000006,0.09903958270408031,0.0
12.136104000000005,0.08677814750021966,0.0
12.138492,0.0746564819232192,0.0
12.140876000000006,0.0603929459729417,0.0
12.143272000000003,0.050133611515497896,0.0
12.14566,0.04373870892402758,0.0
12.148040000000002,0.03254820890680545,0.0
12.150436,0.02318933148077909,0.0
12.152824000000004,0.02118723073436224,0.0
12.155208000000002,0.023049561853918883,0.0
12.157604,0.02719353297361279,0.0
12.159992000000004,0.03706426707883684,0.0
12.162376000000002,0.048534306349779385,0.0
12.164772,0.054308291163552666,0.0
12.167164,0.06577833043449521,0.0
12.169544000000002,0.07538603858588112,0.0
12.17194,0.08671630822996346,0.0
12.174328000000004,0.09511331156785062,0.0
12.176708000000003,0.10523287639843422,0.0
12.179108,0.11241917492282263,0.0
12.181496000000005,0.12132803493990751,0.0
12.183876000000003,0.12744339827765738,0.0
12.186276,0.13700388460080015,0.0
12.188664000000005,0.14297947831168983,0.0
12.191044000000003,0.14974646795549762,0.0
12.193444,0.15693276647988608,0.0
12.195832000000005,0.1650502305640528,0.0
12.198212000000003,0.16640070500441176,0.0
12.200608000000004,0.1642588346311347,0.0
12.202996,0.16239650351157806,0.0
12.205380000000003,0.15732136683210582,0.0
12.207784000000004,0.14637969754024324,0.0
12.210172,0.1349096582693007,0.0
12.212552000000002,0.128856134201807,0.0
12.214952000000004,0.11738609493086447,0.0
12.21734,0.10777838677947855,0.0
12.219724,0.09644811713539622,0.0
12.222120000000004,0.08805111379750905,0.0
12.224508,0.07793154896692545,0.0
12.226888000000002,0.07074525044253702,0.0
12.229288000000004,0.06183639042545216,0.0
12.231676,0.05704079299970035,0.0
12.23406,0.04814844628249777,0.0
12.236456000000004,0.04363238811046637,0.0
12.238844,0.03753353807259876,0.0
12.241228,0.03259817101998674,0.0
12.243624000000004,0.024480706935819992,0.0
12.246012,0.021298609904265273,0.0
12.248396,0.018396052126430966,0.0
12.250796,0.012280688788681075,0.0
12.253184000000005,0.008167426197348034,0.0
12.255564,0.006987429912210163,0.0
12.257964,0.006987429912210163,0.0
12.260348,0.006615342859872683,0.0
12.262732,0.007655569518150344,0.0
12.265132,0.008695796176428003,0.0
12.267520000000005,0.009596253207845452,0.0
12.269904000000004,0.011707415052761645,0.0
12.2723,0.011707415052761645,0.0
12.274688000000005,0.013678807270817626,0.0
12.277068,0.016721134675512138,0.0
12.279468,0.015401368763514054,0.0
12.281856000000005,0.014733229157573875,0.0
12.284236,0.013273693618715585,0.0
12.286636,0.012605554012775404,0.0
12.289024000000005,0.010354622540999003,0.0
12.291408000000004,0.010354622540999003,0.0
12.293804000000002,0.010354622540999003,0.0
12.296188,0.010354622540999003,0.0
12.298572,0.010354622540999003,0.0
12.300968000000005,0.010354622540999003,0.0
12.303356,0.010354622540999003,0.0
12.305736000000003,0.010354622540999003,0.0
12.308132,0.010105791815639453,0.0
12.310520000000004,0.009065565157361793,0.0
12.3129,0.008025338499084133,0.0
12.315296000000004,0.007124881467666683,0.0
12.317684,0.0050137196227504925,0.0
12.320064000000002,0.0050137196227504925,0.0
12.32246,0.003042327404694512,0.0
12.324848000000005,0.0,0.0
12.327248000000004,0.0,0.0
12.329644000000002,0.0,0.0
12.332032000000003,0.0,0.0
12.334412,0.0,0.0
12.336812000000002,0.0,0.0
12.339196,0.0,0.0
12.34158,0.0,0.0
12.343976000000003,0.0,0.0
12.346364,0.0,0.0
12.348744000000003,0.0,0.0
12.35114,0.0,0.0
12.353528000000004,0.0038337233376126217,0.0
12.355912000000004,0.004734180369030071,0.0
12.358308,0.007496968520004162,0.0
12.360696000000004,0.011190922230756574,0.0
12.363080000000004,0.017026746314786047,0.0
12.365480000000003,0.021000239279258877,0.0
12.367864000000004,0.026184437057230454,0.0
12.370248000000004,0.0304374692754237,0.0
12.372644,0.032408861493479685,0.0
12.375032000000004,0.03531141927131398,0.0
12.377408000000004,0.040355847422425345,0.0
12.379816000000003,0.04661098038703544,0.0
12.382200000000005,0.04699958073925522,0.0
12.38458,0.04859888590497372,0.0
12.386984000000004,0.051129356630470545,0.0
12.389372000000002,0.05352005772910715,0.0
12.391756,0.05352005772910715,0.0
12.394152000000004,0.0537688884544667,0.0
12.396544,0.05387794955296605,0.0
12.398924,0.05387794955296605,0.0
12.401324000000002,0.050044226215353434,0.0
12.403708000000002,0.05083562214827154,0.0
12.406088000000004,0.048072833997297434,0.0
12.408488000000006,0.04437888028654503,0.0
12.410876000000002,0.03854305620251556,0.0
12.413256000000004,0.03456956323804272,0.0
12.415652,0.029385365460071144,0.0
12.418040000000005,0.025132333241877892,0.0
12.420424000000004,0.02316094102382191,0.0
12.422828000000004,0.02025838324598761,0.0
12.425216,0.015213955094876249,0.0
12.427596,0.008958822130266143,0.0
12.429996000000004,0.008570221778046384,0.0
12.432384,0.006970916612327883,0.0
12.434764,0.004440445886831061,0.0
12.437164000000005,0.00204974478819445,0.0
12.439552,0.0020497447881944503,0.0
12.441936000000004,0.0018009140628349003,0.0
12.444332000000005,0.0016918529643355606,0.0
12.44672,0.0016918529643355606,0.0
12.449104000000004,0.0019406836896951104,0.0
12.451500000000005,0.00024883072535954984,0.0
12.453888,0.0017083662642178405,0.0
12.456272000000006,0.0017083662642178403,0.0
12.458668000000005,0.003028132176215921,0.0
12.461056,0.003028132176215921,0.0
12.463436000000002,0.005558602901712742,0.0
12.465832,0.009160008813848094,0.0
12.468224,0.013692580285761766,0.0
12.470604000000002,0.017433755824757327,0.0
12.473004000000005,0.01982445692339394,0.0
12.475392,0.022215158022030553,0.0
12.477772000000002,0.02339515430716842,0.0
12.480172000000003,0.028719121712000206,0.0
12.482556000000002,0.03511402430347052,0.0
12.484940000000002,0.04071753096202272,0.0
12.487340000000003,0.04725220318035324,0.0
12.489728,0.053786875398683764,0.0
12.492108000000002,0.06167202205737324,0.0
12.494508000000003,0.07370113983575662,0.0
12.496896,0.08226862132886487,0.0
12.49928,0.0881516672411375,0.0
12.501676000000003,0.09336657354746994,0.0
12.504064,0.10311405132571605,0.0
12.506448,0.11061059763218578,0.0
12.508844000000003,0.11942690985065357,0.0
12.511232,0.12249994578370894,0.0
12.513616,0.12822670876923908,0.0
12.516016,0.13195137100835236,0.0
12.518404000000004,0.13632765955352355,0.0
12.520788000000003,0.1420544225390537,0.0
12.523184,0.14685001996480548,0.0
12.525576,0.1548584229504729,0.0
12.527952,0.1545788836967525,0.0
12.530348000000004,0.15322840925639353,0.0
12.532736,0.15560259705514787,0.0
12.535116000000002,0.1570456192941239,0.0
12.537512,0.15941980709287823,0.0
12.539900000000005,0.15937258526463507,0.0
12.542280000000003,0.14996648601036555,0.0
12.544684000000004,0.14577529306242848,0.0
12.547072,0.14745063272688175,0.0
12.549452000000002,0.14847434608527713,0.0
12.551848,0.14335198757756173,0.0
12.554236000000005,0.1402317298162632,0.0
12.556616000000004,0.1381824072416032,0.0
12.559012000000005,0.1434898613465527,0.0
12.5614,0.1433500917196925,0.0
12.563776000000004,0.14535219246610936,0.0
12.566172000000002,0.1494961635858033,0.0
12.568560000000003,0.153500365078637,0.0
12.570956000000002,0.15522292657133344,0.0
12.573356000000004,0.1540122217578347,0.0
12.575744,0.1620206247435021,0.0
12.578124000000004,0.16909786216939118,0.0
12.58052,0.17231066772930675,0.0
12.582908000000003,0.1733816029159453,0.0
12.585292000000004,0.17165904142324886,0.0
12.587688,0.17394068142338612,0.0
12.590076000000003,0.18250816291649438,0.0
12.592456000000006,0.18800260847654723,0.0
12.594852000000005,0.19070355735726516,0.0
12.59724,0.18912076549142895,0.0
12.599620000000002,0.1896798439988698,0.0
12.602024,0.18702611694639504,0.0
12.604412000000004,0.18316168508042155,0.0
12.606796000000005,0.17422211653497582,0.0
12.609192,0.1660739439224482,0.0
12.611580000000004,0.15685483612328205,0.0
12.61396,0.14470246201792072,0.0
12.616356000000003,0.13258079644092027,0.0
12.618744,0.12485193270897328,0.0
12.621124000000002,0.11819400416366484,0.0
12.623524000000003,0.10753187412552268,0.0
12.625908000000004,0.09966324076671546,0.0
12.628292000000002,0.09258600334082638,0.0
12.630688,0.09179460740790826,0.0
12.633076000000004,0.09486764334096363,0.0
12.635472,0.08900111072857331,0.0
12.637868000000005,0.08108525554152296,0.0
12.640256,0.07284263927250904,0.0
12.642636000000005,0.06580883195912465,0.0
12.645032,0.06929548919915292,0.0
12.647424,0.08595633804506865,0.0
12.649804000000003,0.11541929144453435,0.0
12.6522,0.15065433379990412,0.0
12.654588000000004,0.18709818511090337,0.0
12.656968,0.228195968362925,0.009200227869123088
12.659368,0.2766014106084437,0.018263203668379833
12.661752,0.3353875477805149,0.026916185164090438
12.664132000000002,0.4028483316863245,0.03513853730682423
12.666528,0.47410981232998206,0.04327079764742932
12.668916000000005,0.5521670952879392,0.0513397642305612
12.671296000000003,0.6305945694403644,0.059889275293588076
12.673696,0.7135362059069519,0.06848118258172006
12.676084000000005,0.8027617880086408,0.0770157281946928
12.67848,0.8916133872001233,0.08558565597875054
12.680880000000002,0.9807426297874569,0.0943636122410566
12.683268000000004,1.0845363080478971,0.10297082528345136
12.685648,1.1994567511974341,0.11128700581462997
12.688052,1.3228974540118361,0.1194136093676133
12.690440000000002,1.450995880482999,0.12723151780193742
12.692820000000005,1.5746273664682429,0.13486436268947155
12.695216000000002,1.6835018689817627,0.14256661029397918
12.697604000000004,1.7806452021283714,0.15032843687445785
12.699984,1.8715971374384954,0.15817682578844622
12.702380000000003,1.967346566032241,0.16577333875167682
12.704768,2.057930206005766,0.16417994513288808
12.707152,2.137621294373541,0.1628525744523496
12.709544,2.2047898174414864,0.16209773697286345
12.711932000000004,2.2644164682325876,0.16182571936480444
12.714316000000004,2.323298944919015,0.16151136745852343
12.716712,2.3703104826116697,0.1615042929730563
12.719100000000005,2.4141583324305222,0.16107853878994033
12.721484000000004,2.4525608543754336,0.1605679385384924
12.72388,2.4853310569913005,0.16014025424562783
12.726268000000005,2.5127012577036014,0.15983404021762837
12.728648,2.538862649460273,0.1592534844689916
12.731044000000004,2.5547831159172523,0.15888474253119694
12.733432,2.5589724130073206,0.15884916602383917
12.735812000000005,2.5580412474475427,0.15889205035923043
12.738212000000004,2.5497533052081542,0.15935681471425217
12.7406,2.541557910767384,0.1598960724287188
12.742980000000005,2.533082977072893,0.1604978743157461
12.745376,2.5207436115124287,0.16132341704486214
12.747764000000004,2.5116170515118794,0.1619425197512773
12.750144,2.4988583770708344,0.16279186274072813
12.752544,2.4903362215481,0.1634948571111365
12.754932000000004,2.4876805986377555,0.16391395716266985
12.757312,2.48623568054091,0.16425654705224288
12.759712,2.48241657464531,0.16466069855114507
12.762100000000004,2.4739416409508186,0.1652675186801483
12.764484000000005,2.4725439446822173,0.16549437624501684
12.766884000000005,2.4771525506528658,0.1654009289213633
12.769272,2.4792471991979,0.16538773287786251
12.771652000000003,2.479759055877097,0.16541308055826545
12.774052000000005,2.4830644092356295,0.16530933977819834
12.77644,2.4862299929673024,0.16523022882210064
12.778824,2.493911634871006,0.16496706941984154
12.781220000000005,2.503176068640546,0.16466177709836172
12.783612000000003,2.5082965312903918,0.1645914053212928
12.785992,2.516210490619573,0.16439184920650507
12.788396,2.523844910695034,0.16424445633525162
12.790784000000002,2.5341330578229693,0.16398647216895876
12.793164000000004,2.5542919390561285,0.16321265764966406
12.795560000000002,2.570446618796454,0.16265749669249155
12.797948000000003,2.5850185066709437,0.16214467042143585
12.800328,2.598519459358795,0.16171347468681635
12.802732,2.6095990024196487,0.16145782901646547
12.805120000000002,2.6236118117866973,0.16105891583010695
12.807500000000005,2.6392546348478256,0.16050586853700943
12.809904000000005,2.6553167667895345,0.1598825787141616
12.812292,2.6726821513433587,0.15929321694006798
12.814672000000002,2.6864154214566875,0.15896672347780313
12.817076,2.7026626489956302,0.15856810470276841
12.819464000000004,2.724776409146963,0.15792168095005607
12.821844,2.750941592619373,0.1570220454876284
12.824240000000003,2.7799002727711177,0.1560492339742631
12.826628,2.8068568521764465,0.15519152836762468
12.829008000000002,2.833813431581775,0.15433382276098623
12.831404,2.866916082853213,0.15321095692624065
12.833792000000004,2.897784315952758,0.15211385017974113
12.836176000000002,2.9239967212534115,0.15117271524581166
12.838572,2.9543530976737586,0.15006994805354695
12.840960000000004,2.977632236668216,0.14928568409794474
12.843340000000005,3.0045434901031705,0.14830021787220765
12.845736000000002,3.0325256787247636,0.14726833248826762
12.848124000000006,3.0606476369732163,0.14624027019943153
12.850504,3.0887695952216694,0.14520787355015147
12.852908,3.118614114962819,0.14415862177268676
12.855292000000006,3.1511123617564434,0.14306262621407015
12.857676000000003,3.182399903736569,0.14202128877918108
12.860072000000002,3.2123841931045782,0.14100407099002144
12.86246,3.2386438202334746,0.14008435248718554
12.86484,3.2659743825490093,0.1391357523226961
12.867244,3.2867867859460955,0.13840272332730338
12.869632000000005,3.298519851170876,0.13800904866436056
12.872012000000003,3.3023842830368495,0.13788282506287272
12.874408000000004,3.304106844529546,0.1378448663325343
12.876796,3.3079712763955196,0.137720029107313
12.879180000000003,3.30811104602238,0.13770353888582382
12.881576000000004,3.3101131467687965,0.1376349915965792
12.883964,3.316910844940965,0.13741807965038197
12.886344,3.3203559679263583,0.13734851383109536
12.888748,3.3279450620314455,0.13712758234772515
12.891136000000005,3.332181580949756,0.137049534129255
12.893516000000004,3.335626703935149,0.136981280847657
12.895912000000004,3.335207395054568,0.1370296391977229
12.898304000000005,3.3377213524801825,0.1369871523511164
12.900684000000004,3.3365106476666835,0.137043399628166
12.903080000000005,3.3305043454274332,0.1372368853936562
12.905468,3.326128056882262,0.13732735468535293
12.907852000000004,3.3163970924038977,0.13762143486263298
12.910248000000005,3.3125326605379244,0.13773626621882948
12.912636,3.3054554231120346,0.13797238738379078
12.915016,3.299309351245925,0.13818621629379552
12.91742,3.2978191071787064,0.13827656666179539
12.919808000000003,3.3011244605372387,0.13822110165718032
12.922188000000006,3.3073630802019665,0.1380702974210084
12.924584000000005,3.3101093550530587,0.1380805191711486
12.926972,3.311365385836931,0.1381826684270224
12.929356000000006,3.3091290718071678,0.13844760124995603
12.931752000000005,3.3055422833370454,0.1387860533834799
12.934144000000003,3.301164098934005,0.13913420456008366
12.936524000000006,3.2978568497176033,0.13943313332338447
12.938920000000005,3.297622636434256,0.13962292195520892
12.941308,3.298971215016745,0.13979337873417427
12.943688000000002,3.30297352065171,0.1399042131176467
12.946088000000003,3.303902790353619,0.14012159282926143
12.948472000000002,3.3054836863615855,0.14034622998059026
12.950852000000005,3.3109290142355263,0.1404540022024581
12.953252,3.3175378250947225,0.1405915353530711
12.955636000000004,3.3301529381931694,0.14053021250301675
12.958020000000005,3.343978756105115,0.14042249072740692
12.960416000000002,3.3619485451367543,0.14017472376163112
12.962804000000006,3.379638794914673,0.1399541668154939
12.965200000000005,3.3997504543195896,0.13963411829615557
12.967596,3.4218642144709226,0.13925805761271412
12.969984000000004,3.4433263483161984,0.13888221048864793
12.972368000000005,3.4674894310421913,0.13837020912396597
12.974764,3.4947255497012404,0.13775943157256396
12.977152000000004,3.525454013173925,0.13699496946047068
12.979532,3.5584641166467468,0.1361502317609306
12.981932,3.591753759373289,0.13527542081900468
12.984320000000004,3.6171747687410245,0.13462537479138437
12.9867,3.640593677362342,0.1340440120275442
12.989104000000005,3.6632211900507423,0.13347815632250173
12.991492,3.6851970764330844,0.13290588508168677
12.993876,3.7065213365093683,0.13232157145306597
12.996268,3.732269106959067,0.1315874079044813
12.998656000000004,3.757085711848987,0.13088797912277322
13.001040000000003,3.7804592944999316,0.13019391892236823
13.003436,3.801970546031319,0.12955459502389194
13.005824000000004,3.816264790509957,0.129135049469863
13.008204,3.826834372749482,0.12880317650494785
13.010600000000004,3.8412683868549804,0.12837766842926016
13.012988,3.850347725027287,0.12812580636777063
13.015368000000002,3.8578442713337573,0.12789071116190043
13.017764,3.8653408176402264,0.1276582352973603
13.020152000000005,3.872278285439256,0.12748236497389254
13.022532000000004,3.87656202618581,0.1273517533549358
13.024932,3.883779033238559,0.127155136147139
13.027316,3.888482082865694,0.12699026779568925
13.029700000000004,3.8939765284257466,0.12682108905617734
13.032096000000005,3.9081310032775245,0.1264603602574898
13.034484,3.9222854781293024,0.12609963145880226
13.036868000000004,3.9353690177944425,0.12577117712237731
13.039264000000005,3.953667463765914,0.12531143698128586
13.041652,3.97610988085708,0.12474912324713158
13.044048000000004,3.990543894962579,0.12437918874444391
13.046444,4.001625333881302,0.12411034213032714
13.048832000000004,4.015360499852499,0.12380619243228096
13.051212,4.028444039517638,0.1234962151291056
13.053608000000004,4.045951089556193,0.12305034164215763
13.055996,4.0630388307141665,0.12263859457908205
13.058376000000004,4.079195406312362,0.12225231389735698
13.060772,4.098425017843612,0.12178596352890278
13.063160000000003,4.114861132695527,0.12137114781907704
13.065540000000006,4.129155377174165,0.1210162539033452
13.06794,4.143729160906524,0.1206389528098394
13.070324,4.158023405385162,0.12028405889410755
13.072708,4.169524153184466,0.11998853088301628
13.075104000000003,4.177812095423854,0.11977835768881726
13.077492,4.186379576916963,0.11954551965864932
13.079876,4.191734252850154,0.11940252301527657
13.082272000000003,4.1949470584100705,0.11931584075218349
13.08466,4.199370568783485,0.11918833247653321
13.087040000000002,4.199230799156625,0.11920047437706308
13.089440000000003,4.196669619902767,0.11929164257587191
13.091828,4.200906138821078,0.11924944962872416
13.094224000000004,4.209566168112803,0.11908411793785494
13.09662,4.215432700725194,0.11896731817093276
13.099008000000005,4.223673421136338,0.11884186879803328
13.101388,4.234567868599958,0.11868710907599621
13.103792000000006,4.248814891250354,0.11844202517300148
13.106180000000002,4.260128647594553,0.11825344984984808
13.108560000000004,4.272513339125393,0.11804148958167941
13.110960000000006,4.288482923268484,0.11778330173841375
13.113348000000002,4.307385773717771,0.11747058582739442
13.115732,4.324938149726699,0.11720755520316505
13.118128,4.348636597601737,0.11681924390685858
13.120516000000002,4.3708448014095564,0.11649210719418406
13.1229,4.397988372269989,0.11606949451145056
13.125296,4.4248524038767,0.11567468427867922
13.127684000000002,4.450273413244434,0.11527332818682492
