Time,Force,Position
12.322603999999998,0.11518190484853123,0.0
12.324984,0.13162117035759546,0.0
12.327388,0.1519248677326332,0.0
12.329771999999998,0.17236833473453114,0.0
12.332156,0.19267203210956887,0.0
12.33456,0.20962315429783082,0.0
12.336944,0.2279247509264517,0.0
12.339324,0.24222214606223888,0.0
12.341728,0.25451744045160923,0.0
12.344116,0.265741799654341,0.0
12.346495999999998,0.2746813681997868,0.0
12.348892,0.2793371959986784,0.0
12.35128,0.277707182304599,0.0
12.353659999999998,0.27328367193118464,0.0
12.356056,0.26313339857224016,0.0
12.358444,0.24963055002651985,0.0
12.360824,0.23505676629416108,0.0
12.363224,0.2196915866288842,0.0
12.365612,0.2052544218662368,0.0
12.367992,0.19174842266336772,0.0
12.370387999999998,0.17717148827386012,0.0
12.37278,0.1607322227647959,0.0
12.37516,0.1404285253897582,0.0
12.377555999999998,0.12199030979142587,0.0
12.37994,0.10290046788703569,0.0
12.382336,0.08594934569877374,0.0
12.384732,0.06764774907015286,0.0
12.38712,0.053353504591514486,0.0
12.389499999999998,0.04105821020214417,0.0
12.391896,0.029833850999412347,0.0
12.394284,0.0206115925430974,0.0
12.396664,0.019400887729598658,0.0
12.39906,0.01954065735645887,0.0
12.401447999999998,0.014462370019837828,0.0
12.403832,0.011246413802773433,0.0
12.406228,0.012037809735691542,0.0
12.408611999999998,0.014831306415026505,0.0
12.410996,0.014828155757877699,0.0
12.413391999999998,0.016693637534583142,0.0
12.415776,0.01855911931128859,0.0
12.418171999999998,0.02028483146113383,0.0
12.420568,0.021219147678060952,0.0
12.422956,0.021219147678060952,0.0
12.425339999999998,0.019213896274495296,0.0
12.427744,0.01800004080384775,0.0
12.430132,0.01800004080384775,0.0
12.432512,0.01800004080384775,0.0
12.434908,0.017996890146698946,0.0
12.437296,0.017996890146698946,0.0
12.43968,0.017996890146698946,0.0
12.442076,0.017996890146698946,0.0
12.444464,0.01412930762357665,0.0
12.446844,0.011053121033372464,0.0
12.44924,0.011053121033372464,0.0
12.451632,0.011053121033372464,0.0
12.454012,0.009187639256667017,0.0
12.456408,0.006390991920183251,0.0
12.458796,0.006390991920183251,0.0
12.461175999999998,0.004525510143477806,0.0
12.463572,0.002660028366772361,0.0
12.46596,0.0009343162169271253,0.0
12.468339999999998,0.0,0.0
12.470736,0.0,0.0
12.473124,0.0,0.0
12.475507999999998,0.0,0.0
12.477904,0.0,0.0
12.480292,0.0,0.0
12.482688,0.0,0.0
12.485091999999998,0.0,0.0
12.487479999999998,0.00014292028400901476,0.0
12.48986,0.00014292028400901473,0.0
12.492256,0.00014292028400901473,0.0
12.494644,0.00014292028400901476,0.0
12.497024,0.00014292028400901476,0.0
12.49942,0.00014292028400901476,0.0
12.501808,0.00014292028400901476,0.0
12.504188,0.0007051494485986604,0.0
12.506588,0.0035490186133255775,0.0
12.508976,0.006392887778052495,0.0
12.511356,0.009376526569639622,0.0
12.513752,0.014502035734503808,0.0
12.51614,0.014692177846755975,0.0
12.51852,0.021819787758037015,0.0
12.520924,0.029087167296178267,0.0
12.523312,0.0362147772074593,0.0
12.525692,0.04320261749188013,0.0
12.528092,0.04991091852258054,0.0
12.53048,0.05755038511305927,0.0
12.53286,0.06225658539734282,0.0
12.535256,0.06868219651717401,0.0
12.537644,0.07245723124167926,0.0
12.540024,0.07716343152596282,0.0
12.542424,0.078796595877191,0.0
12.544812,0.0813609257881975,0.0
12.547196,0.08392525569920399,0.0
12.549592,0.08742075116998882,0.0
12.55198,0.09049378710304419,0.0
12.55436,0.08886377340896481,0.0
12.55676,0.08644236378196733,0.0
12.559148,0.08388118452810964,0.0
12.561528,0.07875567536324544,0.0
12.563928,0.08005892797536124,0.0
12.566316,0.07293131806408021,0.0
12.568696,0.06566393852593895,0.0
12.571096,0.05853632861465792,0.0
12.573484,0.0515484883302371,0.0
12.575864,0.04484018729953669,0.0
12.578264,0.03720072070905796,0.0
12.580652,0.03249452042477439,0.0
12.583032,0.025925989020934192,0.0
12.585439999999998,0.022150954296428955,0.0
12.587824,0.0174447540121454,0.0
12.590204,0.01581158966091722,0.0
12.5926,0.013247259749910725,0.0
12.594988,0.010682929838904228,0.0
12.597368,0.0071874343681194094,0.0
12.599768,0.0035521692704743816,0.0
12.602156,0.002338313799826836,0.0
12.604536,0.0019158542620974011,0.0
12.606939999999998,0.0014933947243679659,0.0
12.609327999999998,0.0014933947243679659,0.0
12.611708,0.0,0.0
12.614104,0.0,0.0
12.616492,0.0,0.0
12.618876,0.0013007156956568807,0.0
12.621272,0.005347706242405563,0.0
12.62366,0.01442261164038333,0.0
12.626044,0.025452395956534805,0.0
12.62844,0.03964776400435871,0.0
12.630828,0.05607755022407674,0.0
12.633208,0.07753525129502385,0.0
12.635608,0.10574342870989648,0.0
12.637996,0.13790858578935966,0.0
12.640376,0.17696398883960857,0.0
12.642772,0.22197847230086487,0.007515310608907374
12.64516,0.2709499354267117,0.01482581832835268
12.64754,0.3222955863513129,0.02202859622708878
12.649936,0.37457240283569243,0.029145791310261772
12.652324,0.43192435599954415,0.03573847163745918
12.65472,0.4909988706560923,0.04224343852504302
12.65712,0.5460691838198067,0.04912125025697279
12.659503999999998,0.600208331423743,0.05607611159210841
12.661888,0.6562098101472358,0.06287943600806242
12.664284,0.7151445551769238,0.06942882324638003
12.666671999999998,0.7724990452572345,0.07606768628231032
12.669052,0.8258965556729545,0.08286708918208542
12.671447999999998,0.8751973167972239,0.08959628494794901
12.673835999999998,0.9244055301228762,0.09619157806334491
12.67622,0.9720309515826921,0.10274553229137072
12.678615999999998,1.0150005452436166,0.10960653796939598
12.681003999999998,1.050800353680035,0.1167058849980812
12.683384,1.075705714652834,0.12428747590093878
12.68578,1.097725031147681,0.13172889535528104
12.688168,1.110852000925325,0.13940298367642126
12.690548,1.118019890291962,0.13956176138865412
12.692944,1.1213705696208685,0.13987218457781475
12.695332,1.1203449604046036,0.14053875975000554
12.697716,1.1222526174945342,0.14086298412117487
12.700112,1.1169432675317157,0.14199783505494146
12.7025,1.1089801905164223,0.14331749373109837
12.704895999999998,1.1090255164867961,0.143795894931099
12.707296,1.1107934039498666,0.1441636194508521
12.709684,1.11055919066652,0.14473187343623908
12.712063999999998,1.1081831070098964,0.1455206099470582
12.71446,1.10794889372655,0.14606239211217112
12.716852,1.1098565508164806,0.14636860111922204
12.719231999999998,1.1086911719733556,0.14699271304289888
12.721632,1.1055236923838139,0.14779867661795235
12.72402,1.097840154622241,0.1489548166528879
12.726399999999998,1.092438256860805,0.14985550657438348
12.728796,1.091040560592203,0.15033903456679068
12.731184,1.0943459139507354,0.15014403259881964
12.733567999999998,1.0952298576822705,0.15032288473027305
12.735964,1.097836362906502,0.15037032167504544
12.738352,1.0993719329440952,0.15056193720090305
12.740732,1.1015591292877462,0.15076482375315
12.743132,1.1076107574973708,0.15054003896339885
12.74552,1.106585148281106,0.15117562145473326
12.747899999999998,1.1062111653708993,0.15184711629194342
12.750296,1.1086306791400276,0.1522127440651818
12.752684,1.1087685529090188,0.15290319999558602
12.755067999999998,1.107044095558453,0.153776651763995
12.757464,1.1065303430213862,0.15445174222498861
12.759852,1.1041542593647624,0.15530965609914946
12.762235999999998,1.0979137438421656,0.1565866796130449
12.764636,1.0908818323866503,0.15788348380599554
12.76702,1.0889250576106073,0.15857684497878977
12.769403999999998,1.0869682828345644,0.15927366692591322
12.771804,1.09166943660383,0.15930082096798448
12.774192,1.0994436263061507,0.1589897508612612
12.776571999999998,1.106007111194973,0.15887024286580434
12.778968,1.1142459357482484,0.1588984186029049
12.78136,1.124766400301661,0.15862168937529308
12.783739999999998,1.1347750081758758,0.15827256503681453
12.786136,1.1466459471696477,0.15775040354800046
12.788519999999998,1.1575857206036413,0.15731191830820276
12.7909,1.1648008317985208,0.1571987498854076
12.793304,1.1793727196730106,0.15624854439318508
12.795692,1.1966455564282181,0.15483397839352184
12.798072,1.2148495587432038,0.15344958154949048
12.800476,1.227187028445799,0.15256972653385897
12.802864,1.2433889300143683,0.15135123480919382
12.805243999999998,1.2621047890085517,0.1500878000534284
12.807644,1.2836141446820704,0.14860220318567965
12.810032,1.3087083929678418,0.14681954504658068
12.812411999999998,1.334314497932811,0.14510883194517013
12.814812,1.3567077973378645,0.1438219693813256
12.8172,1.3800322623026964,0.1424657466527213
12.819579999999998,1.4014943961479718,0.14136961265534292
12.821984,1.4198834940601914,0.14059299700410582
12.824372,1.434547929733298,0.14002712463401368
12.826752,1.444975846488094,0.13965704950502647
12.829148,1.4574058639893064,0.1391573003539458
12.831536,1.4760745011552467,0.13836303900938887
12.833916,1.4935324335076883,0.1376925753135599
12.836312,1.5127129273528261,0.13694866946307016
12.8387,1.537340644929774,0.13590942154765262
12.841079999999998,1.5554029817600306,0.13548562172489803
12.843476,1.5758395063890414,0.13505435747485922
12.845859999999998,1.5893385632190231,0.13507565371277291
12.848256,1.6097750878480337,0.13459543785262712
12.850652,1.627138576543989,0.13436473722869727
12.853036,1.6387753022544138,0.13448490634936286
12.85542,1.6513431935246172,0.13456556293357916
12.85782,1.6623282929289842,0.13468164969750468
12.860208,1.6733133923333514,0.1347948233033713
12.862588,1.6810856861778032,0.13513970425111047
12.864984,1.6876472752087561,0.13559789080645698
12.867372,1.6909960586797936,0.13630764633469544
12.869751999999998,1.6932739069641924,0.1371068296122842
12.872156,1.700347352674343,0.1376029383369842
12.874544,1.7110056909967466,0.13790731071449733
12.876924,1.7152384181993192,0.13874704138289676
12.87932,1.709879950550388,0.14021134683819134
12.881708,1.7077342884613724,0.14138581365593908
12.884092,1.7020037337601035,0.14275612128924228
12.886488,1.690406646446445,0.1445229062383984
12.888872,1.6820223646927015,0.14604533090467822
12.891251999999998,1.670053190326705,0.1477175563531856
12.893656,1.6670235845061545,0.14875100740507013
12.896044,1.66012954681963,0.15002230869351993
12.898424,1.6524441132001877,0.15133326108061051
12.90082,1.648623111446719,0.152393440505742
12.903208,1.6430795482005536,0.1535032726925959
12.905592,1.6404692512605834,0.15440078274072658
12.907988,1.6392094287609722,0.1551403506728829
12.910372,1.6465170877544693,0.1552323087592318
12.912755999999998,1.6581084874945207,0.15501576876193698
12.915152,1.6721212968615695,0.15457719055585742
12.917535999999998,1.690138307721452,0.1538907558421173
12.919936,1.7095057930216935,0.15311415673910028
12.922332,1.7282216520158769,0.1523444909079841
12.92472,1.7513610213834745,0.1512034194964995
12.927104,1.7795755274305447,0.14966713039877771
12.9295,1.8060674719849183,0.1482657426357276
12.931888,1.834142208405128,0.14677335294057725
12.934268,1.8663609159450318,0.14496323951611353
12.936664,1.8975086882982972,0.14323472822208544
12.939056,1.9293080869576202,0.1415191906289992
12.941436,1.9520281474446373,0.14041426211782995
12.943832,1.978612639797628,0.13909902992606127
12.94622,2.005988528083537,0.13773299069275544
12.948604,2.034575121182944,0.13632853761989913
12.951,2.059157512789518,0.1351440081156193
12.953384,2.0786647677166195,0.1342986314237095
12.955768,2.0950989867106657,0.13366279035384165
12.958164,2.1063182993983793,0.13340047642513816
12.960552,2.112602245033481,0.13341839584661316
12.962936,2.118746421041722,0.13346623284060388
12.965336,2.121165934810851,0.13368089632368998
12.967724,2.1223747437664806,0.1339834616387889
12.970104,2.1226523871623315,0.13432363514171738
12.9725,2.1229300305581833,0.1346609080612881
12.974888,2.1232076739540346,0.13499532938617517
12.977268,2.1222746125363865,0.1354147800193677
12.979664,2.1260446007458738,0.13551440825035563
12.982052,2.129023193022443,0.1356258511450034
12.984448,2.1344231949260095,0.13557510538456258
12.986843999999998,2.1351673690306843,0.13569598606268524
12.989232,2.1466208950017442,0.13523199855719498
12.991612,2.153418593173913,0.1349443402109514
12.994008,2.1615667657864406,0.13455324575626995
12.996396,2.163848405786578,0.13441453946886076
12.998776,2.169994477652689,0.13410851899210616
13.001179999999998,2.1792135854518557,0.133643002364105
13.003564,2.191365959557217,0.13304835207746032
13.005944,2.2016560025430216,0.1325144956331945
13.00834,2.2130169807154645,0.13191354870430813
13.010728,2.224238189261047,0.1313441267423799
13.013112,2.2350400889260498,0.1308347830851442
13.015508,2.2429087222848563,0.13046437849188997
13.017896,2.2506375860168037,0.1301173060321126
13.020276,2.2594373849353895,0.1297192095585022
13.02268,2.2693081190406135,0.1292725169866584
13.025068,2.278247687586059,0.12885558693030436
13.027448,2.282763745758091,0.12870793747334808
13.029844,2.2900733006094565,0.1284696982804255
13.032232,2.2951012154606856,0.12836734835357538
13.034612,2.3081375332975824,0.12791869729104305
13.037016,2.3144687007609277,0.12785105576860092
13.039404,2.323593364903607,0.12769127876059655
13.041784,2.3335094249792045,0.12752950022030554
13.04418,2.347289916920776,0.12722041168662482
13.046568,2.3633520488624846,0.12680169125077825
13.048948,2.3804851159908322,0.12634538520503896
13.051344,2.3946849168129845,0.12599743722680667
13.053732,2.41274914950111,0.12551274300738727
13.056112,2.432675713308792,0.12497921867215829
13.058512,2.4508797156237776,0.12447970705380836
13.060896,2.4745781634988164,0.12372881798394608
13.063292,2.500138942493412,0.12291648605959536
13.065692,2.5266308870477854,0.12207651553270601
13.068079999999998,2.5508411916020215,0.12136361110996474
13.07046,2.5726300865292604,0.12079302217557991
13.07286,2.5944189814564993,0.12020927648399335
13.075247999999998,2.6151369411970995,0.11966381603354072
13.077628,2.6289174331386707,0.11937997896176286
13.080023999999998,2.6447000258266598,0.11902405206054767
13.082415999999998,2.6592719137011493,0.11875692592148215
13.084796,2.6739835712024993,0.11846631705286244
13.087191999999998,2.690697329450266,0.11811607416749446
13.089579999999998,2.7063401525113937,0.11781733141755547
13.091964,2.720772270759024,0.11758198874433484
13.094368,2.7299894827003204,0.11754948724991628
13.096756,2.737856220201258,0.11759991658751523
13.099135999999998,2.7487959936352517,0.11754068221889015
13.101532,2.7568025007630492,0.11757302091276187
13.10392,2.7638778423310693,0.11763078453560454
13.1063,2.7746778461382027,0.11759590395662096
13.1087,2.7813338788256425,0.11771102925976594
13.111088,2.7873382852070225,0.11781298122265647
13.113468,2.7946931660287633,0.11784093249603435
13.115863999999998,2.804469456477501,0.1177566383196458
13.118251999999998,2.816946695806956,0.11752735044205752
13.120632,2.8346388414427435,0.11713132554073764
13.123027999999998,2.8588963678252233,0.11650797254691193
13.125415999999998,2.8883688005140353,0.1157088057347124
13.127796,2.9150477365235123,0.11497632736975308
13.1302,2.93599990954746,0.1143825185491694
13.132583999999998,2.9570918521982663,0.11377025953397919
13.134968,2.972037722982963,0.11334640453719037
13.137363999999998,2.9852610322749626,0.11294563119743327
13.139748,2.9996950463804612,0.11249077295906756
13.142143999999998,3.0182730316056534,0.11190127879954538
13.144548,3.0363391601516483,0.11128348502365591
13.146936,3.052263418324366,0.11074637764643415
13.149316,3.073123043549696,0.11008398686334182
13.151712,3.0919805680286085,0.10947708458518846
13.1541,3.1060424950817693,0.10898848635472412
13.156479999999998,3.1191732565751518,0.1085174830003608
13.158884,3.1340265795612314,0.10802902537364001
13.161272,3.145806866614256,0.1076362637286813
13.163652,3.1553055136671424,0.10733511718373677
13.166048,3.16331391665281,0.10712238593778946
13.168436,3.165967643705285,0.1070836303424444
13.170816,3.1647097170635425,0.10722231996922015
13.173212,3.1613099200485237,0.10742449594906436
13.1756,3.1596326845262013,0.10760800501749412
13.177979999999998,3.1647531471760484,0.10764143972226253
13.180376,3.169733840199034,0.10768990327064824
13.182764,3.1807208354612704,0.10758849080488384
13.185144,3.194641097029701,0.10742193925398423
13.187539999999998,3.2089806674787136,0.10721459250003512
13.189927999999998,3.221969763487367,0.1070719461332007
13.192308,3.2337481546825217,0.10697490140017832
13.194708,3.2458060851313975,0.10684780910139391
13.197091999999998,3.2558619148338557,0.10677371264803016
13.199488,3.266988679722952,0.10666753287656608
13.201892,3.283050811664661,0.10645232431733553
13.20428,3.300835505099066,0.10621874357907893
13.20666,3.3144762274137767,0.106092046012543
13.209063999999998,3.3330523167811004,0.1058607801877015
13.211448,3.3476242046555895,0.10571526220014693
13.213828,3.3603337614105224,0.10560140951699655
13.216228,3.374254022978954,0.10543868136377936
13.218616,3.382727060815576,0.10535793245245116
13.220992,3.3919914945851164,0.10527539711385539
13.223396,3.4024666331681552,0.1051483199478073
13.225784,3.406795699885083,0.10518163551843103
13.228164,3.416479442535204,0.10506267867687193
13.23056,3.422298753319351,0.10502326863574454
13.232948,3.4279782944766386,0.10499990761887565
13.235328,3.43617179305954,0.10496212105165316
13.237732,3.4439932045901043,0.10488379419770058
13.24012,3.45661021354642,0.10471914285060285
13.242504,3.46601441694282,0.10463810214061081
13.2449,3.4736960588465244,0.10457441695414847
13.247288,3.4833798014966444,0.10446900043631538
13.249668,3.4891991122807915,0.10443672012128054
13.252067999999998,3.498510767878575,0.10429756070835894
13.254456,3.513177099409551,0.10402179158738271
13.256836,3.5236994598208327,0.10384602438957452
13.259232,3.543580697658141,0.10345699458047274
13.26162,3.564812409935808,0.10301353669194878
13.264004,3.590979489266087,0.10248880966739168
13.2664,3.6254345108357544,0.10178081906091803
13.268788,3.658958366845643,0.10108630655183486
13.271172,3.68754685580292,0.10048232698628042
13.273568,3.717765358454276,0.09978922807201095
13.275956,3.737693818119828,0.0993254886744193
13.27834,3.7599039177855165,0.09879620216224329
13.280736,3.7823935567049256,0.09825130982026088
13.283124,3.7991564326388043,0.09780194764516588
13.285504,3.815639769318963,0.0973798957607226
13.2879,3.8285382133868677,0.09700201962358965
13.290284,3.8505159956270796,0.09645510715314538
13.292668,3.869560511561096,0.09595305886136915
13.295064,3.886742696375556,0.09548083780840168
13.297452,3.9047162771229336,0.09500650916795572
13.299832,3.917986808243177,0.09467565028458474
13.302228,3.9295347778707233,0.09436316372752195
13.304616,3.9402913515653517,0.0940483792354603
13.306995999999998,3.9469039541402866,0.09382317642775195
13.3094,3.9521660822748625,0.09364510908322012
13.311788,3.952772382610546,0.09352451947663533
13.314168,3.946021906266621,0.0935501347119479
13.316568,3.9395509691764157,0.09355196088031074
13.318952,3.937875629511962,0.0934886544042918
13.321336,3.9399249520866224,0.09338348600278076
13.32374,3.9499826776469495,0.09314449896315735
13.326124,3.959109237647499,0.09291838579183295
13.328508,3.963300430595436,0.09276834376965806
13.330904,3.970936746528766,0.09259956316812495
13.333292,3.980575163208512,0.0923996025344143
13.335676,3.9891426447016207,0.09222155838833199
13.338072,3.9943575510079534,0.09212573874938382
13.34046,4.005438989926676,0.09194790450216123
13.34284,4.017451594405177,0.09176169489032879
13.34524,4.033747939630231,0.0914953149743641
13.347628,4.049532428176089,0.09120177129151312
13.350008,4.062895507094949,0.09097423718284128
13.352404,4.079052082693145,0.09071869694099838
13.354792,4.093997953477841,0.09049637609281538
13.357171999999998,4.112016860195593,0.09022365576537154
13.359572,4.127614357286347,0.0900136287827618
13.361956,4.147495595123655,0.08971728503749452
13.36434,4.168307998520742,0.0894137506930534
13.366736,4.188608545238631,0.089091242637563
13.369124,4.205696286396605,0.08883427063085807
13.37152,4.221061466061881,0.08858957707434593
13.373916,4.238009437592995,0.08835183118059978
13.376304,4.257471366549723,0.08810544501562255
13.378684,4.275769812521194,0.08782428772342706
