Time,Force,Position
13.059384,0.034657550006260446,0.0
13.061772,0.03517587215221838,0.0
13.064156,0.03517587215221838,0.0
13.066552,0.03437801075254003,0.0
13.068944,0.03143827897958462,0.0
13.071324,0.02756738164685089,0.0
13.073724,0.02276531875433884,0.0
13.076112,0.01596115511540994,0.0
13.078492,0.009296761103341246,0.0
13.080892,0.005425863770607515,0.0
13.08328,0.002765671251372525,0.0
13.085664,0.002107579478554387,0.0
13.088063999999996,0.0005183221459579281,0.0
13.090448,0.0005183221459579281,0.0
13.092832,0.0018752620530771182,0.0
13.095231999999998,0.005234302706613158,0.0
13.097619999999996,0.006731012240592558,0.0
13.1,0.008087952147711748,0.0
13.102396,0.01237815836102611,0.0
13.104787999999996,0.01652859494748026,0.0
13.107172,0.023612297840129585,0.0
13.109567999999998,0.02817557784040413,0.0
13.111955999999998,0.04019464778566546,0.0
13.11434,0.05007184735764976,0.0
13.116739999999998,0.06167160842233048,0.0
13.119127999999998,0.07220043430037267,0.0
13.121508,0.08673346167124855,0.0
13.123912,0.09847299236278946,0.0
13.1263,0.1111436886141087,0.0
13.128679999999996,0.12488532005206648,0.0
13.131075999999998,0.13848718186316405,0.0
13.133459999999998,0.1511578781144833,0.0
13.13584,0.16475973992558088,0.0
13.138239999999998,0.17514879617676285,0.0
13.140624,0.1861830132672425,0.0
13.143008,0.19428396405152695,0.0
13.145403999999996,0.2061095770749247,0.0
13.147788,0.2160728589787658,0.0
13.150172,0.22417380976305026,0.0
13.152568,0.23055219905463828,0.0
13.154956,0.2321349909204745,0.0
13.157336,0.23571988353272758,0.0
13.159739999999998,0.22757171092019995,0.0
13.162127999999996,0.22370727905422647,0.0
13.164508,0.21439562345644325,0.0
13.166907999999998,0.2100193349112721,0.0
13.169295999999996,0.19670347782065517,0.0
13.171676,0.18804344852892987,0.0
13.174072,0.18152528961048162,0.0
13.176456,0.17565875699809125,0.0
13.178836,0.16634710140030806,0.0
13.181232,0.15782684173544295,0.0
13.18362,0.14744425095102126,0.0
13.186016,0.14548937203284754,0.0
13.188411999999998,0.1424635579280353,0.0
13.190799999999998,0.13729587344994604,0.0
13.19318,0.13119702341207842,0.0
13.195576,0.125237943001071,0.0
13.197964,0.11820792740342506,0.0
13.200344,0.11504234367175264,0.0
13.202747999999998,0.11131768143263934,0.0
13.205132,0.10451998326047068,0.0
13.207516,0.10638231438002732,0.0
13.209911999999996,0.10531137919338879,0.0
13.2123,0.11047906367147808,0.0
13.21468,0.10619532292492397,0.0
13.217083999999998,0.11071138109695534,0.0
13.219471999999998,0.11364464740315051,0.0
13.221852,0.1133651081494301,0.0
13.224247999999998,0.10763834516389997,0.0
13.226635999999996,0.10828997146995786,0.0
13.229016,0.10856951072367829,0.0
13.231419999999998,0.10842974109681808,0.0
13.233807999999998,0.10121273404406879,0.0
13.236188,0.0918473911512822,0.0
13.238587999999998,0.08555508419155099,0.0
13.240971999999998,0.07833161167204146,0.0
13.243356,0.07297047027208856,0.0
13.245751999999998,0.06760932887213567,0.0
13.248139999999998,0.06024608672576593,0.0
13.25052,0.05530425420639367,0.0
13.252923999999998,0.05343545762007678,0.0
13.255311999999998,0.047702229167786415,0.0
13.257695999999996,0.042760396648414155,0.0
13.260091999999998,0.03530460670342735,0.0
13.262479999999998,0.03343581011711048,0.0
13.26486,0.027702581664820106,0.0
13.267255999999998,0.021689813958809312,0.0
13.269643999999998,0.015816815879658733,0.0
13.272024,0.013668480039621433,0.0
13.274419999999996,0.008726647520249172,0.0
13.276808,0.004296671680074599,0.0
13.279192,0.0012171702802589793,0.0
13.281596,0.0,0.0
13.283979999999998,0.0,0.0
13.28636,0.00387089733273373,0.0
13.288764,0.013748096904718014,0.0
13.291152,0.026418793156037255,0.0
13.293535999999998,0.042162525340411885,0.0
13.295932,0.05762671827106608,0.0
13.298315999999998,0.07574463825419506,0.0
13.3007,0.09488627159571938,0.0
13.303095999999998,0.11826442385555469,0.0
13.305483999999998,0.1413158150334264,0.0
13.307864,0.16925535143566706,0.0
13.310259999999998,0.20087232824877774,0.0
13.312647999999998,0.2352355799129803,0.0
13.315032,0.2726246456819951,0.0
13.317427999999998,0.30982671999590655,0.0
13.319815999999998,0.3496352995340496,0.0
13.322196,0.38939665724394945,0.0
13.324592,0.4292505627524663,0.0
13.32698,0.47199051273893533,0.005777816796952436
13.32936,0.5197583775766333,0.011371039610329313
13.331756,0.5653371502128112,0.017521307834389682
13.334148,0.6088601348075687,0.023829749901981983
13.336543999999998,0.6432565594017772,0.030829265944387604
13.33894,0.6777455317946027,0.03780722210587797
13.341328,0.7108368079188262,0.044962881523256795
13.343711999999998,0.7470936677747221,0.052090169639472515
13.346108,0.782791449123177,0.0592232796119773
13.348496,0.8199794745388512,0.06621763533416966
13.350875999999998,0.8546535425289109,0.07311081422941682
13.353272,0.8947295082804064,0.07954547506919224
13.35566,0.9273561495536753,0.08631956434487408
13.358043999999998,0.9543032496696573,0.0932781549713921
13.36044,0.9792954708674657,0.10021037375004911
13.362828,1.003124209080018,0.1070046567801393
13.365208,1.0271399387476743,0.11379893981022948
13.367603999999998,1.0494803287508772,0.12052735496156655
13.369991999999998,1.072519566888381,0.1272759288350124
13.372375999999996,1.0949071787198268,0.13419493241618224
13.374776,1.1141292068196003,0.13542248738558152
13.377159999999998,1.1238998096947301,0.13736645332746772
13.37954,1.1386530014507155,0.1385154209394823
13.381948,1.150240609475028,0.13972239381128343
13.384332,1.1645291663800585,0.14037963641890405
13.386715999999998,1.1747209739936384,0.14124072721394826
13.389107999999998,1.1840288378756831,0.14188520881376024
13.391495999999998,1.1872378517198605,0.14298565099155522
13.393876,1.1860705770188664,0.1444493777118957
13.396271999999998,1.1813184097056193,0.1462201952639617
13.398659999999998,1.1757748464594542,0.14797927786335088
13.401056,1.1628745065336794,0.15060306426731013
13.403452,1.1534665114215406,0.15276619172604755
13.40584,1.145781077802098,0.15486108888623074
13.408219999999998,1.1371644786228776,0.15704097385564478
13.41062,1.124543677950823,0.159738826080864
13.413008,1.1137852083983255,0.16217485289983807
13.415387999999998,1.1008848684725507,0.16492771111858534
13.417792,1.0891952333602748,0.16740231906070896
13.420176,1.0789958423152177,0.16958437838606177
13.422555999999998,1.0690759905238814,0.1716800695262328
13.424956,1.0685150161585715,0.17259158804589628
13.427344,1.0670228762334828,0.17354955097093216
13.429723999999998,1.0679521459353918,0.17415248413504145
13.43212,1.0691609548910213,0.17466164522375227
13.434512,1.072651403846788,0.17485339909855635
13.436892,1.0773525576160536,0.1748720862670306
13.439292,1.0851267473183746,0.17450786278357966
13.44168,1.0959739729537505,0.17373860192954563
13.44406,1.1089630689624042,0.17267929215988218
13.446456,1.122464021650255,0.1717097512740789
13.448844,1.1402487150846603,0.17014840479969803
13.451228,1.1601752788923425,0.16843034839234744
13.453624,1.178239511580468,0.16680509188855533
13.456012,1.1989574713210682,0.1650014561821335
13.458391999999998,1.2235398629276422,0.16273013291125604
13.460788,1.2489136504671339,0.16057881820112327
13.463176,1.2753583731932645,0.15821218555410232
13.465559999999998,1.3010116999864771,0.1560112181133757
13.467956,1.3245231564064124,0.1540605733984624
13.470344,1.3468239080128488,0.15224230820570794
13.472723999999998,1.363118357380035,0.15117568805518466
13.475124,1.376619310067886,0.15036473060511188
13.477512,1.3898407235020167,0.14966594282962623
13.479895999999998,1.4061351728692026,0.14869907188319817
13.482288,1.4230812485424462,0.1477872800466234
13.484676,1.4368145186557748,0.14721548114227442
13.487059999999998,1.4514789543288813,0.14657582133306937
13.489456,1.4632101236957926,0.14616383250162343
13.491844,1.4745219841821235,0.14588433904653572
13.494227999999998,1.4822489520562012,0.1458294864389633
13.496624,1.489836150303419,0.145831420424693
13.499012,1.4911375070576653,0.14642240583424931
13.501395999999998,1.496582834931606,0.1466311820745478
13.503787999999998,1.4964411694468762,0.1472427926742354
13.506175999999998,1.4955081080292287,0.14787088723642028
13.508572,1.491781549932246,0.14867970972013864
13.510972,1.4869840566486252,0.14960429528922636
13.51336,1.4825586504173416,0.15059353924280008
13.515744,1.4804148841861953,0.15134484642173557
13.51814,1.4830667153808008,0.15173406731579986
13.520528,1.4874411080681027,0.15203238429381608
13.522912,1.494189688554159,0.15224769606557484
13.525308,1.500798499413355,0.15249793956550556
13.527696,1.5041945047126355,0.1530386835342643
13.530076,1.5045174740788605,0.15383032072145997
13.532472,1.5047006738182254,0.15467080281182283
13.534864,1.507165513557727,0.15526425893292392
13.537244,1.5157764251633405,0.15535838632806387
13.53964,1.5245271063958135,0.15541808077901903
13.542028,1.5366303628150626,0.15515689397121124
13.544408,1.5467315184878947,0.15505649305223174
13.546808,1.562699206773117,0.154517920336084
13.549196,1.5783873558046189,0.15408197827970116
13.551576,1.6022236774486485,0.15304234375167536
13.553976,1.6237783590925408,0.15220378394334913
13.556364,1.6441223359229342,0.15146001079805832
13.558744,1.6716833198060772,0.15021302492746683
13.561144,1.697801281450244,0.14899380702060994
13.563532,1.7257815742139673,0.14773703738457672
13.565912,1.747103938432383,0.1468842947280411
13.568308,1.7667037411581015,0.14609287347092512
13.570696,1.7859314568314828,0.14525059633942525
13.57308,1.8063698773183625,0.1443178780492636
13.575476,1.825085736312546,0.14342447374722314
13.577864,1.8490165016130617,0.14217172275150336
13.580244,1.8753686765405755,0.140678041714908
13.582648,1.9002306074008697,0.1394301811717128
13.585036,1.9198776319548314,0.13857821302600518
13.587416,1.9396644261356533,0.1377119074493543
13.589819999999998,1.955819105875979,0.13714536748826392
13.592204,1.9727651815492226,0.1365587529849395
13.594584,1.9891994005432692,0.13596996781648804
13.596987999999998,2.0048422236043972,0.1354139505931072
13.599372,2.013128269985916,0.1353315142880284
13.601752,2.0227647908077935,0.13511917535797
13.604155999999998,2.03389155569689,0.13474746839118878
13.606543999999998,2.037941083160098,0.1347932048954814
13.608924,2.041850840996445,0.1348649698769646
13.611328,2.041337088459378,0.13523103994990265
13.613715999999998,2.044827537415145,0.13538059799051755
13.616096,2.0500405478636083,0.1354712760523831
13.618491999999998,2.055625645364409,0.13562704390531582
13.620879999999998,2.060139807678571,0.13584992641756566
13.62326,2.0713118985380414,0.13576927077790277
13.625668,2.079550723091317,0.13584022941972115
13.628056,2.0904432746970674,0.13583376131124572
13.630435999999998,2.1006841999967594,0.13581774093893842
13.63284,2.1149293267892855,0.1356148181475558
13.635224,2.1301056191415895,0.13538670921733162
13.637603999999998,2.150776357053947,0.1348448449517902
13.640008,2.170795468660246,0.13429110258583166
13.642396,2.1863910698931313,0.13399068905461894
13.644775999999998,2.1998448007527394,0.1338027938755687
13.647172,2.2165113371722627,0.13343046895006075
13.64956,2.2349004350844828,0.133017972468046
13.651939999999998,2.2539411593027605,0.13262207925761887
13.654336,2.272842113894178,0.1322338899885631
13.656724,2.2905323636720967,0.13191632151723906
13.659103999999996,2.311854727890512,0.13134556895522134
13.661499999999998,2.337181293601761,0.13062793527469305
13.663887999999998,2.3618562330069515,0.12989947467890756
13.666268,2.3824344231206918,0.12924135504285156
13.668672,2.3974256198757615,0.12877241204122278
13.67106,2.4088319240185787,0.1284444795291493
13.673439999999998,2.4163737962954226,0.12827134534669868
13.675836,2.420191006333153,0.128239702765698
13.678223999999998,2.4189330796914112,0.12844750001573235
13.680607999999998,2.414741886743474,0.12877726881821525
13.683012,2.4076174274893414,0.12923015344826272
13.685396,2.3972801626752935,0.12984013950416692
13.687775999999998,2.386663358607526,0.13049775995158214
13.690176,2.3823323960327287,0.13084017899742864
13.692564,2.3813540086447076,0.13099482689445477
13.694943999999998,2.377582124577351,0.13124840179364933
13.69734,2.3731586142039363,0.13148568658409948
13.699728,2.368595334203661,0.1317433450520093
13.702108,2.366173924576664,0.13189450946274883
13.704503999999998,2.3673846293901626,0.13181938440884491
13.706891999999998,2.364171823830247,0.131980063230949
13.709272,2.3517399104711654,0.13255805531594866
13.711667999999998,2.3433121986049175,0.13295214029064464
13.714055999999998,2.3412628760302576,0.13315128975517126
13.716436,2.348804748307101,0.13300505138212046
13.718832,2.3560670813302242,0.13290360494165857
13.72122,2.3690561773388774,0.13260013618732885
13.723615999999998,2.382976438907309,0.13226942570123576
13.726012,2.405044873088268,0.13159021636777476
13.7284,2.4313970480157816,0.13073467310239117
13.730783999999998,2.458959927756794,0.12980106711642966
13.73318,2.4854518723111676,0.12890381645711124
13.735568,2.5131545216790396,0.12793512465576537
13.737947999999998,2.5357820343674398,0.12719968276740776
13.740348,2.557059072615481,0.12657150981211124
13.742731999999998,2.5840628738490525,0.12576495114986913
13.745115999999998,2.6109269054557633,0.12499242719374049
13.747512,2.637418850010137,0.12417364046884748
13.749899999999998,2.6659128953109272,0.12330617887921139
13.75228,2.6939876317311366,0.12252676380529418
13.754675999999998,2.7284879792711783,0.12148882895944278
13.757063999999998,2.7715558083043277,0.12008489998009007
13.759444,2.8084775654713656,0.11893280707809839
13.761848,2.8420939692798712,0.11786231556432276
13.764236,2.870914775662626,0.11696311100789107
13.766616,2.9000151212991,0.11603855843006845
13.76902,2.929255236562435,0.11513010568414671
13.771404,2.955422315892714,0.11431473714490903
13.773783999999996,2.976374488916661,0.11369172279701018
13.776188,2.98903871970122,0.11334500933805806
13.778576,3.00049224567228,0.11305242029320706
13.780955999999998,3.013156476456839,0.11269974752262245
13.783356,3.024098145748701,0.11237423033140323
13.78574,3.032897944667287,0.11211836933100128
13.788119999999996,3.041046117279815,0.11185122816058413
13.790515999999998,3.043187987653092,0.11177197206195542
13.792903999999998,3.045329858026369,0.11169354812642855
13.795284,3.04998568582526,0.11158691318481091
13.797684,3.0497061465715403,0.11162101734090729
13.800067999999998,3.047564276198264,0.11169671517100585
13.802452,3.0394161035857366,0.1119444692056182
13.804847999999998,3.0268444205997946,0.11234733864086353
13.807232,3.0164146079871292,0.1126822791090515
13.809632,3.0042150120535243,0.11313965806481667
13.812028,2.9918756464930594,0.11361466831853459
13.814416,2.979396511305734,0.11410078180727161
13.816795999999998,2.963052944252436,0.11467757603455815
13.819196,2.948851247572415,0.11518852778692398
13.82158,2.9370709605193914,0.11559248852382373
13.823963999999998,2.931576514959339,0.11579484831229828
13.826368,2.928735796451761,0.11595264265758029
13.828756,2.9306906753699344,0.11599153759947217
13.831136,2.9362304469003613,0.11596880826422755
13.833532,2.9500581606701757,0.11569555631527889
13.83592,2.965608435932687,0.1154043579025173
13.838304,2.9863736175015303,0.11495565513867495
13.8407,3.006999029443514,0.11452682226380222
13.843084,3.0237600095195236,0.1141924751261261
13.845468,3.0434542559017284,0.11378260869405889
13.847864,3.0619377974704345,0.11341904159063336
13.850252,3.0838664620245333,0.11300829182570664
13.852631999999998,3.108868162511687,0.11251643510473731
13.855028,3.1378740644916756,0.11193357594520738
13.857416,3.170092772031579,0.11124577226250197
13.859799999999998,3.2035221843849815,0.11051176727521142
13.862196,3.2350892656188273,0.10981517595996722
13.864579999999998,3.267447742785592,0.10910974097930912
13.866963999999998,3.3036706518183294,0.1083324428932858
13.86936,3.3397537912242066,0.1075852458297164
13.871747999999998,3.3716929595103897,0.10695812567537351
13.874144,3.4051223718637926,0.10627054026314829
13.87654,3.435106661231802,0.10564861626720308
13.878928,3.4624372235473375,0.10507182516135075
13.881312,3.482690548436983,0.10467394842330882
13.883708,3.5000106070204335,0.1043381545039359
13.886096,3.515049025603747,0.10408243369659213
13.888476,3.5285046523212245,0.10382891285002431
13.890872,3.5421000486655614,0.10355803081788396
13.89326,3.5551835883307006,0.10326338277952238
13.895639999999998,3.5676155016897817,0.10295030024248289
13.898036,3.581677428742943,0.10255969561978588
13.900424,3.5902921320642944,0.10224668927407733
13.902803999999998,3.5916898283328966,0.10210763411956268
13.905204,3.591364963108803,0.10198491140194763
13.907592,3.5890379971382913,0.10190511090598453
13.909971999999998,3.589364758220255,0.10179572110542642
13.912368,3.5890398929961607,0.10167299838781133
13.914756,3.5829882647865365,0.10165099692469101
13.917152,3.579730133256247,0.10158582365907445
13.919544,3.580336433591931,0.1014513305870845
13.921932,3.5789406331811984,0.10135899235944226
13.924312,3.5732610920239116,0.10137426800401501
13.926716,3.570375047545959,0.10134831032167756
13.929104,3.5704222693742023,0.10126883719976879
13.931484,3.5696780952695275,0.1011890126478814
13.933887999999998,3.5682822948587942,0.10109627183794297
13.936272,3.5679574296346996,0.10097633568352118
13.938652,3.569494895530162,0.10082921985863409
13.941048,3.5743377147841575,0.10067091915909865
13.943436,3.5830449659041257,0.1004469499335015
13.945816,3.5842556707176243,0.10040723601654643
13.948212,3.587421254449297,0.10040649509115795
13.9506,3.595150118181244,0.10027002687321393
13.952979999999998,3.60259944265947,0.10016046175111921
13.955384,3.612190637510974,0.0999974058790388
13.957772,3.6164743782575277,0.09988837056996588
13.960152,3.623411846056557,0.09975248289222234
13.962548,3.631140709788504,0.09961407873772402
13.964936,3.630069774601866,0.09964172630226373
13.967316,3.6262053427358922,0.0997110788709291
13.969712,3.620338810123502,0.09982165546208126
13.9721,3.618196939750225,0.09987728781697085
13.974496,3.6112594719511963,0.10001632517237681
13.976891999999998,3.603390838592389,0.10016868415701895
13.979279999999996,3.6001780330324733,0.10025094786727591
13.98166,3.5917503211662254,0.10046210332218883
13.984056,3.5855570274718715,0.10068287910914711
13.986447999999998,3.5797830426580983,0.10086039520047209
13.988828,3.5702843956052113,0.1010894679346113
13.991224,3.5586438781790477,0.10137019426613478
13.993612,3.555570842245992,0.10143700646509571
13.995992,3.5529171151935173,0.101464446740344
13.998388,3.5487731440738233,0.10155814052909716
14.000776,3.5459796473944887,0.10159816704931929
14.003156,3.5426270722077127,0.10169046301925484
14.005552,3.5475152174320814,0.10167745467000357
14.00794,3.5514721970966723,0.10167796624526963
14.010336,3.5609236223213157,0.1015394006731938
14.012731999999998,3.5793146160914047,0.10123431778737546
14.015119999999998,3.6025012072872453,0.1008586201998403
14.0175,3.625548028856226,0.10049145073767421
14.019895999999996,3.6458013537458727,0.10015922161266243
14.022284,3.668708405687993,0.09979879517396957
14.024664,3.6928261624436125,0.09940316494754967
14.02706,3.716432062520034,0.09899351728716423
14.029448,3.749117300768762,0.09840354067292686
14.031828,3.781570221592012,0.0977764286402599
14.034224,3.812532898348043,0.09721717360653223
14.036612,3.8414934743576574,0.09668925523760422
14.039008,3.8747377911138257,0.09607417088261044
14.041403999999998,3.9038381367503,0.09555904336352936
14.043791999999998,3.9372222231333285,0.09496026937987323
14.046172,3.971956783956716,0.09431729178503662
14.048567999999998,4.006551575153242,0.09369528126192228
14.050955999999998,4.040634509670572,0.09304933801611226
14.05334,4.067268119709675,0.09249573867133946
14.055735999999998,4.0932501034427204,0.09193309145138857
14.058123999999998,4.113737641615712,0.09150294765287752
14.060508,4.128218877549454,0.0911729931086992
14.062903999999998,4.137904516057445,0.09090858102028987
14.065291999999998,4.149871794565572,0.09058995346913928
