Time,Force,Position
15.811139999999998,0.12191808620964603,0.0
15.813544,0.1323204882505753,0.0
15.815932,0.1424433510377842,0.0
15.818316,0.14872919253075514,0.0
15.820712,0.1544559555162853,0.0
15.823096,0.16153319294217436,0.0
15.825475999999998,0.17284694928637442,0.0
15.827884,0.18350907932451657,0.0
15.830268,0.19845495010921285,0.0
15.832648,0.21125895052063207,0.0
15.835048,0.2251338861186898,0.0
15.837432,0.23621532503741263,0.0
15.839811999999998,0.24236139690352337,0.0
15.842228,0.2494386343294125,0.0
15.844612,0.25637610212844136,0.0
15.846992,0.25916959880777635,0.0
15.849388,0.2608921603004728,0.0
15.851776,0.26955218959219807,0.0
15.85416,0.2731370822044511,0.0
15.856556,0.27886384518998125,0.0
15.858944,0.2811454851901186,0.0
15.861324,0.2888743489220655,0.0
15.863727999999998,0.2950204207881763,0.0
15.866115999999998,0.3047513852665401,0.0
15.868496,0.31383072343884605,0.0
15.870892,0.31941771679751596,0.0
15.87328,0.3204886519841545,0.0
15.87566,0.3244928534769882,0.0
15.878063999999998,0.3262154149696847,0.0
15.880451999999998,0.3228628397829089,0.0
15.882832,0.3182995597826344,0.0
15.885236,0.31559861090191643,0.0
15.887624,0.31797279870067074,0.0
15.890007999999998,0.31634278500659135,0.0
15.892404,0.31392137537959386,0.0
15.894792,0.3065645986999843,0.0
15.897172,0.29999921795329293,0.0
15.899572,0.289569405340628,0.0
15.901955999999998,0.2843544990342956,0.0
15.904336,0.28114169347438006,0.0
15.90674,0.2788600534742428,0.0
15.909128,0.27299352086185247,0.0
15.911508,0.27299352086185247,0.0
15.913912,0.2722021249289343,0.0
15.916296,0.2714107289960162,0.0
15.918676,0.26982793713017994,0.0
15.92108,0.267034440450845,0.0
15.923468,0.25530137522606433,0.0
15.925847999999998,0.2455704107477005,0.0
15.92824,0.2447790148147824,0.0
15.930628,0.2439876188818643,0.0
15.933008,0.23840062552319435,0.0
15.935412,0.22238381955185954,0.0
15.937796,0.2115819198868572,0.0
15.940176,0.20278212096827167,0.0
15.942571999999998,0.1999886242889367,0.0
15.944956,0.19440163093026677,0.0
15.947336,0.1877437023849583,0.0
15.949739999999998,0.17773319865287404,0.0
15.952127999999998,0.1648168391863302,0.0
15.954508,0.1517607100929262,0.0
15.9569,0.13998042303990235,0.0
15.959288,0.12433570412090504,0.0
15.961683999999998,0.10883075482876792,0.0
15.964088,0.0970504677757441,0.0
15.966476,0.0904850870290527,0.0
15.968856,0.08191760553594445,0.0
15.971252,0.08270900146886255,0.0
15.973636,0.08270900146886255,0.0
15.976016,0.08205737516280463,0.0
15.978412,0.0835476192300238,0.0
15.9808,0.09062485665591288,0.0
15.98318,0.10706097150782834,0.0
15.985584,0.1202842807998282,0.0
15.987968,0.1332280508381076,0.0
15.990348,0.1451008856897485,0.0
15.992743999999998,0.1577651164743075,0.0
15.995128,0.17550448393833873,0.0
15.997508,0.19152128990967354,0.0
15.999904,0.2113751171752462,0.0
16.002292,0.2312289444408189,0.0
16.004672,0.24966716003915124,0.0
16.007088,0.26461303082384746,0.0
16.009476,0.2776965704889871,0.0
16.011852,0.2861242823552352,0.0
16.01426,0.2921305845944857,0.0
16.016644,0.3033517931400687,0.0
16.019023999999998,0.3112204264988759,0.0
16.021432,0.3178783550441843,0.0
16.023816,0.3202525428429387,0.0
16.026196,0.31890206840257973,0.0
16.028592,0.3170397372830231,0.0
16.030976,0.3121043702304111,0.0
16.03336,0.30945064317793636,0.0
16.035752,0.30521412425962535,0.0
16.03814,0.29697340384848064,0.0
16.04052,0.2871498915714997,0.0
16.04292,0.2761156744810202,0.0
16.045304,0.27015659407001275,0.0
16.0477,0.2620556432857283,0.0
16.050096,0.25367515324772344,0.0
16.052484,0.24459581507541753,0.0
16.05486,0.23817020395558633,0.0
16.057264,0.2334199325002084,0.0
16.059652,0.23076430958986438,0.0
16.062032,0.22475611149274458,0.0
16.064436,0.2166985908209648,0.0
16.06682,0.21073571869421895,0.0
16.0692,0.2088695958589238,0.0
16.071596,0.21016905675530112,0.0
16.073984,0.2111417565697149,0.0
16.076363999999998,0.21085652974238678,0.0
16.078768,0.21266595146009254,0.0
16.081152,0.21521954728247328,0.0
16.083536,0.21972802202302769,0.0
16.085932,0.23075465568203035,0.0
16.088316,0.2437361682592067,0.0
16.090696,0.2552274367691639,0.0
16.0931,0.2676026490106562,0.0
16.095488,0.28142088349112454,0.0
16.097868,0.29882401058384606,0.0
16.100272,0.31850877767670477,0.0
16.10266,0.3436879903296164,0.0
16.10504,0.37170792149010606,0.0
16.107436,0.40014716153117647,0.0
16.109824,0.4338013078785792,0.0
16.112204,0.4673629064273649,0.0
16.1146,0.495617050871201,0.0
16.116988,0.518703510836948,0.0
16.119368,0.5386243870710224,0.0
16.121764,0.5624569169993135,0.0
16.124152,0.5894097046889033,0.0
16.126548,0.6102636423406252,0.0
16.12894,0.6248789603276195,0.0
16.131328,0.6388426520085558,0.0
16.133708,0.6478709766368802,0.0
16.136112,0.6579702364518429,0.0
16.138496,0.666067395520389,0.0
16.14088,0.6707194316035422,0.0
16.143276,0.6736489061939989,0.0
16.145664,0.6711311570526457,0.0
16.148044,0.6667510767917361,0.0
16.150448,0.6555732983586579,0.0
16.152832,0.6414622536193842,0.0
16.155212,0.629632848880248,0.0
16.15762,0.6159411130215549,0.0
16.160004,0.6039719386555584,0.0
16.162384,0.6018734983947861,0.0
16.16478,0.6036394899999873,0.0
16.167168,0.605125942351468,0.0
16.169548,0.6074037906358669,0.0
16.171952,0.6063290637334898,0.0
16.17434,0.6099101646300045,0.0
16.17672,0.6236415388854637,0.009005658238734195
16.179116,0.6359298909019466,0.01815294012739311
16.181504,0.652641753291844,0.026829282004210975
16.183884,0.6701922334429027,0.03514422329528621
16.18628,0.6904436624746791,0.04329017124051139
16.188668,0.7119057963199544,0.05138639940789923
16.191048,0.7367205053520055,0.05913079319126903
16.193444,0.7666103510635289,0.06656004771411066
16.195832,0.801435563827664,0.07367683716461496
16.198228,0.8378435684576357,0.08092980991843551
16.200624,0.8741118034607471,0.08827464194688034
16.203008,0.9063758369710249,0.09574561020993141
16.205388,0.9374291656678038,0.1033595028184146
16.207784,0.9675513288048042,0.11093781884850284
16.210172,0.987942527463441,0.11887660344362595
16.212552,1.0066111646293814,0.12681538803874906
16.214948,1.0267700458625408,0.13470352217175058
16.217336,1.0442752000432256,0.14259165630475207
16.219732,1.0609889582909922,0.15062498398080726
16.222128,1.0810552917255347,0.1582033000108955
16.224516,1.0941841573610478,0.15690797524208222
16.226896,1.1090355844892579,0.15543397041830553
16.229292,1.1205344364306922,0.15457506710889646
16.23168,1.130543044304907,0.15408706993051818
16.234056,1.1424139832986788,0.153475716397308
16.23646,1.1537730656132528,0.15282461833936573
16.238848,1.1600570112483544,0.15277532347226755
16.241228,1.1672721224432345,0.15268641429264423
16.24362,1.167689535465946,0.15322915229730477
16.246004,1.1715992933022934,0.1533165248867025
16.2484,1.177790691138778,0.15312967033987518
16.250799999999998,1.1847734849081808,0.15289980057780359
16.253184,1.1952486234912196,0.15224908638981385
16.255564,1.2037216613278416,0.15177734905438892
16.257967999999998,1.2149881958437985,0.15102607856026318
16.260356,1.2291879966659507,0.15004393110252784
16.262736,1.2480436252869942,0.1487915521489246
16.26514,1.2687615850275946,0.14743582081890635
16.267523999999998,1.2913418758877517,0.14591897884325294
16.269908,1.3105695915611326,0.14487519504375565
16.272304,1.3296575376076538,0.14381814974104287
16.274688,1.3478143180943964,0.14283267408494674
16.277068,1.3663904074617195,0.14170303692632405
16.279472,1.382312769776568,0.14070670549167338
16.281859999999998,1.3951620961583613,0.14003856530338551
16.28424,1.4094544447791306,0.13938553766115913
16.286636,1.4266800597060945,0.13846388116458486
16.289024,1.4348263364607527,0.1383297781695516
16.291404,1.4488391458278016,0.1376959682325118
16.293812,1.4587079840751564,0.13747679345749367
16.296196,1.4673661175090125,0.13741713320714363
16.298576,1.477234955756367,0.13721603839697308
16.300976,1.4829598228840282,0.1373876827956131
16.30336,1.4928286611313832,0.13720871638899482
16.305744,1.5072607793790125,0.13660917662886127
16.308144,1.5186198616935864,0.13627295226550892
16.310532,1.5230414762091316,0.13642400109075606
16.312912,1.52560075960512,0.13667840229241815
16.315316,1.5282998126279685,0.13689754185742523
16.317704,1.5303472393447597,0.1370986348922431
16.320084,1.5345365364348273,0.13713097311743547
16.32248,1.540727934271312,0.13703218042872967
16.324868,1.5497128287871316,0.13679635883602353
16.327248,1.5614912199822861,0.1364042225938191
16.329644,1.5711277408041635,0.1361591025787066
16.332031999999998,1.5789019305064846,0.13601976542091138
16.334408,1.5886782209552224,0.1357618437856756
16.336816,1.6036694177102926,0.13507112222195217
16.339204,1.6158671177860278,0.13456092548828874
16.341584,1.6299271489813196,0.13394137669431663
16.34398,1.6401227483106382,0.1335427158795069
16.346364,1.6511097435728745,0.13314000490391456
16.348744,1.6630279043948892,0.13267316544802574
16.35114,1.6698709285374318,0.1325715276394857
16.353528,1.6710797374930613,0.1329564935007791
16.355923999999998,1.6721487768218306,0.13337436360500132
16.35832,1.6752199168970168,0.1336586809013646
16.360708,1.676149186598926,0.1341195428330451
16.363088,1.675076355554418,0.134723455841619
16.365492,1.6757260860026066,0.13524701971356948
16.36788,1.6774467516374336,0.13567784290475224
16.37026,1.6802383524588995,0.13601936394889533
16.372664,1.6780945862277534,0.13666354120386023
16.375052,1.676090589623467,0.13726928105801756
16.377432,1.6783703337657354,0.13756058078823102
16.379836,1.6806500779080031,0.13785152111607138
16.38222,1.6812072605575747,0.13820040221774443
16.3846,1.6844181702596213,0.1384400708201605
16.386996,1.6872097710810867,0.1387687693155934
16.389384,1.687068105596357,0.13926736385509855
16.391764,1.692792972724018,0.13942514818599006
16.39416,1.6967952783589824,0.13964529621812277
16.396548,1.700937353620807,0.13983475360222733
16.398932,1.708943860748605,0.13980478494226467
16.401328,1.7162987415703455,0.13974871114629017
16.403712,1.7260750320190832,0.13947750713952434
16.406092,1.7366427184007391,0.139186870153481
16.408488,1.7522855414618672,0.13856366719336297
16.410876,1.769790695642552,0.13783508082572785
16.413256,1.7837109572109835,0.13726993789016462
16.41566,1.7953495787792781,0.13690371250016783
16.418048,1.8049860996011557,0.13668078047315077
16.420428,1.817835425982949,0.13622295857537087
16.422828,1.833618018670937,0.135632789835685
16.425216,1.8451168706123713,0.13533164326215896
16.427599999999998,1.8555447873671667,0.1350946325642569
16.43,1.865693164868242,0.13492288789760454
16.432388,1.8731878153168426,0.13486035573020919
16.434772,1.8853855153925778,0.13444722868934028
16.437172,1.903729287334424,0.1336864578432506
16.43956,1.9202107281567131,0.13303488408109143
16.44194,1.9385545000985593,0.13231788419607493
16.444344,1.9576896679733233,0.1315924776709579
16.446732,1.979106475848225,0.13076028946892454
16.449112,2.006389816335517,0.12967205236182924
16.451508,2.0323226823824494,0.12872790804103276
16.453892,2.057603922123324,0.1277703582767627
16.456272,2.080743291490922,0.12696321108303205
16.458676,2.1048138264182983,0.1261376189720602
16.461064,2.13046715321151,0.12527086209376673
16.463444,2.15840212000486,0.12427494354194835
16.46584,2.185266151611571,0.1233422604202702
16.468228,2.211990413591422,0.12245324790029323
16.470608,2.2307062725856057,0.12191714348871383
16.473012,2.254776807512982,0.12110122701303139
16.4754,2.2849934143064687,0.12002553690270132
16.47778,2.308132783674066,0.1192174522652809
16.480184,2.3309926137879438,0.11845149565869584
16.482568,2.3483579983417684,0.11801738149451342
16.484948,2.3625105773356774,0.11776819747655279
16.487356,2.3775943218893643,0.1174975807455823
16.48974,2.3896050305099967,0.11736191127287125
16.49212,2.402826443944127,0.11715895540777345
16.494524,2.408830850325508,0.11727084269687739
16.496912,2.410691285587195,0.1175609413331734
16.499292,2.409758224169548,0.11793793679975953
16.501688,2.409896097938539,0.11826309653656576
16.504076,2.407100705401335,0.11869850497539694
16.506456,2.4036536865580724,0.11911307519730262
16.508852,2.399275502155032,0.11956083282505726
16.51124,2.391684512192076,0.12015827982434238
16.51362,2.385955853348676,0.1206940997611672
16.51602,2.3791562593186386,0.12127783268500263
16.518404,2.378502737154711,0.12160890888959223
16.520788,2.376638510177286,0.12200255878445504
16.523184,2.3687679809606093,0.12261212849009623
16.525572,2.371327264356598,0.12278882971648906
16.527952,2.374026317379447,0.12294420521521184
16.530348,2.3788672407755724,0.12300159300827576
16.532732,2.3837081641716984,0.12305887724575987
16.535116,2.3856158212616285,0.12321936234311553
16.537512,2.388594413538197,0.12333108134578079
16.539896,2.390502070628128,0.12349063944870649
16.542276,2.3977644036512515,0.12340873136797859
16.54468,2.405446045554955,0.12326368452307979
16.547068,2.4159211841379937,0.1230312662609266
16.549447999999998,2.423043747534257,0.12296479935865365
16.551844,2.434310282050214,0.12271959853642339
16.554232,2.4425037806331154,0.12260129590437051
16.556612,2.454049854402793,0.12231374455469753
16.55902,2.467737798545747,0.12192341051771824
16.561404,2.4749075837702526,0.1217291663576522
16.563784,2.4812859730618406,0.12154087874588144
16.566188,2.487524592726569,0.12138049586261804
16.568576,2.490969715711962,0.12130776547042259
16.570956,2.495625543510853,0.1211629262873245
16.57336,2.4970685657498297,0.12116972047768733
16.575744,2.500793227988943,0.12106132545655193
16.578124,2.503726494295138,0.1209605693147283
16.580528,2.5040060335488588,0.12091966252031712
16.582916,2.509360709482052,0.12068672339357807
16.585296,2.5171367950422416,0.12032600242427194
16.587699999999998,2.522910779856015,0.12003649076183046
16.590084,2.5282654557892075,0.11981287691709114
16.592464,2.53334059246868,0.11962848179004856
16.59486,2.5356222324688167,0.11951838226646834
16.597248,2.5441897139619245,0.11915995539672902
16.599628,2.54931207246964,0.11886554834863915
16.602028,2.556156992470052,0.11853504143394424
16.604416,2.5644449347094396,0.11822505506531496
16.606796,2.570218919523213,0.11794937985817104
16.609192,2.5823712936285745,0.11751039869883921
16.61158,2.6013213659061045,0.11687816531347145
16.613964,2.6174779415043,0.11632270983586135
16.61636,2.635496848222051,0.11571875402355937
16.618744,2.6550985468056396,0.11511234869209751
16.621128,2.6754916413221457,0.11451095808495185
16.623524,2.693603095838514,0.11402104320135599
16.625912,2.713157572593859,0.11354575626936819
16.628304,2.7384388123347336,0.11292454983706632
16.6307,2.7539890875972444,0.11257979667936133
16.633088,2.7646965436057607,0.1124704372614739
16.635468,2.7803393666668885,0.11221755500454833
16.637864,2.790674735623067,0.11205863509421814
16.640252,2.8018015005121635,0.1118945761723416
16.642632,2.8186550283867904,0.1115803516309614
16.645032,2.829642023649027,0.11144083038005526
16.647416,2.8453773945087724,0.11128166907211942
16.649796,2.8658158149956523,0.11092582765999796
16.6522,2.8801553854446644,0.11066659849078102
16.654588,2.9004540363046845,0.11033994621496489
16.656968,2.9206601393660874,0.10994069772720401
16.659364,2.9320664435089046,0.10977508961579133
16.661752,2.9442641435846397,0.10960492311923675
16.664132,2.955390908473736,0.10947152052804897
16.666536,2.9618618455639405,0.10943344093989758
16.668924,2.967820925974948,0.10936639424953039
16.671304,2.974990711199454,0.10924763487766048
16.6737,2.9839302797448997,0.10901756856188076
16.676088,2.9859323804913163,0.10896482543913305
16.678472,2.9984568416490154,0.10867677929184896
16.680868,3.0131703950082347,0.10821488123560584
16.683256,3.020946480568425,0.1079355645415216
16.685652,3.0348214161664826,0.1075712006347627
16.688048,3.045530768032868,0.10721289943980604
16.690436,3.0537261624736387,0.10688776542620305
16.692816,3.0675085502730792,0.10645584490884422
16.69522,3.0798479158335437,0.10602165645455955
16.697608,3.0865530662070952,0.10579255183387438
16.699984,3.0973549658720976,0.10553861884196196
16.702392,3.1048515121785676,0.1053129218076038
16.704776,3.114582476656931,0.10510648251065792
16.707156,3.1278983337475483,0.10484549668599581
16.70956,3.1424248956516636,0.10453898057650865
16.711948,3.158162162369279,0.10418727948192995
16.714328,3.178555256885785,0.10374883853338093
16.716724,3.197737646588792,0.1033620173154892
16.719112,3.217990971478438,0.10295353385873442
16.721492,3.230747750061614,0.10276141854092281
16.723896,3.250721535697539,0.10238525258148057
16.72628,3.266691119840631,0.10211188958116756
16.72866,3.285686518088535,0.10185698013865097
16.731064,3.307754952269494,0.10151965679837577
16.733452,3.3274491986516983,0.10118871425861695
16.735832,3.3501692591387155,0.10086522653147179
16.738236,3.3726097803720125,0.10057723168439275
16.74062,3.388532142686861,0.10039609834920936
16.743,3.4016610083223746,0.10026076977874752
16.745404,3.416931744331165,0.1000652207530614
16.747792,3.428897126981423,0.09988532894474735
16.750172,3.439931344071903,0.09972246819630541
16.752568,3.443236697430436,0.0997064340427251
16.754956,3.4471011292964095,0.09963330288222792
16.757336,3.4528278922819395,0.09953343842535377
16.75974,3.460416986387026,0.09940833996558386
16.762124,3.46456095750672,0.0993108988144023
16.764504,3.469775863813052,0.0991864038806768
16.766904,3.473919834932746,0.09909147000441824
16.769288,3.485141043478329,0.09884518848538197
16.771668,3.4892850145980225,0.09875025460912341
16.774072,3.494779460158076,0.09860272262148687
16.776456,3.497899717919374,0.0984555740083871
16.778836,3.5060951123601454,0.09820920747015972
16.78124,3.5142905068009163,0.097963636276611
16.783628,3.5243954541894866,0.09761717603078586
16.786008,3.533709005645139,0.0972714857007068
16.788412,3.5488890897131817,0.09682821478680022
16.7908,3.5642089434080844,0.0963692305469808
16.79318,3.5805997322896266,0.09589101484662198
16.795576,3.599784017850503,0.09537662135451883
16.797964,3.619619929717437,0.09487824777409581
16.800344,3.6457416830773424,0.09423887705621493
16.80274,3.668790400504192,0.09366195694919092
16.805128,3.685041419758874,0.09319364733982519
16.807508,3.697428007147582,0.09278997937774605
16.809904,3.7174036886413764,0.09228872702092751
16.812292,3.7363084349485325,0.09181452844665292
16.814671999999998,3.75414224606905,0.09136705492006032
16.817076,3.768111625323593,0.09098102951916942
16.819464,3.7868766020038898,0.09052393052482009
16.821844,3.8016373771913514,0.0901386628334997
16.82424,3.8189121098044283,0.08975116545473785
16.826628,3.8281784394318374,0.08950381886302056
16.829007999999998,3.8383759346190254,0.08924754940768431
16.831404,3.848014351298772,0.08904552804851786
16.833792,3.858583933538297,0.08883488928200528
16.836172,3.8660804798447668,0.0886812645167652
16.838572,3.8773016883903493,0.08849033904757148
16.84096,3.8855896306297373,0.08834151713244368
16.84334,3.894808738428904,0.08818550157116492
16.845744,3.9033762199220123,0.08801589741911818
16.848132,3.909522291788123,0.08791352705246076
16.850512,3.9184618603335686,0.08778285040198891
16.852916,3.9354098318646824,0.08753164647666037
16.855304,3.952497573022656,0.08726723644294213
16.857684,3.961716680821822,0.08711550838095447
16.860088,3.9712153278747087,0.08694114334916156
16.862476,3.9785721045543183,0.0868066496031207
16.864856,3.9876514427266243,0.08666518077648898
16.867256,3.9942168234733155,0.08652886965969414
16.869644,4.002644535339564,0.08637321480997828
16.872024,4.008278750526476,0.08624643768636756
16.87442,4.015263440153748,0.08607308949173463
16.876808,4.024110460900577,0.08588449600835564
16.879188,4.031234920154709,0.08570374034587262
16.881584,4.037288444222202,0.08554421146496749
16.883972,4.044273133849474,0.08537639353135569
16.886352,4.048464326797412,0.08523652819526173
16.888756,4.052655519745348,0.08509583518343088
16.891144,4.056846712693286,0.08495711797233908
16.893524,4.05731324340211,0.08485135207733746
16.89592,4.058850709297572,0.08472582751171621
16.898308,4.060667714446755,0.08457844038841004
16.900688,4.056338647729826,0.08452673485472102
