Time,Force,Position
16.33246,0.14861929341597943,0.0
16.334856,0.15197186860275524,0.0
16.337244,0.14875906304283962,0.0
16.339624,0.14368392636336746,0.0
16.34202,0.13632714968375798,0.0
16.344408,0.13027362561626427,0.0
16.3468,0.12277957502759126,0.0
16.349204,0.11421458925227973,0.0
16.351592,0.10736966925186792,0.0
16.353968000000002,0.10024520999773566,0.0
16.356364,0.09232935481068533,0.0
16.358748,0.0848328085042156,0.0
16.361128,0.07533416145132903,0.0
16.363532,0.07263321257061112,0.0
16.365916,0.07128273813025215,0.0
16.3683,0.06765062368975595,0.0
16.370704,0.060433616637006665,0.0
16.373088,0.06215617812970309,0.0
16.375468,0.06602060999567658,0.0
16.377872,0.06467013555531763,0.0
16.38026,0.06052616443562372,0.0
16.38264,0.05717358924884791,0.0
16.385044,0.05917568999526477,0.0
16.387432,0.06103802111482141,0.0
16.389812,0.0650422226076551,0.0
16.392216,0.07118829447376587,0.0
16.3946,0.07756418804755717,0.0
16.39698,0.08380031199448829,0.0
16.399384,0.08924753572629801,0.0
16.401772,0.09404313315204982,0.0
16.404152,0.09776779539116309,0.0
16.406548,0.09613778169708373,0.0
16.408936,0.09464753762986455,0.0
16.411316,0.08906303998899136,0.0
16.413712,0.08226783753461941,0.0
16.416096,0.07998619753448215,0.0
16.41848,0.08184852865403879,0.0
16.420872,0.07426193026674872,0.0
16.42326,0.06560439669282016,0.0
16.42564,0.06630324482712122,0.0
16.428044,0.06928373296155954,0.0
16.430428,0.0742663218424147,0.0
16.432808,0.0761758747902145,0.0
16.435212,0.08115846367106967,0.0
16.4376,0.08586151329820443,0.0
16.43998,0.08991293661928129,0.0
16.442376,0.0961062303136352,0.0
16.444764,0.10351022882148786,0.0
16.447148,0.1107744577024803,0.0
16.449552,0.11976124807616917,0.0
16.45194,0.12674593770344117,0.0
16.45432,0.14001646882368418,0.0
16.456716,0.1542181655037055,0.0
16.459104,0.16678735277185075,0.0
16.461484,0.17949630966685617,0.0
16.46388,0.1858293729880703,0.0
16.466268,0.18988079630914717,0.0
16.468648,0.19937694764423697,0.0
16.471052,0.20994403416596535,0.0
16.47344,0.2119461349123822,0.0
16.475824,0.213249387524498,0.0
16.47822,0.21054843864378012,0.0
16.480608,0.2106409864423972,0.0
16.482988,0.21087330386787445,0.0
16.485384,0.20845189424087693,0.0
16.487772,0.20160697424046514,0.0
16.490152,0.1907578527472196,0.0
16.492548,0.17855825681361515,0.0
16.494936,0.16715005681292883,0.0
16.497332,0.15783650535727636,0.0
16.499728,0.1536906383797132,0.0
16.502116,0.14963731920076712,0.0
16.504496,0.1486098141266332,0.0
16.5069,0.15340161983664657,0.0
16.509288,0.1602880740916938,0.0
16.511668,0.17620664469080383,0.0
16.514072,0.19421986383494774,0.0
16.51646,0.20753003335195694,0.0
16.51884,0.21664900992102906,0.0
16.521236000000002,0.22935287910235422,0.0
16.523624,0.24578141052279268,0.0
16.526004,0.26430459048826505,0.0
16.5284,0.28012682157301955,0.0
16.530788,0.2936201908293936,0.0
16.533168,0.3120017053101365,0.0
16.535564,0.3355509042689687,0.0
16.537952,0.36212591733261323,0.0
16.540332,0.3884213911425372,0.0
16.542728,0.4162071090196804,0.0
16.545116,0.4369628112991777,0.0
16.5475,0.4553443257799206,0.0
16.549896,0.4750763147010225,0.0
16.552284,0.493784590263729,0.0
16.554664,0.5096068213484835,0.0
16.557068,0.5238462605674017,0.0
16.559452,0.5319868497484523,0.0
16.561832,0.5398951215040256,0.0
16.564236,0.5555794788197892,0.0
16.566624,0.576246425016408,0.0
16.569004,0.5974724497204674,0.007828224022249192
16.571408,0.6163242866257727,0.015536274011458032
16.573796,0.6380168420386559,0.022852855902431968
16.576176,0.6585459144662836,0.03044593578385823
16.57858,0.6792619783490147,0.03803901566528449
16.580968,0.6958812929402951,0.04581350188425885
16.583348,0.7085436278669849,0.04581350188425885
16.585744000000002,0.7229757461146142,0.05353624097015704
16.588132,0.7409002091758795,0.060872155009218706
16.590512,0.7562634929832871,0.06845054880582231
16.592916,0.7784244749628635,0.07572679605312903
16.5953,0.7987231258228833,0.08315826543452474
16.597684,0.8163680496304281,0.0904915893695854
16.60008,0.8317313334378358,0.09794007489388144
16.602464,0.8434625028047473,0.10590408490683494
16.604848,0.8542625066118804,0.11399453565808217
16.60724,0.8679957767252087,0.12185699120926237
16.609628,0.8800064853458406,0.12983111475960984
16.612008,0.8857313524735014,0.13811422430407072
16.6144,0.8914562196011623,0.14615947719404165
16.616788,0.8974606259825436,0.14620488629427048
16.619188,0.9005317660577299,0.14665856458694032
16.621584,0.9003901005730005,0.14763072887822914
16.623972,0.9069063636335793,0.1477725905353198
16.626352,0.9122119218806596,0.14813280571861717
16.628748,0.9224528471803519,0.1478609970677645
16.631136,0.9385603050924345,0.15497520362823886
16.633516,0.951874266325182,0.15436667110281505
16.635916,0.9669107890506261,0.15378320574755883
16.638304,0.9843687214030675,0.15282763434512206
16.640684,0.9968912867028972,0.15239164129544538
16.64308,1.0092740823758666,0.1519603058362544
16.645468,1.0185838421157807,0.1518714837927958
16.647848,1.0271022059227766,0.15179669478577298
16.650248,1.042185950476464,0.1508061813567835
16.652632,1.0583406302167895,0.14966328341410795
16.655016,1.0724932092106985,0.14879256488466236
16.657412,1.0863662489508867,0.14797251872080924
16.659796,1.0994478927581575,0.14709261839608875
16.662196,1.1115983710056494,0.14637053413543394
16.664592,1.1233295403725607,0.1458349885117015
16.66698,1.1375746671650868,0.14507201344231915
16.66936,1.1550325995175283,0.14391387372294567
16.671756,1.1675551648173579,0.14339674383169118
16.674144,1.1840819316100213,0.14245360799190415
16.676524,1.1955335617232121,0.14211309204149433
16.678916,1.201910055156931,0.14231894622178867
16.681304,1.2109402756431247,0.142355481825253
16.6837,1.2103793012778146,0.14321180434858036
16.686092,1.2039517943001141,0.14464228785815259
16.68848,1.2024596543750259,0.14558723848157673
16.69086,1.2031093848232142,0.14628850335536075
16.693264,1.2046902808311815,0.14692458709516854
16.695652,1.2092044431453437,0.14726273356291358
16.698028,1.207572533593395,0.14826611705454973
16.700436,1.2059406240414463,0.14925536185285085
16.70282,1.2023066137430807,0.15048018790446135
16.705204,1.2046789056839657,0.15105818125400786
16.707604,1.21412843505074,0.15093139325669405
16.709992,1.223438194790654,0.1508577448420245
16.712376,1.232887724157428,0.15074289968788027
16.714776,1.2438274975914214,0.1504009714605874
16.717164,1.2504835302788608,0.15050728553593049
16.719544,1.2563481670333818,0.15063279959684364
16.72194,1.2592795374817078,0.15100632408091544
16.724328,1.2642130086764505,0.15120010871977324
16.726708,1.272359285431109,0.1510663595815399
16.729104,1.2757099647600156,0.15131156310108276
16.731492,1.2845078678207318,0.15115057611196503
16.733872,1.3041076705464505,0.1500378114512558
16.736276,1.3206344373391137,0.1492641540623862
16.738664,1.3379526000646953,0.14849781185152486
16.741044,1.3574126331635532,0.14749819329800812
16.74344,1.3758017310757733,0.14664825609844248
16.745828,1.39619292973441,0.1455671553280348
16.748212,1.4147217972734902,0.14461444911521953
16.750608,1.4411192981713776,0.14304261827836237
16.752996,1.463512597576431,0.14193964017655716
16.755372,1.4789684291824556,0.1414202255449302
16.757776,1.4933533256018419,0.14099248321093896
16.76016,1.507738222021228,0.1405734034305499
16.762544,1.5209124136271157,0.14030345957865023
16.76494,1.5365080148600005,0.13977368154035674
16.767328,1.5528950120258036,0.13920028001639476
16.769708,1.5703529443782451,0.13853875542287936
16.772104,1.5839464448647131,0.13811646889495158
16.774488,1.596469010164543,0.13781298561178335
16.776884,1.612064611397428,0.13725016356479988
16.77928,1.6282192911377533,0.13655566200985983
16.781668,1.6366451071461323,0.13641659219599686
16.784048,1.647212793527788,0.13611118194943728
16.786444,1.6580600191631643,0.13576105283828527
16.788828,1.670769575918097,0.13533622413264215
16.791212,1.681477031926613,0.13503090805159124
16.793608,1.6932554231217676,0.134648947655495
16.795992000000002,1.7082466198768378,0.13403944853158958
16.798376,1.712575686593766,0.13403957102100805
16.800772,1.7151821918179977,0.13410088576374318
16.803164,1.7184403233482874,0.13417386369946938
16.805544,1.7218382245054373,0.13421328578334873
16.807948,1.7243049601028084,0.1343016410614925
16.810332,1.7278426308868187,0.1343111167719675
16.812716,1.7290986616706912,0.13450999565327434
16.815112,1.7337072676413396,0.13444429592906348
16.817496,1.738176103985128,0.13441115445393548
16.819892,1.749722177754805,0.1339395183380262
16.822288,1.7571242804047884,0.13373076683125004
16.824672,1.7623845126814945,0.13367549447694002
16.827056,1.7684361408911193,0.13361056759145584
16.829456,1.7743479994738836,0.13357115652221835
16.831844,1.777606131004173,0.13364287061878138
16.834228,1.7765805217879085,0.134021144587542
16.836624,1.772761415892309,0.13452820765802806
16.839008,1.7700132451833477,0.1349656973372499
16.841388,1.7681962400341653,0.13534948077105785
16.843784,1.7670308611910406,0.13573513790677075
16.846172,1.7748050508933613,0.1356248660010768
16.848552,1.785372737275017,0.1353899319210783
16.850948,1.7991532292165884,0.13493928026108576
16.853336,1.8140046563447982,0.1344204046084066
16.855716,1.8259228171668134,0.1340371397351436
16.85812,1.8329056109362158,0.13392787588910238
16.860508,1.8410991095191174,0.13370894750559426
16.862888,1.84808190328852,0.1336085150212644
16.865292,1.8549249274310626,0.13353724403198564
16.86768,1.8593465419466078,0.1336665599946113
16.87006,1.8677723579549868,0.13357093613671303
16.872464,1.8814130802696978,0.13316917465489408
16.874852,1.8930517018379922,0.13288220463190445
16.877232,1.9064128848989832,0.13253583026816465
16.879636,1.9202859246391717,0.13222418170078026
16.88202,1.939513640312553,0.13157100975224442
16.8844,1.9547371544931005,0.13111106964667735
16.886808,1.9711713734871465,0.13055790043975765
16.889192,1.9876055924811926,0.13002960649311834
16.891576,1.9971023436762099,0.1298622931391768
16.893972,2.0024551237515333,0.12994672167513374
16.896356,2.0047348678938013,0.13020255582396517
16.898736,2.0071543816629296,0.13042948039779756
16.901144,2.009713665058918,0.13062964935063673
16.903528,2.017208315507519,0.1305890964163457
16.905908,2.0299178722624514,0.1302507197043981
16.908308,2.0454209256967193,0.1298115830034133
16.910692,2.059992813571209,0.12942329318388515
16.913072,2.072981909579862,0.12905350282955175
16.915472,2.0835968177897617,0.12871934283145345
16.917856,2.099286862679133,0.12816485453599105
16.92024,2.1091103749561135,0.12787262407603517
16.922636,2.119073656859955,0.12755509766184725
16.92502,2.1273143772710994,0.12727692085668438
16.927404,2.1367658024957428,0.12691730386277986
16.9298,2.141793717346972,0.1268139925267574
16.932188,2.155481661489926,0.12636446122391626
16.934568,2.1678191311925215,0.12602147157287552
16.936968,2.176152399402283,0.1258559326253183
16.939356,2.1906317394781554,0.12538309256691813
16.94174,2.2049713099271684,0.12492868955762022
16.944136,2.220521585189679,0.12438199045868809
16.946524,2.233929990078913,0.12396267864281653
16.948904,2.2442653590350914,0.12369229848109312
16.951308,2.2556716631779086,0.1233801295770326
16.953696,2.267869363253644,0.12307806366322428
16.956076,2.278344501836683,0.12282716546195942
16.958472,2.2878884748599435,0.12260872140130262
16.96086,2.2992947790027607,0.12233011199093029
16.96324,2.3102817742649973,0.12211253656927964
16.965636,2.3135399057952863,0.1221857157794192
16.968024,2.319591534004911,0.1221700049387991
16.97042,2.325503392587675,0.12217584287385205
16.97282,2.334488287103495,0.12204983407725337
16.975208,2.3466859871792303,0.12178563285413276
16.977588,2.360373931322184,0.12140108711864266
16.979984,2.371547918039524,0.12107965200082317
16.982372,2.3850035447570015,0.1206464782236307
16.984756,2.4026031425941725,0.12004197070831076
16.987152000000002,2.416989934871428,0.11958245307125742
16.98954,2.433798136775681,0.11899452731675854
16.99192,2.454470770545907,0.11830116050260456
16.994316,2.472210138009938,0.1176873459113179
16.996704,2.4948848725265815,0.11690469584679283
16.999088,2.512624239990613,0.11629918916639269
17.001484,2.5232863700287553,0.11595169687320064
17.003872,2.5298045289472033,0.11576628412207991
17.006252,2.5341808174923743,0.11567251930316051
17.008656,2.5366947749179887,0.11563290532771967
17.011044,2.5425613075303786,0.11543025574217296
17.013424,2.551221336822104,0.1151447572171702
17.01582,2.558950200554051,0.11488825406174424
17.018208,2.5676102298457764,0.11460503674745424
17.020588,2.579063755816837,0.11426081873775339
17.022984,2.5860937714144825,0.1141236566660135
17.025372,2.594986118131686,0.1139419601141055
17.027752,2.6006656592889725,0.11389169165835676
17.030152,2.6042033300729823,0.11392784372971332
17.03254,2.6035970297372986,0.11411502681515001
17.03492,2.6091368012677254,0.11408721228901228
17.037316,2.6142572639175716,0.11411756669804857
17.039704,2.6135111939550275,0.11431602963557226
17.042084,2.6187714262317336,0.11432829349117479
17.044488,2.6209586225753845,0.11444227357803326
17.046876,2.6271500204118694,0.11443422389089199
17.049256,2.6402788860473834,0.11421648607227491
17.051656,2.65727218354887,0.11388349971329072
17.054044,2.6774782866102727,0.11342191176877876
17.056424,2.700477886351011,0.11289517933702269
17.05882,2.7230581772111675,0.11244008537084964
17.061208,2.742565432138269,0.11208205783262523
17.063588,2.7636554789312067,0.11171895912884855
17.065996,2.786096000164503,0.11129009955577022
17.068384000000002,2.7988055569194357,0.11113020652103733
17.070764,2.814588149607424,0.11087353073558923
17.073168,2.8303707422954125,0.11062711970765943
17.075552,2.847084500543179,0.11035563329794357
17.077932,2.8680819995375,0.10994409606064669
17.080332,2.891361138531958,0.10943109159511501
17.082716,2.9111479327127805,0.10908454128475295
17.0851,2.9256272727886525,0.10881852619274936
17.087504,2.940246382491385,0.10852644211060597
17.089892,2.956867592940535,0.10819717918149156
17.092272,2.97684137857646,0.10775288360554411
17.094668,2.994673293839108,0.10738445796448913
17.097056,3.011574043541978,0.107045193705144
17.099436,3.0290338717522887,0.10664757912582769
17.101832,3.046074391082019,0.10630139254208922
17.10422,3.064185845598388,0.10593340865100583
17.1066,3.0788521771293635,0.10560190783611315
17.109,3.098081788660614,0.10511031693021428
17.111384,3.1167995435126663,0.10459500069618338
17.113768,3.1335151976183027,0.10413620440543694
17.116172,3.158518793963326,0.10344973352782838
17.118556,3.1785870232557385,0.10287743205529493
17.12094,3.197444547734651,0.10236010294323285
17.123336,3.213368805907369,0.10189706587024822
17.125724,3.2248695537066725,0.10158427969840576
17.128104,3.2413056685585873,0.10117449687285564
17.130508,3.249780602253079,0.10085012991086434
17.132896,3.267008113037913,0.1004288018245789
17.135276,3.292755883487611,0.09986356724384764
17.137672,3.310774790205363,0.09945887201830864
17.14006,3.325021812855758,0.09920661964021792
17.14244,3.3416902451331505,0.0988709967175494
17.144836,3.355565180731208,0.09858086695750402
17.147224,3.3696724337547437,0.09835301181763105
17.14962,3.3832678300990806,0.09809705948415019
17.152016,3.393929960137223,0.09790160931088732
17.154404,3.410830709840093,0.09764084259141342
17.156784000000002,3.4258219065951643,0.09749563479989258
17.15918,3.435877736297622,0.0974438036394227
17.161572,3.4475163578659163,0.0973938367810151
17.163956,3.4575249657401317,0.09742947381417091
17.166348,3.471957083987761,0.0973453128447933
17.168736,3.4845268711158335,0.09728611249692466
17.171116,3.5032427301100166,0.09709355946311635
17.173512,3.5213069627981426,0.0968839146537374
17.1759,3.5340165195530755,0.09681315712947632
17.17828,3.556317271159512,0.09658265911544618
17.18068,3.571727776795163,0.09640503469418756
17.183064,3.579549188325727,0.09634662438665104
17.185444,3.593888758774739,0.09620225001269773
17.187848,3.6079960117982735,0.09600125463146633
17.190236,3.6175399848215335,0.09593017848982441
17.19262,3.6280151234045723,0.09584600230687691
17.195016,3.637978405308414,0.09573590290285089
17.197404,3.6498040183318112,0.09560339884821692
17.199784,3.6606984657954307,0.09548244704466544
17.20218,3.6642833584076833,0.09544682947497257
17.204568,3.6684273295273777,0.09535921875241118
17.206964,3.6775066676996833,0.09518254680463571
17.20936,3.68113878214018,0.09506569071720805
17.211748,3.681186003968423,0.09498550744802195
17.214128,3.6761580891171937,0.09500731324048077
17.216532,3.6715494831465456,0.0949894214888756
17.21892,3.6669408771758976,0.09497022922937093
17.221304,3.663542976018748,0.09491268474081854
17.2237,3.6596332181824005,0.09482797118517271
17.226088,3.652650424412997,0.09480480928905957
17.228468,3.6456676306435947,0.09478184462506384
17.230872,3.637753671314413,0.09477161657692515
17.23326,3.6222506178801455,0.09487305812686463
17.23564,3.606747564445877,0.09497486427773918
17.238036,3.5970184958253824,0.09490777527234856
17.240424,3.5874291968317484,0.09482712022230563
17.242808,3.5759775667185574,0.09476988742487437
17.245204,3.5625238358589497,0.09474868212940751
17.247592,3.5501410401859808,0.09470231964627633
17.249972,3.5419022156327054,0.09456803382268514
17.252368,3.5328719951465115,0.09443166362953864
17.254756,3.524772940220096,0.09428347643134337
17.257136,3.52347158346585,0.09402860004591913
17.259532,3.5238927882042996,0.09376231579975501
17.26192,3.5292493599953616,0.09341131256878313
17.264304,3.53618872365226,0.0930640704756695
17.2667,3.5391238858163243,0.09279119955108979
17.269088,3.542850443913306,0.09252151276593455
17.271468,3.5493704986896235,0.09221997433293944
17.273864,3.5586840501452763,0.09188863893740193
17.276252,3.5737243645864583,0.0914839283335528
17.278636,3.5916979453338365,0.09103339345911499
17.28104,3.6148864323875465,0.09047347193134599
17.283428,3.638866315374175,0.08991434837281007
17.285812,3.659214083920307,0.08947400217192646
17.288208,3.681563953212856,0.08900616848588497
17.290592,3.7076384847445185,0.08850268019889071
17.292976,3.7339925555299014,0.08797625329664219
17.295372,3.758344525568867,0.08747999114165707
17.29776,3.784279287473669,0.08700018028700306
17.30014,3.810865675684529,0.08653918959880069
17.302536,3.8363811287087506,0.08610653940924191
17.304924,3.8586837761730557,0.0857445755156599
17.307308,3.881265962891082,0.08535837743602877
17.309704,3.9007751136760533,0.08502733818067515
17.312092,3.9176305374085487,0.08471149223904328
17.314472,3.9375589970741003,0.08434656143985372
17.316872,3.955485355993235,0.08401267600626149
17.319256,3.969547283046395,0.08372777752824828
17.321636,3.9793726911812453,0.08345428285699781
17.324036,3.985193897823262,0.0832432453040291
17.326424,3.9899441692786404,0.08305338930782313
17.328816,3.992273031107021,0.08292780270313914
17.33122,3.9966039936818185,0.08277459998700677
17.333608,4.002005891443255,0.08260166216667228
17.335988,4.005265918831413,0.08246977787614798
17.338384,4.00373034879382,0.08239076567945341
17.340772,3.999773369129229,0.0823741851157172
17.343152,3.9986098861439743,0.08233279431816096
17.345552,3.991579870546328,0.08236430860109975
17.347936,3.9826875238291257,0.08241240744374535
17.35032,3.9717930763655063,0.08248904946310112
17.352716,3.9621093337153854,0.08253383493804962
17.355104,3.9522858214384047,0.08258989137494782
17.357484,3.9443246402809806,0.0826294369746587
17.35988,3.9399483517358096,0.08264741199179557
17.362272,3.9314280920709446,0.08273267137341875
17.364652,3.9247701635256362,0.08280153870324668
17.367056,3.9227680627792196,0.08282935048792565
17.369444,3.92113804908514,0.08289550231582882
17.371824,3.922720840950976,0.08290245524612307
17.374224,3.9273766687498677,0.08286330323769431
17.376608,3.934034597295176,0.08279689637800526
17.378992,3.9388301947209277,0.08274694263063002
17.381388,3.9417634610271226,0.08271245070473542
17.383772,3.9445569577064576,0.08268917824612836
17.386156,3.9510751166249056,0.082634864230921
17.388552,3.963739347409464,0.0824897830050258
