Time,Force,Position
21.603912,0.0,0.0
21.606300000000005,0.0,0.0
21.60868,0.0,0.0
21.61108,0.0,0.0
21.613468000000005,0.0,0.0
21.615844000000003,0.0,0.0
21.618244000000004,0.0,0.0
21.620628000000004,0.0,0.0
21.623008,0.0,0.0
21.625416,0.0007606874045572397,0.0
21.627804000000005,0.007015820369167343,0.0
21.630184,0.016483758893693037,0.0
21.632588,0.02609146704507894,0.0
21.634976,0.03756150631602149,0.0
21.637356000000004,0.05224435114687963,0.0
21.639752,0.06906906635101483,0.0
21.642140000000005,0.08482284636851149,0.0
21.644524000000004,0.1016475615726467,0.0
21.64692,0.11647017603036504,0.0
21.649308000000005,0.12915092011480633,0.0
21.651688,0.14076072901260908,0.0
21.654084000000005,0.15157914197749373,0.0
21.656472,0.16132661975573984,0.0
21.658852000000003,0.16613873048137393,0.0
21.661248,0.1708110715801478,0.0
21.663636000000004,0.1756231823057819,0.0
21.666020000000003,0.18322878971075093,0.0
21.668416,0.1876215915558044,0.0
21.670804000000004,0.19094345821421935,0.0
21.6732,0.1916423063485204,0.0
21.675596,0.1853871733839103,0.0
21.677984,0.17591923485938463,0.0
21.680364000000004,0.16631152670799873,0.0
21.682764,0.15484148743705617,0.0
21.685152,0.14015864260619806,0.0
21.687532000000004,0.12333392740206282,0.0
21.689932,0.10758014738456616,0.0
21.69232,0.09075543218043097,0.0
21.694700000000005,0.07593281772271261,0.0
21.697096,0.06485137880398983,0.0
21.699484000000005,0.05498064469876579,0.0
21.701868000000005,0.048694803205794814,0.0
21.704264,0.04534222801901901,0.0
21.706652,0.04799595507149376,0.0
21.709032,0.051720617310607044,0.0
21.711428000000005,0.05409480510936136,0.0
21.713816,0.051533625855503674,0.0
21.716196000000004,0.050183151415144726,0.0
21.718596000000005,0.04686128475672979,0.0
21.720984,0.045401749217871504,0.0
21.723364000000004,0.045401749217871504,0.0
21.72576,0.045401749217871504,0.0
21.728148000000004,0.045401749217871504,0.0
21.730544,0.04695383255534685,0.0
21.73294,0.04743498070618367,0.0
21.735328000000003,0.04743498070618367,0.0
21.737712,0.04743498070618367,0.0
21.740108,0.04743498070618367,0.0
21.742496000000003,0.04743498070618367,0.0
21.744876000000005,0.04583567554046517,0.0
21.747276,0.04409660074788646,0.0
21.749664000000003,0.03956402927597279,0.0
21.752044000000005,0.033169126684502476,0.0
21.75444,0.02570328890639363,0.0
21.756828,0.01730628556850647,0.0
21.759208,0.010119987044118043,0.0
21.761608000000003,0.005075558893006682,0.0
21.763996,0.0020332314883121693,0.0
21.766376,0.0020332314883121693,0.0
21.768776000000003,0.0020332314883121693,0.0
21.771164,0.0020332314883121693,0.0
21.773544,0.0020332314883121693,0.0
21.77594,0.0020332314883121693,0.0
21.778328,0.00048114815083681936,0.0
21.780712,0.0,0.0
21.783108,0.0,0.0
21.785496,0.0,0.0
21.78788,0.0,0.0
21.790276,0.001087448486520811,0.0
21.792664,0.001087448486520811,0.0
21.795044000000004,0.001087448486520811,0.0
21.79744,0.001087448486520811,0.0
21.799828000000005,0.001087448486520811,0.0
21.802224,0.001087448486520811,0.0
21.80462,0.001087448486520811,0.0
21.807008000000003,0.001087448486520811,0.0
21.809388,0.001087448486520811,0.0
21.811784000000003,0.001087448486520811,0.0
21.814168,0.001087448486520811,0.0
21.816548000000004,0.001087448486520811,0.0
21.818944,0.0038974584657380526,0.0
21.821332000000005,0.009780504378010675,0.0
21.823716000000005,0.01580331991714351,0.0
21.826120000000003,0.018892869150081173,0.0
21.828508,0.018892869150081173,0.0
21.830888,0.018892869150081173,0.0
21.833284,0.018892869150081173,0.0
21.835672,0.018892869150081173,0.0
21.838056,0.017805420663560365,0.0
21.840452,0.017805420663560365,0.0
21.84284,0.017805420663560365,0.0
21.845220000000005,0.017805420663560365,0.0
21.847616,0.017805420663560365,0.0
21.850004,0.017805420663560365,0.0
21.852384,0.017805420663560365,0.0
21.854784,0.017805420663560365,0.0
21.857172,0.017805420663560365,0.0
21.859568000000003,0.017805420663560365,0.0
21.861964,0.017805420663560365,0.0
21.864352000000004,0.017805420663560365,0.0
21.866732,0.014995410684343125,0.0
21.869128000000003,0.009112364772070499,0.0
21.871520000000004,0.0030895492329376635,0.0
21.8739,0.0,0.0
21.876296000000004,0.0,0.0
21.878684,0.0,0.0
21.881068,0.0,0.0
21.883464000000004,0.0,0.0
21.885852,0.0,0.0
21.888232,0.0,0.0
21.890628,0.0,0.0
21.893016000000003,0.0,0.0
21.895396000000005,0.0,0.0
21.897792000000003,0.0,0.0
21.90018,0.0,0.0
21.902576000000003,0.0,0.0
21.904972,0.00024883072535954984,0.0
21.907360000000004,0.0023599925702757407,0.0
21.909744000000003,0.004191615161471511,0.0
21.91214,0.006255555178144551,0.0
21.914528000000004,0.01213670523254793,0.0
21.916912000000004,0.019273886070823955,0.0
21.919308,0.030460594372307595,0.0
21.921696000000004,0.04555706051013864,0.0
21.924076,0.06628584597701351,0.0
21.926476,0.09171578521315389,0.0
21.928864000000004,0.12319735265891871,0.0
21.931244,0.15672634682147432,0.0
21.933640000000004,0.19444463807409773,0.0
21.936028,0.23565337828248792,0.0083616548358668
21.938408000000003,0.27849023632708825,0.017212345203524933
21.940808000000004,0.323886377767677,0.026374605260883956
21.943196,0.37105040667133615,0.03589001485786011
21.94558,0.4219844237844825,0.045400282030774085
21.947976000000004,0.47547772429361723,0.05514340112379093
21.950364,0.5355345096915741,0.06452621434282718
21.952744000000003,0.5988329133199383,0.07400782395536792
21.95514,0.6646906003442908,0.08347968538237856
21.957528000000003,0.7364601459514075,0.09277123000590438
21.959912000000003,0.8141887719695318,0.10175841733561879
21.962308,0.8899152972412393,0.11077436610508273
21.964696000000004,0.9670395187815489,0.11960614731083058
21.967080000000003,1.0418367743513473,0.1283328087079684
21.969476,1.1127242720847978,0.13705947010510622
21.971864000000004,1.1771880545562867,0.14582092981374883
21.974244,1.2377420791914284,0.15454759121088668
21.976640000000003,1.2935477282290613,0.1632734247649279
21.979028,1.3475382679753807,0.17209922851126191
21.981412,1.3998534680572468,0.18079095615464474
21.983808000000003,1.4505405503029032,0.18099348331951098
21.986196,1.4962469395255729,0.18103278116874785
21.98858,1.5381833405387557,0.18089731492353894
21.990976000000003,1.5816572074474011,0.1802346141043039
21.993364,1.6232234172661155,0.17944710238570014
21.995748,1.6612991781290631,0.17849105466119586
21.998148,1.692020058170271,0.17792849680706702
22.000532,1.7203214244423504,0.17717000830323373
22.002916,1.7442011761988847,0.17642126798493052
22.005312000000004,1.762448608626375,0.17585284447011212
22.0077,1.772502542470964,0.17575247198688373
22.010096000000004,1.7835348637035742,0.1754276737318141
22.012492,1.7925650841897678,0.17528690379714965
22.014880000000005,1.7993136646758243,0.17537735587923217
22.01726,1.81136969926683,0.1751620029258643
22.019656000000005,1.8237978209101733,0.17500092072005188
22.022044,1.8366452514340972,0.17475729610176743
22.024424000000003,1.8473980334129874,0.17454277099149612
22.02682,1.8602001379665374,0.1740281205208613
22.029208000000004,1.8711399114005307,0.1736498697975904
22.031592000000003,1.8802173537149673,0.17339916471696926
22.033992000000005,1.894929011216317,0.17263255577655465
22.036376000000004,1.914064179091081,0.17149878023220685
22.038760000000003,1.9281714321146162,0.17060994303643576
22.041156,1.9432098506979294,0.16970647761359786
22.043544000000004,1.9629040970801346,0.16855721427281398
22.045924,1.9841811353281753,0.1673560007141405
22.048324,2.005458173576217,0.1661844281032167
22.050712000000004,2.025524507010759,0.16510513205155408
22.053092,2.0462424667513597,0.16403178336634194
22.055492,2.071895793544572,0.1626436707578738
22.057880000000004,2.091962126979114,0.1615776453282905
22.06026,2.1125875389210975,0.16042032238200435
22.062656000000004,2.1331204030644635,0.1591303529296674
22.065044,2.1455523164235455,0.158275887609102
22.067424000000003,2.1633389057158197,0.1570720417983666
22.069824000000004,2.180706186127513,0.15596908301038154
22.072208000000003,2.196862761725708,0.15494309566010153
22.074608000000005,2.2078044310175713,0.15426975041213103
22.077004,2.216883769189877,0.15368886855426028
22.079392,2.2248921721755446,0.15317916226174297
22.081772,2.2335522014672695,0.1526996080423074
22.084172,2.2389994251990792,0.15245041483154986
22.08656,2.2480315415431424,0.15204450431508404
22.088944000000005,2.2550615571407886,0.15176537246298666
22.09134,2.2565045793797642,0.15175268952006898
22.093728,2.2565045793797642,0.15175268952006898
22.096112000000005,2.2563648097529034,0.1517771543702682
22.098508,2.2586464497530407,0.15161865040671332
22.100896,2.2604162330739808,0.1514301041503064
22.103280000000005,2.25631948378253,0.1515442892745083
22.105676000000003,2.2571581015436912,0.1513976795207811
22.108064,2.255715079304715,0.15140905282269965
22.110448000000005,2.2595795111706884,0.15122238037325114
22.112844000000003,2.2673083749026355,0.15084393738214769
22.115232,2.2682395404624147,0.15080392985045413
22.117616000000005,2.267168605275776,0.15086802655646328
22.120012000000003,2.2667492963951954,0.15094066652847746
22.1224,2.272987916059923,0.15069725692243063
22.124784,2.2807167797918697,0.15031249578177244
22.127180000000003,2.2924498450166504,0.14971935201084763
22.129568,2.3001787087485974,0.14934631436898652
22.131948,2.3036238317339905,0.1492250888687921
22.134352,2.3022733572936316,0.1493416088488913
22.136736,2.2982691558007975,0.14956480712562853
22.139116,2.2989207821068556,0.1495708204660296
22.141512,2.2996649562115308,0.14968133319249197
22.1439,2.2961253895696516,0.15007288871299607
22.146280000000004,2.2949600107265264,0.15039657630283998
22.148684000000003,2.2913732222564036,0.15091119921086718
22.151072,2.2916508656522554,0.15122765464799767
22.153448000000004,2.290438264980887,0.1516827856292361
22.155848,2.2949524272950494,0.1518510678507656
22.158236,2.29481076181032,0.15222394012157603
22.160616000000005,2.2934583915120923,0.15268273351230882
22.163020000000003,2.2936888130797004,0.15311127380284337
22.165404,2.2960611050205855,0.15340947248473696
22.167784000000005,2.3008548065884677,0.15352837716175996
22.17018,2.302855011477015,0.15376971173190918
22.172564,2.30536707304476,0.15404014351821696
22.174948,2.305737264239228,0.1544305434134678
22.177344000000005,2.30983211767281,0.15466571625125936
22.179728000000004,2.3230063092786972,0.15444259998624543
22.182128,2.3459114653629487,0.15379119873268243
22.184524000000003,2.37440361480587,0.1529270396157212
22.186908000000003,2.397029231636401,0.1523268787639056
22.189292,2.425289063653845,0.151418145479539
22.191688,2.460905672350899,0.1501211359719926
22.194076000000003,2.488933186942865,0.14913294853698844
22.19646,2.5243174782144413,0.1477823615794122
22.198856,2.559701769486017,0.1464515156304387
22.20124,2.592152794451398,0.14522491141606575
22.203624000000005,2.61780612124461,0.14431197002698498
22.206028000000003,2.643319678410962,0.1434176894283802
22.208412000000003,2.6686934659504544,0.1425369907700938
22.210792000000005,2.6982112246096404,0.141476490993274
22.213188,2.7274494440151056,0.14046732685691563
22.215576,2.7593413904730455,0.13941635484903417
22.217956,2.7892312361845697,0.13845050474380918
22.220352,2.8172587507765363,0.13754674631180203
22.22274,2.844355099808724,0.13667809136998882
22.225136,2.8707998225348548,0.13583311267630435
22.227532000000004,2.892728487088954,0.1351595231191136
22.22992,2.9038552519780505,0.13490583755790206
22.2323,2.9115368938817547,0.13473984946116366
22.234696,2.9250850683978484,0.13436109329222085
22.237084000000003,2.932347401420972,0.13425477931977473
22.239468,2.937607633697678,0.13422764129356976
22.241864,2.9508762689600525,0.13391360271860445
22.244248,2.9598611634758716,0.13378733727439096
22.246632000000005,2.9694976842977496,0.13367250102892148
22.249028000000003,2.9854200466125977,0.13332188470028572
22.251416,3.003344509673863,0.13289408292341962
22.253796,3.021408742361989,0.13244762035607743
22.2562,3.0426857806100296,0.13187991969159016
22.258588000000003,3.059027451805459,0.1314823852566247
22.260968,3.077790532627885,0.13097855352218607
22.263364000000003,3.092689181584338,0.13059763573922842
22.265752,3.1105210968469867,0.13012988654191682
22.268132,3.130215343229192,0.12961175957085294
22.270528,3.1497698199845368,0.12910646839049533
22.272916,3.1642491600604092,0.1287688522113606
22.2753,3.1789608175617587,0.12849128193908763
22.277696,3.202332504354834,0.12796191611178973
22.280084,3.221140911147635,0.12761753657752378
22.28248,3.2360848860744613,0.12739255630216362
22.284876000000004,3.2539621273074837,0.12707582745839363
22.287264,3.2695577285403687,0.12686156040010013
22.289644000000003,3.2790072579071428,0.1268616100176859
22.292048,3.284732125034804,0.12695708376169224
22.294436000000005,3.286872099550212,0.12713365432157797
22.296816,3.284868102945926,0.12745409219576878
22.299212000000004,3.285005976714917,0.12769233000230623
22.3016,3.2859352464168254,0.12792257931384507
22.303980000000003,3.2830000842527616,0.1282610201706526
22.306376,3.2809960876484756,0.12857765012741224
22.308764000000004,3.2757792854842736,0.12900838660014452
22.311144,3.2716334185067106,0.12939890737841755
22.313548000000004,3.26548545078273,0.12984863627973572
22.315936,3.2594772526856097,0.13027966899511284
22.318316000000003,3.256030233842348,0.13058394170364676
22.32072,3.2575185820516976,0.13074560086116485
22.323108000000005,3.2577036776489323,0.1308895016076434
22.325488,3.2512308447008578,0.13120438706561768
22.327884000000005,3.2539771195519496,0.13122427726911728
22.330272,3.260867365522735,0.13110998037052982
22.332652000000003,3.264964114814186,0.13106176777593084
22.335048,3.266407137053162,0.1310636479323017
22.337436000000004,3.271202734478914,0.13093463549426454
22.339816,3.2826562604499743,0.13063195158652455
22.342216,3.2959721175405914,0.1302785403044854
22.344604000000004,3.3122212409374034,0.12984608395762023
22.346984,3.326608033214659,0.12946490906545347
22.349380000000004,3.340482968812717,0.12906230577251745
22.351768,3.355289069970553,0.12863531741655104
22.354152,3.3680930703819723,0.12826251347031797
22.356548000000004,3.3821077756068902,0.12783773404412568
22.358936,3.392677357846415,0.12746993209463015
22.36132,3.405249040832357,0.1270442632240497
22.363716000000004,3.417029327885381,0.1266282043075092
22.366108000000004,3.4237344782589325,0.12637050234491265
22.368488,3.431510563819123,0.12608201614505263
22.370884000000004,3.443942477178204,0.12569227138095349
22.373272,3.458935569791144,0.1251823850534266
22.375652,3.467782590537973,0.12486669524492133
22.378052000000004,3.4754189064713024,0.12460833872307882
22.38044,3.4868271064719885,0.1241915168612098
22.382824,3.5020997383386483,0.12367520468790352
22.385216,3.5178842268845063,0.12319033517764628
22.387604000000003,3.5291526572583325,0.12279543204747245
22.389988,3.5436338931920743,0.12230598465907061
22.392384,3.549734639087811,0.12198446525307424
22.394772000000003,3.549549543490577,0.12184829264531714
22.397156000000003,3.5498763045725403,0.12173652445439812
22.399552,3.554347036774198,0.12150562502965445
22.401940000000003,3.5624498834163516,0.12112967973304371
22.404336,3.56733992449859,0.1208538670432817
22.406732000000005,3.5803309163651122,0.12043800757381393
22.40912,3.591739116365799,0.12003634265537842
22.411504,3.603007546739625,0.11964951735331876
22.413900000000005,3.6186522656586217,0.1191932384719838
22.416288,3.6307120919653664,0.11880407386850039
22.418668000000004,3.635974220099942,0.11857476488181325
22.421064,3.6402579608464958,0.11844445960734172
22.423452000000005,3.6471028808469077,0.11820701203545649
22.425832,3.649431742675288,0.11804733527985933
22.428232,3.647988720436312,0.11804161578474796
22.430620000000005,3.6465456981973356,0.11803578215649911
22.433,3.644451049652303,0.1180198775458802
22.4354,3.6443585018536857,0.11795480274789984
22.437788000000005,3.6431950188684303,0.11792115362255155
22.440168,3.6533452922273746,0.11766989381875126
22.442568,3.678720975624736,0.11704860472093047
22.444956000000005,3.7025138671562607,0.11643427803359448
22.447340000000004,3.7189499820081755,0.11602067418304918
22.449736,3.733895852792872,0.11568150665559504
22.452124000000005,3.7534050035778423,0.11519810207780846
22.454504,3.766675534698085,0.11481187133664514
22.456900000000005,3.778455821751109,0.11449258243023872
22.459288,3.7933091447371883,0.1141050812030556
22.461668000000003,3.8068592151111518,0.11370007318349568
22.464064,3.8199899766045347,0.11333154079816693
22.466452000000004,3.8389872707103074,0.11284295147505594
22.468848,3.85961457851016,0.11227491060365677
22.471244,3.8788914118696534,0.11176600946050866
22.473632,3.9014735985876805,0.11122840379049545
22.476012000000004,3.923916015678846,0.11069652595842097
22.478412,3.945846576090814,0.11014641001839501
22.4808,3.9649836398234486,0.10964331153851269
22.483180000000004,3.983701394675501,0.1091839109046602
22.48558,3.9988342569153,0.10877568623745384
22.487968,4.005586629117095,0.10850914680203773
22.490348000000004,4.001257562400167,0.10848318786486683
22.492744,3.998790826802796,0.1084283364841078
22.495132000000005,3.999956205645921,0.10825442193042493
22.497516000000005,4.002983915608602,0.10805262653151955
22.499912,4.004521381504065,0.10791671133188538
22.502300000000005,4.0037772073993905,0.10784540846066962
22.504684000000005,4.005733982175433,0.10767088314697047
22.50708,4.002615620272004,0.10760479241531717
22.509468,4.000288654301492,0.10753694406213343
22.511848,4.002105659450676,0.10737721274405697
22.514244000000005,4.0003377719876045,0.1072607053372024
22.516632,3.997219410084176,0.10719431403118557
22.519016,3.9942408178076065,0.10711570637117741
22.521412000000005,3.9927524695982566,0.10697591298261097
22.5238,3.993405991762183,0.10678536794385712
22.526180000000004,3.9962939320980047,0.10660496539132272
22.528576,3.998110937247188,0.10644760771198028
22.530964000000004,3.9969946760901753,0.10634214234314235
22.53336,3.997461206798999,0.10623358622009234
22.535760000000003,4.002443795679854,0.10606911260684099
22.538148,4.011430586053543,0.10582574183313107
22.540532,4.020417376427232,0.10558481152994145
22.542928000000003,4.031638584972815,0.10535578853514983
22.545316,4.041137232025702,0.10514301385801673
22.547696,4.047702612772393,0.1049804253654618
22.550092,4.060925922064393,0.10471456072888834
22.552480000000003,4.072519217662314,0.104523812032991
22.554864,4.086254383633511,0.10428131225227597
22.55726,4.100780945537626,0.10404129173458672
22.559652,4.111303305948908,0.10387859532273326
22.562032,4.126201954905361,0.10367988203334207
22.564428,4.141380143115535,0.10345772616547096
22.566816000000003,4.157209957631767,0.10324750300347746
22.5692,4.170897901774721,0.10308784167509666
22.571600000000004,4.184585845917675,0.10292967951852192
22.573984000000003,4.193897501515458,0.10280944359404405
22.576368,4.209727316031689,0.10260575615454899
22.578764,4.2329139072275295,0.10225445529283443
22.581152000000003,4.257823059916067,0.10189300844662112
22.583532000000005,4.284594543724161,0.10151723154433316
22.585932,4.310015553091896,0.1011899647169209
22.588320000000003,4.33515702320591,0.10088755966318315
22.590704,4.356434061453951,0.10064154327526945
22.5931,4.37836272600805,0.10040741284125587
22.595488000000003,4.403364426495206,0.10011643324095691
22.597872,4.426643565489663,0.09984457832062746
22.600268,4.451133409297621,0.0995412827586538
22.602656000000003,4.477345814598275,0.09923033231512962
22.605036,4.500624953592732,0.0989629906214229
22.607436,4.526557819639664,0.09867464195781887
22.609824000000003,4.546763922701067,0.09846269809182132
22.612204,4.570694688001584,0.09821371368573673
22.614608000000004,4.595975927742459,0.09792668547808733
22.616996,4.622188333043112,0.09763053959436761
22.619376000000003,4.647749112037707,0.09732623187026589
22.621772,4.6768947836445545,0.09699237236266912
22.624160000000003,4.704317893758707,0.09667655608982277
22.62654,4.7246637664469695,0.0964755040924244
22.62894,4.744218243202314,0.09627581295959844
