Time,Force,Position
19.933364,0.036089735811574576,0.0
19.935768,0.034144225976012216,0.0
19.938156,0.03126755058067153,0.0
19.940536,0.032291263939066915,0.0
19.942932,0.03359451655118271,0.0
19.945316,0.03582893472307683,0.0
19.947696,0.03792358326811074,0.0
19.950088,0.03829567032044822,0.0
19.952476,0.04253218923875919,0.0
19.954856,0.04155380185073772,0.0
19.957248,0.04499892483613058,0.0
19.959636,0.05351918450099568,0.0
19.962012,0.05882663860594518,0.0
19.964408,0.07473963183818234,0.0
19.966796,0.08661246668982325,0.0
19.969176,0.10094266805622418,0.0
19.971588,0.11527286942262512,0.0
19.973976,0.13160517153544293,0.0
19.976356,0.15101050958131612,0.0
19.978768,0.16869328613449286,0.0
19.981152,0.1822320915679757,0.0
19.983548,0.19376879625504168,0.0
19.985944,0.20130129944927397,0.0
19.988328,0.20670319721070982,0.0
19.990708,0.20689018866581316,0.0
19.993104,0.20219840397915897,0.0
19.995492,0.19671522335958672,0.0
19.997868,0.19109227311315422,0.0
20.000264,0.18346722212030486,0.0
20.002652,0.17891520706051092,0.0
20.005032,0.17208155200057967,0.0
20.007444,0.16217486100759307,0.0
20.009832,0.15333910520124497,0.0
20.012212,0.13742611196900778,0.0
20.014616,0.1244463850429658,0.0
20.017004,0.11011618367656485,0.0
20.019384,0.09578598231016391,0.0
20.021788,0.07945368019734612,0.0
20.024172,0.06004834215147293,0.0
20.026552,0.04236556559829617,0.0
20.028956,0.02882676016481334,0.0
20.031344,0.01729005547774735,0.0
20.033724,0.009757552283515067,0.0
20.036128,0.0028766753953406816,0.0
20.038516,0.0,0.0
20.040896,0.0,0.0
20.043292,0.0,0.0
20.045676,0.0004552657683431994,0.0
20.04806,0.0024933234025226194,0.0
20.050464,0.002493323402522619,0.0
20.052848,0.002493323402522619,0.0
20.055228,0.0024933234025226194,0.0
20.057624,0.0024933234025226194,0.0
20.060012,0.0024933234025226194,0.0
20.062392,0.0024933234025226194,0.0
20.064796,0.0024933234025226194,0.0
20.067184,0.0024933234025226194,0.0
20.06956,0.0024933234025226194,0.0
20.071956,0.0024933234025226194,0.0
20.07434,0.0024933234025226194,0.0
20.07672,0.0024933234025226194,0.0
20.079128,0.0024933234025226194,0.0
20.081512,0.00249332340252262,0.0
20.083892,0.00249332340252262,0.0
20.086296,0.00249332340252262,0.0
20.088684,0.00249332340252262,0.0
20.091064,0.004344389581598678,0.0
20.09346,0.006950894805830278,0.0
20.095844,0.00932508260458461,0.0
20.098224,0.016018968037655634,0.0
20.100628,0.021641918284088124,0.0
20.103016,0.02642625076935935,0.0
20.105392,0.03209452698616575,0.0
20.107788,0.03715650286728816,0.0
20.110172,0.04398636621148091,0.0
20.112552,0.056588318511577695,0.0
20.114952,0.07296025902116168,0.0
20.117336,0.09431289255373158,0.0
20.11972,0.11729364392251163,0.0
20.122132,0.14655834092639336,0.0
20.12452,0.1825262924459575,0.0
20.1269,0.2219846929212884,0.0
20.129304,0.2641421464194679,0.009527067900445127
20.131692,0.3102093577539949,0.018981498976120635
20.134068,0.35804445655159217,0.02877332727724668
20.136464,0.40657650762562125,0.0390906863538635
20.138852,0.4575393374092592,0.04938518825983559
20.141232,0.5118528465218036,0.05955063749295263
20.143624,0.565512833470421,0.07015079862610743
20.146012,0.6206611686283883,0.0806805964253584
20.148408,0.6815815927422596,0.09103519782855729
20.150812,0.749671802080637,0.10092292534022489
20.1532,0.8196243425385711,0.11072785085843988
20.15558,0.8944197022505,0.12021661595557528
20.157984,0.9662364696858601,0.1298665134798857
20.160372,1.0320016089115958,0.1395944403853226
20.162752,1.0975816525400972,0.14902667046269372
20.165148,1.1557595935186151,0.15877586229630947
20.167532,1.2161738485268965,0.16815990197178365
20.169912,1.270863236407517,0.17740003875185759
20.172316,1.3163354123468405,0.18680118897418926
20.1747,1.3564548082108405,0.1963662302826954
20.177084,1.3926644462384932,0.19656708928768712
20.17948,1.4237536216162998,0.19700858257574694
20.181864,1.4518642047175374,0.19728603243361373
20.184244,1.4811401666618997,0.19685434103203694
20.186648,1.505994514090717,0.19648529682592414
20.189036,1.522934902190353,0.19669489715259597
20.191416,1.5396901946927557,0.19649716265617656
20.19382,1.555189456411285,0.19616246546373367
20.196208,1.5701315354802428,0.195531194672495
20.198592,1.5796736126456339,0.1952840347438592
20.200988,1.5904736164527669,0.19473680310832514
20.203372,1.597176870968449,0.1944710434789026
20.205752,1.604159664737852,0.19411836847458613
20.208156,1.6115617673878355,0.19365259118678746
20.210544,1.6136564159328695,0.19359887415016214
20.212924,1.6193831789183992,0.19308112250492007
20.215328,1.622036905970874,0.19288942845750073
20.217716,1.6226413104486892,0.19305806356975683
20.220096,1.6293445649643716,0.1928037392513277
20.222492,1.6417745824655838,0.19207985345538323
20.224876,1.6560669310863532,0.19119188696099307
20.227256,1.674363481199956,0.18994739601332425
20.22966,1.6988061031796697,0.1881813981416361
20.232048,1.7223175595996048,0.1865447393774656
20.234428,1.7442462241537038,0.18494896334104668
20.236824,1.7687360679616606,0.18293041975152396
20.239212,1.7948559254636967,0.1807175804436564
20.241592,1.8186015951669785,0.17868384042514343
20.243996,1.837272128190788,0.17717545278352242
20.246384,1.8532889341621228,0.17583085832941014
20.248764,1.8642306034539855,0.1749550040446552
20.251168,1.8766152949848243,0.17405943099338508
20.253552,1.892864418381636,0.17289886139940816
20.255932,1.907623297711229,0.17191145027435575
20.258332,1.9248961344664364,0.1707819461444795
20.260716,1.9426808279008416,0.16972153933952394
20.263096,1.9596741254023287,0.1687002270948872
20.2655,1.9772265014112564,0.1675151333587354
20.267888,1.991193984807931,0.16659198561101118
20.270268,1.9995744748459359,0.16605411038575418
20.272672,2.006651712271825,0.1655150263699366
20.275056,2.007862417085324,0.16539441472307378
20.277436,2.001064718913155,0.16586700203462948
20.27984,1.9933358551812081,0.16639386072262033
20.282224,1.991054215181071,0.16659594090896376
20.284604,1.9902155974199094,0.16677212436317887
20.287008,1.9889576707781678,0.16702972680612738
20.289392,1.987140665628985,0.16740287425915004
20.291772,1.9850441212260814,0.16783989052763768
20.294168,1.9863926998085717,0.1681083973013923
20.296556,1.9906745446972567,0.1681780560578578
20.298936,1.991651036227409,0.1683860232013562
20.301332,1.9887630958915876,0.168842501459285
20.30372,1.9895072699962624,0.168960774325888
20.3061,1.9906707529815182,0.16899406676914402
20.308496,1.989180508914299,0.16915928959751825
20.310884,1.9898321352203572,0.16916243281552226
20.313264,1.9902042222726946,0.16922105601346954
20.315664,1.9941612019372852,0.16910007219292872
20.318048,2.0052879668263817,0.16863915735007454
20.320432,2.0185093802605123,0.16816537853458718
20.322828,2.034524290373978,0.1675114010931004
20.325216,2.055195028286335,0.166572258991354
20.327612,2.07651739250475,0.16563784895408845
20.330004,2.0929043896705535,0.16504145765288886
20.332392,2.111852566090214,0.16423952893910443
20.334768,2.1281470154574,0.1635659130299416
20.337176,2.145791939264945,0.16276216569932062
20.33956,2.167301294938463,0.16173970598012072
20.34194,2.1888106506119813,0.16074728033687685
20.344344,2.2083179055390825,0.15989067579736668
20.346732,2.2329928449442735,0.1588392842497425
20.349108,2.2620440728946356,0.15762524231320527
20.351512,2.289465287150918,0.15661786275137346
20.3539,2.3171188188326783,0.1557130052367964
20.35628,2.347286307940053,0.15472539233835272
20.35868,2.3755442440996277,0.15396859099729024
20.361068,2.408737547311814,0.15296587151310767
20.363448,2.4363438571653315,0.1522311620630444
20.365852,2.45757177772726,0.1517916446048347
20.36824,2.4787071504905716,0.1512712643662727
20.370616,2.5041262640004374,0.1505292079509679
20.37302,2.5279625856444667,0.149827270366266
20.375408,2.552357985795937,0.14905009130696772
20.377788,2.5779640907609065,0.14817899926068007
20.380192,2.6010090164720183,0.14751999863553417
20.38258,2.624705568489188,0.14685680332480636
20.38496,2.6482623508794974,0.1462244227634361
20.387364,2.6698170325233894,0.14570056583337276
20.389748,2.6855051815548916,0.14542133374586477
20.392128,2.700913791332673,0.1451791921622431
20.394532,2.7108751773786453,0.1451368473643357
20.396916,2.715389339692807,0.14529101810386746
20.399296,2.719391645327772,0.1454178345807684
20.401692,2.720879993537121,0.14560997921267183
20.40408,2.7198543843208562,0.14586777052128302
20.40646,2.7170136658132784,0.14608901949673223
20.408864,2.710448285066587,0.14644806186259804
20.411252,2.708026875439589,0.1466020378221247
20.413632,2.705325926558871,0.14680028895885222
20.416028,2.6997842591705754,0.1472185844684153
20.418412,2.6871653543563903,0.14797184662347218
20.420796,2.6773399462215406,0.14860554826481073
20.4232,2.668166164392748,0.14923290398639952
20.425584,2.659783778496874,0.14984387303551014
20.427964,2.653683032601137,0.15031645206202668
20.43036,2.6520057970788145,0.1505514483331794
20.432744,2.648745769690656,0.15081208186736417
20.435124,2.6429717848768823,0.15113371296539432
20.437532,2.645485742302497,0.15107480347310218
20.439916,2.648838317489273,0.15089764644757553
20.442296,2.6566144030494625,0.15049286325053443
20.444692,2.6674635245427094,0.14994758847075595
20.44708,2.6789642723420126,0.14941210865857224
20.44946,2.6974024879403453,0.14861324111174232
20.451856,2.7207760705912896,0.14763734956911467
20.454244,2.7486657114142647,0.14653717375244577
20.456624,2.7765553522372404,0.1454369979357769
20.45902,2.802023583433219,0.1444869536747683
20.461404,2.830704620189113,0.1433922458109658
20.4638,2.863948936945281,0.14207032853695276
20.466204,2.902547929634642,0.14049231017064662
20.468592,2.938493195271528,0.13901807655928022
20.470972,2.9725761297888575,0.13762069827777917
20.473368,3.0072181428136275,0.13617089285121306
20.475756,3.0378559543455648,0.1348893385899167
20.478136,3.0612767588247527,0.13390564485420245
20.480532,3.0884222255430536,0.13282513818574293
20.48292,3.1186407281944093,0.1316233066229903
20.4853,3.1455066556589903,0.13060891453447238
20.487696,3.172604900549048,0.12966240568891121
20.490084,3.19500009581197,0.12894489759742622
20.492464,3.2172555214480325,0.1282542428582611
20.49486,3.2387195511511773,0.1275746048641837
20.497248,3.2487300548832607,0.12723730968285166
20.499644,3.2487300548832607,0.12723730968285166
20.502048,3.246727954136844,0.12730397729730056
20.504436,3.2468677237637036,0.1272872878675968
20.506816,3.247426802271144,0.12722047050593463
20.509212,3.244261218539472,0.12725151869867385
20.5116,3.2378828292478845,0.12740273607230163
20.513984,3.2300141958890776,0.1276390448689718
20.51638,3.2207950880899117,0.12794990496017639
20.518764,3.2114362106638854,0.1282777605497443
20.521144,3.199376384357141,0.12875153416880203
20.523544,3.187037018796676,0.12926643794953208
20.525928,3.1796330202888234,0.12962948915127556
20.528312,3.169155985847915,0.1300929266305101
20.530716,3.1571887073397873,0.1306439473842282
20.5331,3.14536119845852,0.13117450659028962
20.53548,3.132882063271196,0.1316955000272915
20.537884,3.1254780647633433,0.13204893250465327
20.540272,3.119005231815269,0.13237439624721273
20.542652,3.1113216940536965,0.13275811326295145
20.545048,3.111599337449548,0.13298055900794625
20.547436,3.122678880510401,0.13286987098426503
20.549816,3.1328272580114764,0.13278461000632713
20.552212,3.1413456218184725,0.132806984104409
20.5546,3.1505156119315267,0.1328385844269664
20.55698,3.16527259540325,0.13273193802688973
20.559376,3.1841735499946675,0.1324923337503862
20.561764,3.2012121734665278,0.13229671028804313
20.564144,3.2236054728715824,0.13191540921037526
20.566544,3.2452073763437177,0.13153730083273052
20.568928,3.2693704590697106,0.13103287333962801
20.571308,3.29730542586306,0.13035352828731425
20.573712,3.3253801622832695,0.1296752312186195
20.5761,3.354805373143838,0.12893332465387203
20.578484,3.387443389564323,0.12808919375944358
20.580888,3.419010470798169,0.1272850831263342
20.583272,3.4504377824051544,0.1264946301729625
20.585652,3.4789318277059453,0.12579513083931973
20.588044,3.501559340394345,0.12524686425175915
20.590432,3.52861036345616,0.12454336747822575
20.592824,3.55356673797294,0.12383758764611331
20.595228,3.571725414317552,0.12331777052000113
20.597612,3.5898840906621636,0.12279795339388894
20.599992,3.60687928402152,0.12224432868266007
20.602388,3.6221519158881796,0.12171654563765422
20.604776,3.6323494110753676,0.12134153275340753
20.607152,3.6356094384635265,0.12115453278384807
20.609548,3.6439446025311573,0.12082676754111416
20.611936,3.645062759546039,0.12071120617639954
20.614328,3.6468325428669783,0.12060421101828189
20.616728,3.6481830173073373,0.12054131900233923
20.619112,3.6481830173073377,0.12054131900233922
20.621492,3.6471120821206995,0.1205741934805211
20.623896,3.6437595069339235,0.1206867310127749
20.626284,3.6376134350678124,0.12085274260783155
20.628664,3.6340285424555594,0.12091123140942407
20.631068,3.6328650594703036,0.12087835421294903
20.633452,3.632260654992489,0.120790704637306
20.635832,3.6410151279407006,0.12045021136088184
20.638236,3.6456256297692184,0.12022307539050024
20.64062,3.652098462717292,0.11996464330325089
20.643,3.663786201971699,0.11957055238519716
20.645404,3.6784072075323007,0.11911859403906148
20.647788,3.694611004958739,0.11866141500041495
20.650172,3.7146792342511508,0.11813012419287766
20.652568,3.737029103543699,0.11752563698934179
20.654956,3.761101534328945,0.11688782423289748
20.657336,3.7799590588078575,0.11639383771302181
20.659732,3.8029605544064644,0.11578776734653351
20.662116,3.830385560378486,0.11506057892420236
20.6645,3.8578105663505076,0.11433685717838905
20.666896,3.8830937019492517,0.1136723363294889
20.66928,3.9086563768017157,0.11298927099024728
20.67166,3.937292087587236,0.1122343636338882
20.674064,3.967790129492313,0.11145584540057013
20.676452,3.995447452889811,0.11080621642966659
20.678832,4.023616632966507,0.11019551120472157
20.681236,4.051226734535763,0.10963742004562874
20.683624,4.074273556104743,0.10922966489957517
20.686004,4.103047140659254,0.10873187736484435
20.6884,4.130610020400266,0.108280726626772
20.690788,4.153749389767864,0.10794980478608396
20.693168,4.17195339208285,0.10771285760860821
20.695572,4.190576703278416,0.10744437762225861
20.69796,4.20533558260801,0.10724392853793521
20.70034,4.221165397124241,0.10702292207298382
20.702736,4.241558491640747,0.10668373025933152
20.705124,4.26544393097089,0.10625013798506577
20.707504,4.290120766233949,0.10582111922416734
20.709908,4.311445026310234,0.10548414164063895
20.712296,4.333840221573157,0.10512704150355422
20.714676,4.357166582395858,0.104754851364073
20.717072,4.3791424687782,0.10443081074744653
20.71946,4.397114153667708,0.10417799908407599
20.721844,4.410941867437524,0.10400707909648227
20.724248,4.42425772452814,0.10381261697170598
20.726636,4.4339886890065054,0.10365757798767972
20.729016,4.445861523858145,0.10345730452157269
20.731412,4.45587202759023,0.10328052602750021
20.7338,4.459876229083063,0.1032107556885232
20.73618,4.460807394642841,0.10319873977022341
20.738576,4.465091135389394,0.1031065714655391
20.740964,4.4712372072555056,0.10298924225018415
20.743344,4.4736113950542595,0.10298617349939893
20.745748,4.47770814434571,0.10296976925049771
20.748132,4.479383484010163,0.10302243630370901
20.750512,4.4777062484878405,0.10315468572181674
20.752916,4.471605502592104,0.10338931332861384
20.755304,4.465784295950089,0.10359910241709994
20.757684,4.457449131882457,0.10382259435153962
20.76008,4.448741880762489,0.10401109471793481
20.762464,4.443526974456156,0.1041098289971057
20.764848,4.438591607403544,0.10418712596082455
20.767248,4.436869045910847,0.10419877329762663
20.769636,4.4377076636720085,0.1041340907678451
20.772016,4.43854628143317,0.10406909689648278
20.77442,4.441247230313888,0.10398158065992444
20.776808,4.443948179194605,0.10389523539491997
20.779188,4.450001703262099,0.10373372946164146
20.781592,4.456754075463894,0.10351789609695616
20.78398,4.468209497292823,0.10318393279162534
20.78636,4.477662818375336,0.10288528589004682
20.788764,4.489537549084846,0.10252528012101457
20.791148,4.505323933488573,0.10204719805797863
20.793528,4.520878000466823,0.10152986488056255
20.795924,4.532055778899902,0.1010375108409175
20.798312,4.544444262146478,0.10051514921196297
20.800692,4.56139602539333,0.09988665223656688
20.803088,4.572621025654652,0.0993320329224503
20.805476,4.586779292222168,0.09873435554771891
20.807856,4.596514048416271,0.0982316859247371
20.810256,4.601965063863817,0.0978177370259162
20.812644,4.607416079311367,0.09740429925906231
20.815024,4.613658490691833,0.09699475675281378
20.81742,4.621623463564996,0.09657876322531074
20.819808,4.631078680505378,0.09611121964868898
20.822204,4.636809235206646,0.09568231836148561
20.8246,4.63974629322858,0.0952848059293608
20.826988,4.640541480877236,0.09493001454734537
20.829368,4.643198999645449,0.09455672453860689
20.831764,4.640222303226749,0.09430329464735344
20.834152,4.634591879755575,0.09406704073391166
20.836536,4.624957254791567,0.09388935787503538
20.83894,4.617836587253173,0.09370431960331149
20.841328,4.611227776393977,0.09354037366586268
20.843708,4.61155643333381,0.09328135803800411
20.846104,4.610674385460143,0.09305234999945504
20.848492,4.6055085968399245,0.09289970484034081
20.850876,4.607000736765013,0.09267433460972005
20.853272,4.606490775943684,0.09247701455440037
20.85566,4.6130580525482445,0.09217864860793949
20.85804,4.6205564947125835,0.09187076978569164
20.860444,4.626984001690285,0.09158131388664603
20.862832,4.631549177548428,0.09131107103932169
20.865212,4.634903648593072,0.09107153596011545
20.867608,4.6384904370631945,0.09087424109412512
20.869996,4.646593283705348,0.09064436548935616
20.872376,4.653904734414584,0.09041187516553376
20.874772,4.660145249937181,0.09019753269496107
20.87716,4.665826686952339,0.09002453213946664
20.87954,4.677654195833606,0.08976133757890964
20.881936,4.69558055475274,0.08947058889107384
20.884324,4.718022971843905,0.08914952053128573
20.886708,4.731525820389626,0.0889422957666664
20.889104,4.743957733748708,0.08875423802344021
20.891492,4.7551789422942905,0.0885969001760847
20.893872,4.7626754886007605,0.08847031247894124
20.896268,4.773105301213426,0.08830901061334684
20.898656,4.779670681960116,0.08819164454922575
20.90104,4.7862360627068075,0.08807393435703367
20.903444,4.786655371587388,0.08804443443283448
20.905828,4.789216550841246,0.08797980851718563
20.908208,4.79485076602816,0.08787261271608636
20.910612,4.8014161467748515,0.08775828335931031
20.913,4.806119196401986,0.08765940477166953
20.91538,4.814314590842756,0.08749169414413378
20.917784,4.821718589350608,0.08732342145063314
20.920168,4.831496775657216,0.08716126668985731
20.922548,4.8414147315906835,0.08698884538560273
20.924944,4.850541291591233,0.08681455206473253
20.927332,4.858876455658864,0.08664151022885883
20.929712,4.865628827860658,0.08646660382095067
20.932116,4.867865141890422,0.08631799027988953
20.934504,4.8773184629729345,0.0860723790199423
20.936884,4.8879824888689445,0.08580221651530906
20.93928,4.898646514764955,0.08553391654970433
20.941668,4.918110339579553,0.08517768902780683
20.944048,4.938645099580789,0.08480968999383223
20.946452,4.959040089955164,0.08444945590473896
20.948836,4.983159742568653,0.08406527025926004
20.951216,5.010631970368917,0.08362429299244015
20.95362,5.034239766303208,0.083220957132283
20.956008,5.054914295931303,0.08284907000236172
20.958388,5.07479742962648,0.08247693455196892
20.960792,5.094820332948518,0.08209425173771391
20.96318,5.109768099591084,0.08177542086980873
20.96556,5.12457609660679,0.08146746820631792
20.96796,5.138732467316438,0.081148530444459
20.970348,5.156613500265197,0.08080722780179271
20.972728,5.176776173214096,0.08043005416481179
20.975132,5.194517436535995,0.08010289279363018
20.977524,5.207742641685865,0.07979690068747122
20.979904,5.223901113141929,0.07946462722614332
20.982308,5.240711210904052,0.07914942383673952
20.984692,5.257381539039313,0.07884548799686186
