Time,Force,Position
19.665268,0.02189363394948097,0.0
19.66766,0.023632869330245845,0.0
19.670044,0.023632869330245845,0.0
19.67244,0.023632869330245845,0.0
19.674828,0.023632869330245845,0.0
19.677212,0.023632869330245845,0.0
19.679612,0.023632869330245845,0.0
19.682004,0.023632869330245845,0.0
19.684388,0.023632869330245845,0.0
19.686788,0.023632869330245845,0.0
19.689184,0.023632869330245845,0.0
19.691572,0.023632869330245845,0.0
19.69398,0.02189363394948097,0.0
19.696364000000003,0.020154398568716092,0.0
19.698748,0.018275393561091,0.0
19.701144,0.016256618926605702,0.0
19.703528,0.013958305038399985,0.0
19.705916,0.008726724843999096,0.0
19.708308,0.006428410955793377,0.0
19.710696,0.0034784707615297572,0.0
19.71308,0.0031989315078093357,0.0
19.715472,0.0019882266943105943,0.0
19.71786,0.006520958754410434,0.0
19.720244,0.013986957120705445,0.0
19.72264,0.021452955487000457,0.0
19.725024,0.02798778829351714,0.0
19.727408,0.03373122516711572,0.0
19.729812000000003,0.03826395722721556,0.0
19.7322,0.04051504928717813,0.0
19.734584,0.041695206160502166,0.0
19.736988,0.04594839896688159,0.0
19.739372000000003,0.05220369251967786,0.0
19.74176,0.058598755699334336,0.0
19.744152,0.06513358850585102,0.0
19.746540000000003,0.07073725575258939,0.0
19.748924,0.07713231893224588,0.0
19.75132,0.08417900841796026,0.0
19.753708000000003,0.09215686346345296,0.0
19.756092,0.09948309220288776,0.0
19.758484000000003,0.1041555938898478,0.0
19.760872,0.10429536351670803,0.0
19.763256,0.10736839944976342,0.0
19.765652000000003,0.10429536351670803,0.0
19.76804,0.09721812609081895,0.0
19.770424,0.09014088866492988,0.0
19.772820000000003,0.08585714791837573,0.0
19.775208,0.08250457273159995,0.0
19.777592,0.0812938679181012,0.0
19.779988000000003,0.08250457273159993,0.0
19.782372,0.08692808310501425,0.0
19.78476,0.08641622642581656,0.0
19.787156000000003,0.08017760676108875,0.0
19.789544,0.07378254358143228,0.0
19.791928,0.06724771077491559,0.0
19.794324000000003,0.06164404352817722,0.0
19.796712,0.055248980348520736,0.0
19.799096,0.048202290862806356,0.0
19.801492000000003,0.04022443581731365,0.0
19.80388,0.03289820707787885,0.0
19.806264,0.029685401517963256,0.0
19.808668,0.031407963010659685,0.0
19.811056,0.027806396510338168,0.0
19.813444,0.027526857256617746,0.0
19.81584,0.02713809631621182,0.0
19.818228,0.026749335375805896,0.0
19.820612,0.024498243315843327,0.0
19.823008,0.02210738162902055,0.0
19.825396,0.01878535438241945,0.0
19.82778,0.015323557508958143,0.0
19.830184000000003,0.00971989026221977,0.0
19.832572,0.00597855413503804,0.0
19.834956,0.005961880246969593,0.0
19.837356,0.00644318898599258,0.0
19.83974,0.006924497725015567,0.0
19.842128,0.006924497725015567,0.0
19.844524,0.008476741650677083,0.0
19.846912000000003,0.013102021509393982,0.0
19.849308,0.01758753174125067,0.0
19.851712,0.021002106786468827,0.0
19.854100000000003,0.021746280891143787,0.0
19.856504,0.021699059062900632,0.0
19.8589,0.02497386448125858,0.0
19.861284,0.028139448212931024,0.0
19.863688,0.032624958444787716,0.0
19.866084,0.03617930311686608,0.0
19.86848,0.03759177741566738,0.0
19.870876000000003,0.039144021341328904,0.0
19.873276,0.042838135640267484,0.0
19.875664,0.044669918819649414,0.0
19.87806,0.04466991881964942,0.0
19.880464,0.046641471625891565,0.0
19.882848000000003,0.046641471625891565,0.0
19.885248,0.04616016288686857,0.0
19.887644,0.045678854147845595,0.0
19.89004,0.045678854147845595,0.0
19.892436,0.04412661022218408,0.0
19.894824,0.03950133036346718,0.0
19.89722,0.035015820131610496,0.0
19.899624000000003,0.03160124508639233,0.0
19.902012,0.029397374854672916,0.0
19.904408,0.026122569436314965,0.0
19.906804,0.02284776401795702,0.0
19.909188,0.018502023412960547,0.0
19.911572,0.014016513181103855,0.0
19.913968,0.012992799822708475,0.0
19.916356,0.01518189202422869,0.0
19.918752,0.01643981866597058,0.0
19.921148,0.012745704367032,0.0
19.923536,0.010913921187650062,0.0
19.925916,0.010913921187650062,0.0
19.928312,0.008942368381407915,0.0
19.9307,0.008942368381407915,0.0
19.933084,0.008942368381407915,0.0
19.93548,0.008942368381407915,0.0
19.937868,0.008942368381407915,0.0
19.940248,0.008942368381407915,0.0
19.942644,0.008942368381407915,0.0
19.945032,0.008942368381407915,0.0
19.947412,0.008942368381407915,0.0
19.949808,0.008942368381407917,0.0
19.952196,0.008942368381407917,0.0
19.954592,0.008942368381407918,0.0
19.956988000000003,0.008942368381407918,0.0
19.959376,0.008942368381407918,0.0
19.961756,0.006411737067724929,0.0
19.964152,0.002810170567403409,0.0
19.96654,0.0,0.0
19.96892,0.0,0.0
19.971324000000003,0.0,0.0
19.973712,0.0,0.0
19.976092,0.0046725016869600495,0.0
19.978488,0.005620341134806816,0.0
19.980876,0.009501446888848755,0.0
19.983256,0.014453487829529226,0.0
19.985660000000003,0.020336694329988015,0.0
19.988048,0.02850154083058408,0.0
19.990428,0.032801955465206645,0.0
19.992824,0.032958398980135306,0.0
19.995212,0.03297507286820375,0.0
19.997596,0.03297507286820375,0.0
19.999992,0.03297507286820375,0.0
20.00238,0.03297507286820375,0.0
20.004764,0.03297507286820375,0.0
20.00716,0.03297507286820375,0.0
20.009548,0.03297507286820375,0.0
20.011928,0.03297507286820375,0.0
20.014328,0.03297507286820375,0.0
20.016716,0.03297507286820375,0.0
20.019096,0.03297507286820375,0.0
20.021492,0.03297507286820375,0.0
20.02388,0.028302571181243706,0.0
20.02626,0.027354731733396944,0.0
20.028664,0.023473625979355,0.0
20.031052000000003,0.01852158503867453,0.0
20.033432,0.012638378538215738,0.0
20.035828,0.004473532037619675,0.0
20.038216,0.00017311740299710487,0.0
20.040596,1.6673888068447157e-05,0.0
20.042992,0.0,0.0
20.04538,0.00033964325429353473,0.0
20.047764,0.005659979531572997,0.0
20.05016,0.01489007364519986,0.0
20.052548,0.028122473393791186,0.0
20.054944,0.05136348101659753,0.0
20.05734,0.08289053502092246,0.0
20.059728,0.11804780760787437,0.0
20.062108,0.15748692508351114,0.0
20.064504,0.1970639163281389,0.0
20.066892000000003,0.2427850835810081,0.009716932182551265
20.069272,0.2949299660958394,0.019080999481007187
20.071668000000003,0.3525673983128542,0.02827769501054178
20.074056,0.41397481873935627,0.03748969201267921
20.07644,0.4798038536814033,0.04670973333877118
20.078836000000003,0.5509856686987739,0.055847472433774914
20.081224,0.6265890982316895,0.0649965587643216
20.083604,0.7104785741461236,0.07381991790908515
20.086,0.8010713045762402,0.08243858154674948
20.088388,0.891988900230451,0.09128230411442681
20.090772,0.9890978937211465,0.09990449411149861
20.093168,1.0943402817941703,0.10814334146622298
20.095556,1.1954859205757435,0.11646807750427518
20.097952,1.295375528573444,0.12466741064072268
20.100348,1.3926133053765393,0.1327403193932857
20.102736,1.4771887472529446,0.1409339485595463
20.105116,1.5526867468149133,0.14915133588235674
20.107512,1.6282791900333682,0.15717301104622117
20.109900000000003,1.7035939898559718,0.16496283453556249
20.112284,1.7830546566561387,0.17248994721959288
20.114684,1.8534378811418688,0.170447312390844
20.117072,1.9201908870449718,0.16863357742327617
20.119452000000003,1.979029933618894,0.1671645144440918
20.121848,2.0347506182893866,0.16568539948743455
20.124236,2.084978753257696,0.16426507915492056
20.126616,2.1289229425909038,0.1629707510088862
20.129012000000003,2.169097143714624,0.1616697347239238
20.1314,2.1968413273371317,0.16095168313895727
20.133784,2.2189531916305953,0.16036596104297243
20.136180000000003,2.2436734570061603,0.1593945707049674
20.138564,2.2595485974927656,0.15875520076096952
20.140948,2.264157203463414,0.15864075569335154
20.143344,2.270023736075804,0.15829484641616567
20.145728,2.270163505702665,0.15826871849391258
20.148128,2.2678818657025275,0.1584450738153193
20.150524,2.2670432479413662,0.15860514019700828
20.152912,2.2656455516727645,0.15887564269588558
20.155292000000003,2.2605231931650493,0.15934185735370882
20.157688,2.2491149931643633,0.16023370492892014
20.160076,2.233143513163402,0.16144496744324627
20.162456,2.2258320624541663,0.16215650936862233
20.164852,2.2135852446923185,0.1631505972665633
20.16724,2.207764038050302,0.1637080293454773
20.16962,2.2062265721548395,0.163973490289206
20.172016,2.2056202718191553,0.16419659569215575
20.174404000000003,2.209018172976305,0.16419568549572033
20.1768,2.2109730518944786,0.16420935333935396
20.1792,2.218142837118985,0.16389932822694037
20.181588,2.2218202775298552,0.163844209589146
20.183968,2.223355847567448,0.16392945736565215
20.186364,2.229127936523352,0.16386454091992994
20.188752,2.2424891195843433,0.16342724939980435
20.191132000000003,2.2563621593245315,0.16304051504831252
20.193532,2.2768931276100286,0.1623316871016505
20.19592,2.2980757222015833,0.16161061666099233
20.1983,2.3223313527261933,0.1607123129931171
20.200696,2.3475181488105816,0.15974289865186497
20.203088,2.3733565712010285,0.1587791980078801
20.205468,2.4024077991513906,0.15758566329331605
20.207864,2.43374066710189,0.15624439146630006
20.210252,2.4553425705740253,0.15544051698202394
20.212636,2.481088445165855,0.15438423310318358
20.215032,2.5017591830782124,0.1536443767807536
20.217416,2.517215014684237,0.1532334148662927
20.2198,2.535324573342737,0.15273089879683388
20.222196,2.5488708520009618,0.15252840940289078
20.224580000000003,2.566933188831218,0.15216290322194487
20.226964,2.583645051221115,0.15190453350723826
20.22936,2.607713690290622,0.15125394165530423
20.231748000000003,2.628849063053934,0.1507294820303276
20.234144,2.6493328095111877,0.15021102683376172
20.23654,2.662087692236495,0.15004598730438096
20.238928,2.669395351229992,0.1500831760236539
20.241312,2.673257887238096,0.1502273168078144
20.243708,2.6815439336196145,0.1501263827985057
20.246096,2.6909009151877714,0.14997878373883847
20.248476,2.7029588456366462,0.14964677643262483
20.250872,2.7142253801526026,0.1493280641255299
20.253264,2.7272144761612562,0.14897171312223784
20.255644,2.7420659032894665,0.1485701337035958
20.25804,2.763715028589845,0.14789922368950087
20.260428,2.783222283516946,0.14733974967030739
20.262808,2.8025897688171875,0.14678672995159886
20.265204,2.8193035270649545,0.14629657054342723
20.267596,2.8327119319541882,0.14588487903092667
20.269976,2.847610580910642,0.14535348648690413
20.272372,2.856642697254705,0.14506376411802752
20.27476,2.8698187847184617,0.14459464494126376
20.277140000000003,2.8769885699429683,0.1443829303185834
20.279536,2.8870916214736693,0.14405394247863354
20.281924,2.8958441985640118,0.14381339248620717
20.284308000000003,2.908181668266607,0.1434568493620321
20.286704,2.925966361701012,0.14292298495828898
20.289092,2.944402681441475,0.1423988795887155
20.291476000000003,2.9577638645024655,0.14210279961258337
20.293872,2.968052011630401,0.14194411759615916
20.29626,2.973637109131202,0.1420393222441901
20.298656,2.980432911445501,0.14206687233917834
20.301056000000003,2.9829921948414895,0.1421922107155362
20.30344,2.980616111184866,0.14250315627622737
20.305824,2.976517466035546,0.1428492252184744
20.308224000000003,2.9744209216326434,0.14311728112504593
20.310608,2.975676952416516,0.14322726697872107
20.312992,2.980797415066362,0.1432035678776344
20.315388,2.9896425399553213,0.14306733636348248
20.317776,3.000210226336977,0.14289406139107094
20.320156,3.0149218838383267,0.142553144762888
20.322556,3.022835843167508,0.14244767351221746
20.324944,3.031029341750409,0.14230454438336307
20.327328,3.042575415520086,0.14201596064623015
20.329724,3.056822438170481,0.1415726922423261
20.332116,3.0704178345148185,0.14112279414335657
20.334496,3.0833616045530983,0.14067793192569114
20.336892,3.096724683471958,0.14018824930404178
20.339276,3.110227532017679,0.139675552301237
20.341656,3.123730380563399,0.13916094643843588
20.34406,3.143938379482671,0.13835770962939695
20.346448,3.1610733424688875,0.13766439933807537
20.348828,3.1795115580672197,0.13697851895359633
20.351236,3.197810004038692,0.13629863035802675
20.35362,3.214106349263747,0.13569206114221127
20.356,3.227748967436327,0.1351539826537669
20.358396,3.2391099456087704,0.13472660969435507
20.360784,3.2524730245276303,0.13424013355870604
20.363164,3.262763067513435,0.13387062237468705
20.36556,3.2724014841931814,0.1334989922230587
20.367944,3.2811087353131496,0.1331584493375643
20.370324,3.2968932238590076,0.13258640205249292
20.372724,3.312258403524284,0.1320564057355419
20.375108,3.319335640950174,0.13182029253918284
20.377488,3.3252021735625643,0.13164530196320912
20.379884,3.3321396413615934,0.1314320063978896
20.382272,3.33414174210801,0.13136849832049127
20.384672,3.3357245339738464,0.13135320386778115
20.387068,3.3431738584520727,0.131170385500287
20.389452,3.3489006214376027,0.13101574831780152
20.391836,3.349412478116801,0.1310396467537234
20.394232,3.352578061848473,0.1310105864447199
20.39662,3.354160853714309,0.13099559810252223
20.399,3.3560231848338655,0.13094845279246214
20.401396,3.360539243005897,0.130846764543123
20.403784,3.3650553011779283,0.1307443797905784
20.406164,3.3687799634170417,0.13064901391594927
20.40856,3.3695713593499597,0.13064140309386857
20.410948,3.3686401937901813,0.13066510789529115
20.413332,3.366498323416904,0.1307439410138985
20.415724,3.36207481304349,0.13091775871122224
20.418112,3.3516450004308247,0.13127580505970365
20.420508,3.344008684497495,0.13156462791000026
20.422904000000003,3.3473140378560275,0.13151948705006486
20.425292,3.346615189721727,0.13159782559057615
20.427676,3.3445658671470673,0.13174598797824189
20.430072000000003,3.348243307557937,0.13173952836016653
20.43246,3.3494067905431932,0.1317713623137901
20.43484,3.3442844320354776,0.13201781934490528
20.437240000000003,3.3439576709535137,0.13213401989813944
20.439628,3.3456330106179673,0.13218947694290878
20.442008,3.3486588247227798,0.1321766072541203
20.444404,3.357271632186262,0.1320316613671382
20.446792,3.3669553748363823,0.13184879501131544
20.449176,3.37277468562053,0.13176897070631402
20.451572,3.3817595801363494,0.1316617879792132
20.45396,3.392606805771725,0.13151021864966744
20.45634,3.401032621780104,0.1314608564027659
20.45874,3.4141142655873744,0.1312995942680433
20.461124,3.4291980101410617,0.13108031241476328
20.463508,3.4482859561875827,0.13074323477384023
20.465904,3.46895669409994,0.1303851529322312
20.468292,3.4872532442135435,0.13005031328568045
20.470688000000003,3.497681160968339,0.12994738680910028
20.473084,3.511693970335388,0.12976782220560973
20.475472,3.525846549329297,0.12957112938549115
20.477852,3.5350637612705937,0.12951565825412004
20.480248000000003,3.547446556943563,0.12943048006502622
20.482636,3.558106791123836,0.1293689435621818
20.48502,3.569558421237027,0.12930667944915145
20.487416000000003,3.581661677656276,0.12925492470561853
20.489804,3.5908316677693293,0.12928418962347674
20.492188,3.5970683915761876,0.1293932379668829
20.494584,3.6047481376220225,0.1295038102628157
20.496968000000003,3.6148492932948546,0.12951355560618677
20.499352,3.6229955700495124,0.1295008998358687
20.501748,3.633143947550588,0.1294355819114698
20.504136000000003,3.6489265402385764,0.1291693931885893
20.506516,3.6649886721802853,0.12888578589180935
20.508912,3.6785368466963795,0.12863585596614138
20.5113,3.690502229346637,0.12840297014706745
20.513696000000003,3.705540647929951,0.1280889095789316
20.516092,3.7255144335658765,0.12766280599531146
20.518476,3.7437656577091047,0.12725184903412512
20.520856,3.763507125919553,0.1267739570412237
20.523264,3.785809773383859,0.12619913240701647
20.525652,3.8114649960349403,0.12551245707019967
20.528032000000003,3.837027670887405,0.12477252320833448
20.530428,3.868084791299923,0.12385956176884265
20.532816,3.891692587234213,0.12309355956714148
20.535196,3.9106445553696125,0.1224144026284209
20.537592,3.9315986242514285,0.1216860705564661
20.53998,3.952040836454047,0.12093964453232639
20.54236,3.972250731231188,0.12015418497880784
20.544756,3.993391791568108,0.11935766792764683
20.547144000000003,4.015044708584225,0.11858873015474178
20.549528,4.033764359294147,0.11789366052698029
20.551924,4.047688412578317,0.11730255304148862
20.554316,4.0576082643696525,0.11680854901489833
20.556696,4.0691109080268255,0.1163079911371967
20.559092,4.078751220564442,0.11584231064047203
20.561480000000003,4.083875474930027,0.11544701155094608
20.56386,4.080851556683083,0.11524430997524689
20.56626,4.085556502168087,0.11488977367988712
20.568644,4.087188411720035,0.11460913216666789
20.571028,4.09040311313782,0.11432770060159725
20.573428,4.0917554834360494,0.11407709223078727
20.575816,4.092688544853697,0.11386442317592117
20.578196,4.090129261457708,0.11375671740830565
20.580592000000003,4.09357628030097,0.11352432062346036
20.58298,4.101958666196844,0.1131932569731898
20.585364,4.112203383212276,0.11283815267849519
20.587760000000003,4.124450200974122,0.11244713937383362
20.590152,4.134135839482112,0.11214431466667385
20.592532,4.144333334669301,0.11186627484993414
20.594928000000003,4.153739433923569,0.11159162716200939
20.597316,4.162214367618061,0.11132993629775198
20.599712,4.172132323551528,0.11107440416821214
20.602108,4.180048178738578,0.11085531983057553
20.604496,4.187032868365851,0.11065116580017989
20.606876,4.196671285045597,0.11041831502899005
20.609272,4.2080322632180405,0.11016780795473846
20.611664,4.226610248443232,0.10975758367929285
20.614044,4.239181931429175,0.10947315504494672
20.61644,4.251613844788257,0.10919806303736125
20.618828,4.2571082903483095,0.10905748904937197
20.621212,4.2620436574009215,0.10896354185146648
20.623608,4.264837154080256,0.1089212749809412
20.625996,4.2685618163193695,0.10886441223513613
20.62838,4.269725299304627,0.10889577579046965
20.630776,4.267955515983686,0.10898087859293115
20.633164,4.260319200050357,0.10917353643978289
20.635548,4.246257272997195,0.10952394487732667
20.637948,4.232614654824614,0.10984138270308996
20.640336,4.216318309599559,0.11018901144024405
20.642716,4.199742425120783,0.1105606291681123
20.645112,4.184237475828647,0.11090670047183881
20.6475,4.170594857656066,0.11122278201043666
20.649884,4.164820872842292,0.11138791795495546
20.65228,4.163051089521353,0.11147203866360904
20.654668,4.159139435827137,0.11160622846587935
20.657048000000003,4.159371753252613,0.11165061058464334
20.659448,4.156251495491315,0.11177956774598329
20.661836,4.153550546610597,0.11187470689975901
20.664216,4.154202172916655,0.11188456361764966
20.666616,4.157926835155768,0.11183182021660262
20.669004,4.161791267021742,0.1117666525259936
20.671384,4.167006173328073,0.11165267596390689
20.67378,4.173711323701626,0.11147969753747294
20.676168,4.179485308515399,0.11131871663158212
20.678548,4.1863302285158115,0.11113214323953205
20.680952,4.196248184449278,0.11087878828898952
20.68334,4.21645618336855,0.1104087289706579
20.68572,4.240528614153796,0.10987832994747498
20.688124,4.268605246431875,0.10927654361915445
20.690512,4.295890482777035,0.10867346330246952
20.692892,4.325177819868614,0.10803927786466128
20.695296,4.352090969161436,0.10741348481086055
20.69768,4.374208521028509,0.10687665694596085
20.70006,4.389528374723412,0.10645424810907805
20.702464,4.405127767672035,0.10600927950714668
20.704852,4.415652023941186,0.1056653861928909
20.707232,4.430599790583751,0.10522319791849971
20.709628,4.447270118719014,0.10476954335032654
20.712016,4.46072764129436,0.10438748752564143
20.714396,4.476047494989263,0.10398520151327068
20.716792,4.4979327294308575,0.10344623817147373
20.719176,4.522890999805507,0.10285985348978538
20.721556,4.5495718316728535,0.10227307232929735
20.72396,4.580164317234416,0.10157448393680228
20.726348,4.612898673169256,0.10084138736628816
20.728728,4.650847935410428,0.10003158358193306
20.731124,4.679717859479295,0.099375056308424
20.733508,4.703652416495548,0.09879244219718222
20.735904,4.723722541645829,0.09826451024235389
20.738308,4.748076407542664,0.09766305845975216
20.740696,4.770288403066221,0.0971053013987481
20.743076,4.795154125642254,0.09653252024046315
20.74548,4.818017747471871,0.09598617228844479
20.747864,4.841812534861265,0.09542248777887113
20.750244,4.86453638706402,0.0948776681703943
