Time,Force,Position
22.93376,0.03629916736959106,0.0
22.93614,0.03218260682163275,0.0
22.938536,0.029928377393231075,0.0
22.940924,0.02553227759155234,0.0
22.943304,0.021136177789873607,0.0
22.9457,0.01552937317469613,0.0
22.948088,0.011784899679075296,0.0
22.950468,0.0071092606236761394,0.0
22.952876,0.003364787128055306,0.0
22.95526,0.0026933495654898544,0.0
22.957644,0.0008112071894256618,0.0
22.960048,0.0022542294284016726,0.0
22.962436,0.003437523670164814,0.0
22.964816,0.005551983471706276,0.0
22.967212,0.006455738459748998,0.0
22.9696,0.0064557384597489975,0.0
22.97198,0.006455738459748998,0.0
22.974376,0.006455738459748999,0.0
22.976764,0.006455738459748999,0.0
22.979144,0.006455738459748999,0.0
22.981548,0.006455738459748999,0.0
22.983936,0.010432529380847102,0.0
22.98632,0.015340485861723523,0.0
22.988716,0.0182463415961831,0.0
22.991104,0.024225233263698052,0.0
22.993484,0.02592038418465888,0.0
22.99588,0.03175950622531362,0.0
22.998268,0.03852979382574669,0.0
23.000648,0.04422914623954123,0.0
23.003044,0.04885756346669722,0.0
23.005432,0.05362575032071344,0.0
23.007812,0.05137152089231176,0.0
23.010208,0.05309408238500819,0.0
23.012596,0.058029449437620215,0.0
23.014992,0.062452959811034554,0.0
23.017388,0.06992209554576867,0.0
23.019776,0.07618052646700404,0.0
23.02216,0.08257872701509962,0.0
23.024556,0.09083925868275186,0.0
23.026944,0.09830839441748598,0.0
23.029324,0.10577753015222009,0.0
23.03172,0.10540544309988262,0.0
23.034108,0.10182055048762956,0.0
23.036492,0.10116892418157165,0.0
23.038888,0.09823565787537648,0.0
23.041276,0.1026591682487908,0.0
23.043656,0.09958613231573542,0.0
23.046056,0.09281584471530234,0.0
23.048444,0.08711649230150782,0.0
23.050824,0.08248807507435181,0.0
23.053228,0.07771988822033561,0.0
23.055616,0.07771988822033561,0.0
23.058,0.07481403248587602,0.0
23.060396,0.06776420563172254,0.0
23.062784,0.0624369402702655,0.0
23.065168,0.05496780453553138,0.0
23.067568,0.048709373614296,0.0
23.069952,0.042311173066200414,0.0
23.072336,0.03405064139854819,0.0
23.074736,0.026581505663814075,0.0
23.077124,0.01911236992907996,0.0
23.079504,0.015507666060319336,0.0
23.081904,0.014184602191695985,0.0
23.084292,0.011995509990175771,0.0
23.086672,0.008949884628855986,0.0
23.089072,0.0028312233344808227,0.0
23.09146,6.51372268814603e-05,0.0
23.09384,6.51372268814603e-05,0.0
23.096236,6.51372268814603e-05,0.0
23.098624,0.0020398274015627125,0.0
23.101004,0.0020398274015627125,0.0
23.1034,0.0020398274015627125,0.0
23.105788,0.0020398274015627125,0.0
23.108168,0.0020398274015627125,0.0
23.110564,0.0020398274015627125,0.0
23.112952,0.0020398274015627125,0.0
23.115348,0.0020398274015627125,0.0
23.117744,0.0020398274015627125,0.0
23.120128,0.0020398274015627125,0.0
23.122508,0.0020398274015627125,0.0
23.124912,0.0020398274015627125,0.0
23.1273,0.0020398274015627125,0.0
23.12968,0.0020398274015627125,0.0
23.132084,0.001974690174681252,0.0
23.134472,0.0019746901746812524,0.0
23.136852,0.0019746901746812524,0.0
23.139248,0.0019746901746812524,0.0
23.141636,0.0019746901746812524,0.0
23.144016,0.0019746901746812524,0.0
23.146412,0.0,0.0
23.1488,0.0,0.0
23.15118,0.0,0.0
23.153576,0.0,0.0
23.155964,0.0,0.0
23.158344,0.0,0.0
23.160744,0.0,0.0
23.163132,0.0010435246149029316,0.0
23.165516,0.0051600851628612445,0.0
23.16792,0.007134775337542497,0.0
23.170308,0.009109465512223748,0.0
23.172688,0.01229486050040374,0.0
23.175084,0.016131881794641634,0.0
23.177472,0.020900068648657847,0.0
23.179856,0.026739190689312593,0.0
23.182252,0.034300874222663764,0.0
23.18464,0.04507536331593054,0.0
23.18702,0.05156611166264318,0.0
23.189416,0.05526336333002086,0.0
23.191804,0.05802944943762022,0.0
23.194184,0.0617267011049979,0.0
23.19658,0.06249068646618041,0.0
23.198964,0.06325467182736293,0.0
23.20136,0.06325467182736293,0.0
23.203756,0.06325467182736293,0.0
23.206144,0.06325467182736293,0.0
23.208524,0.06325467182736293,0.0
23.210924,0.06221114721245999,0.0
23.213308,0.05809458666450167,0.0
23.215688,0.05611989648982042,0.0
23.218088,0.054145206315139166,0.0
23.220472,0.050959811326959176,0.0
23.222868,0.04712279003272128,0.0
23.225264,0.042354603178705076,0.0
23.227652,0.03651548113805033,0.0
23.230032,0.028953797604699162,0.0
23.232428,0.018179308511432395,0.0
23.234816,0.011688560164719749,0.0
23.237196,0.01117670348552206,0.0
23.239592,0.012387408299020798,0.0
23.24198,0.01280671717960143,0.0
23.244364,0.01695068829929534,0.0
23.24676,0.016950688299295344,0.0
23.249148,0.018645839220256172,0.0
23.251532,0.021132386074135114,0.0
23.253936,0.022408228114515316,0.0
23.256324,0.022613134968256992,0.0
23.258704,0.02561153850133362,0.0
23.2611,0.03075181240768731,0.0
23.263488,0.03388998556762416,0.0
23.265872,0.037819554660479114,0.0
23.268268,0.04254051968625217,0.0
23.270656,0.04749380213750251,0.0
23.273036,0.05491382018612423,0.0
23.275436,0.06317056013803797,0.0
23.277824,0.074545661993381,0.0
23.280204,0.08838749944609542,0.0
23.2826,0.10511538137676185,0.0
23.284988,0.11805156798356431,0.0
23.287368,0.1323835550010996,0.0
23.289764,0.1502059909744017,0.0
23.292152,0.16863283142551858,0.0
23.294536,0.19581224896697774,0.0
23.296932,0.22508631505347085,0.0
23.299316,0.2583173608045545,0.0
23.301712,0.2998816747653999,0.008813117553272937
23.304108,0.349779256936007,0.0170227257979882
23.306496,0.3985586820917324,0.025360085718612875
23.308876,0.44752320284469194,0.03381976799541794
23.311276,0.5016081862474977,0.04234201785659219
23.313664,0.5588115315537328,0.050873794815427927
23.316044,0.619133238763397,0.059413953511703636
23.31844,0.68625264414523,0.06744008280738373
23.320828,0.7519762491163301,0.07535586498568819
23.323208,0.8155598795720223,0.08325794288692837
23.325608,0.8758853784974252,0.09119925582524006
23.327996,0.9350473944375722,0.09915359886082184
23.330376,0.9889019562727699,0.10741438609849621
23.332772,1.0425714225107336,0.11571236817250798
23.33516,1.0964751020320436,0.12369930043146674
23.337544,1.142884131104753,0.132032134920884
23.33994,1.1885489860727874,0.14036816504835514
23.342328,1.2330503580555665,0.14847823944275304
23.344712,1.2769001037322878,0.15648901041264837
23.347108,1.3137198338113631,0.16476085867882212
23.349496,1.3434170004941752,0.16421958939172296
23.351876,1.3654325252732837,0.16440100317759299
23.354272,1.3900092293062498,0.1642024510536776
23.35666,1.41533200330176,0.16360800261220215
23.35906,1.4416803865135353,0.16260652133648376
23.361456,1.4654694863293216,0.16144184562435132
23.36384,1.484277893122122,0.1603566273739086
23.366224,1.4927037091305007,0.1600976073650531
23.36862,1.5000585899522412,0.1599489344735732
23.371008,1.509368349692155,0.15982122572844243
23.373388,1.5178867134991507,0.1597166891745343
23.375784,1.5260329902538095,0.15953671529506194
23.378172,1.5419081307404148,0.15876753650744002
23.380552,1.5629509557051093,0.15776076273174125
23.382952,1.5819444580951438,0.1571347144630943
23.38534,1.6057335579109304,0.15611260806787058
23.38772,1.6305935929133553,0.15501892193361008
23.390116,1.6507978001168888,0.15425861602256372
23.392504,1.669419215454586,0.1535775484409864
23.394888,1.689251335605782,0.15271470858783043
23.397284,1.7060104198239225,0.1520700926873022
23.399672,1.7233285825495042,0.15127527798552143
23.402068,1.7333371904237191,0.15096497434848746
23.404464,1.7395739142305777,0.151091842145872
23.406852,1.7384538613578269,0.15185551970388309
23.409236,1.7357037947909963,0.1528426358371398
23.41164,1.7337451241570843,0.15381216033516953
23.414024,1.7377927557624226,0.15430453410996608
23.416408,1.7432834096067367,0.1547698516963814
23.418804,1.7491933723316315,0.15513266348606364
23.421192,1.7568258965492232,0.1554046331840333
23.423576,1.7635272552070362,0.15573901011029714
23.425972,1.7630588286403428,0.15647982853348463
23.42836,1.7582141135284788,0.15742104710841154
23.430744,1.7544875554314963,0.15809974271074553
23.43314,1.7541135725212893,0.1584761393071234
23.435528,1.7512256321854685,0.1589444643737655
23.437908,1.7486172311033674,0.15936030604288776
23.440312,1.7447981252077678,0.1598897431135346
23.442704,1.747636947857477,0.1600194084860271
23.445084,1.753409036813381,0.1599599066701448
23.44748,1.7576908817020658,0.1600713513348131
23.449868,1.7609017914041118,0.16026459099135962
23.452248,1.7668136499868763,0.16014896520674402
23.454644,1.778592041182031,0.1596084003742
23.457032,1.7897188060711278,0.15905141824617397
23.459412,1.801404649467665,0.15836437718016733
23.461812,1.8076432691323931,0.158006613457454
23.4642,1.8141614280508411,0.15759551737288593
23.46658,1.820400047715569,0.1572555716790283
23.46898,1.8278493721937956,0.1568091869457988
23.471364,1.8363696318586606,0.1562830940389307
23.473748,1.8476833882028607,0.15558370493176782
23.476144,1.858997144547061,0.15488431582460493
23.478532,1.8653283120104063,0.1546778739456926
23.480912,1.866025264286838,0.15496958859810597
23.483308,1.8713780443621615,0.1549926451931556
23.485696,1.882597357049875,0.1546603329909117
23.48808,1.8943757482450296,0.15420739320748333
23.490476,1.8985650453350973,0.15419635870924858
23.492864,1.9050359824253025,0.15400780615944432
23.495248,1.9142078683962256,0.1535543585335738
23.497644,1.9307365310467577,0.15258198436811082
23.500032,1.9435405314581773,0.15181205670743425
23.502412,1.952899408884203,0.15119096479180846
23.504812,1.9638410781760662,0.15052619843855072
23.5072,1.9752946041471264,0.14990503008001346
23.50958,1.9924748931037166,0.14897244796657
23.511984,2.0057907501943335,0.14825140182055593
23.514372,2.018035672098312,0.14760563590658443
23.516756,2.0259968532557364,0.1472591531846284
23.519152,2.03353872553258,0.14700087774450196
23.52154,2.0418719937423413,0.1467312346063391
23.52392,2.050065492325243,0.14648741137180543
23.52632,2.063613666841337,0.14585864211559021
23.528708,2.079443481357569,0.14504284255743172
23.531088,2.0872648928881326,0.14472063127905987
23.533484,2.0872176710598893,0.14486433791155523
23.535872,2.089312319604924,0.144861720216897
23.538256,2.0914069681499576,0.14485654457126945
23.540652,2.0920113726277725,0.1450071586714758
23.54304,2.094710425650621,0.14515402344849473
23.54542,2.094196673113554,0.14550572294235714
23.54782,2.095917338748381,0.1458338987831255
23.550208,2.0989412569953236,0.14617916513956686
23.552588,2.1013135489362087,0.1465147519926291
23.554988,2.105827711250371,0.14671213703781555
23.557376,2.107408607258338,0.14705664037685642
23.55976,2.1083378769602468,0.1473986274146015
23.562156,2.111548786662293,0.14757777538994576
23.564544,2.119043437110894,0.14748489636594633
23.566928,2.1249552956936584,0.1474244270185441
23.569328,2.1282134272239475,0.14746654919315785
23.571716,2.1324027243140153,0.14746607745165038
23.574096,2.134589920657667,0.14757534955863744
23.576492,2.1355664121878193,0.14777593697724914
23.57888,2.143480371517,0.14760426490217096
23.581264,2.1531168923388773,0.147356861874993
23.58366,2.1571191979738416,0.14751273806906026
23.586048,2.166708496967477,0.14740156116754363
23.588432,2.175506400028193,0.1473077947202055
23.590828,2.177134517864403,0.1475177677274835
23.593216,2.1786228660737526,0.14775363322129587
23.5956,2.180670292790543,0.1478850670400513
23.597996,2.183276798014775,0.14791378032996694
23.600388,2.1888165695452018,0.14779091617965986
23.602772,2.1923542403292116,0.14778173091674945
23.605176,2.1957521414863614,0.14779671382637619
23.60756,2.2056682015619598,0.1475256562054845
23.609944,2.215304722383837,0.14731406836490976
23.612348,2.223870308019076,0.14717325670480652
23.614732,2.2353691599605106,0.1468973919464358
23.617112,2.249941047835,0.14646718402675057
23.619512,2.265723640522988,0.14596601638167164
23.621896,2.2847190387708918,0.1453032095189729
23.62428,2.3041337458993763,0.1445699134755399
23.626672,2.3187528556021095,0.14404342582239824
23.62906,2.3376557060513963,0.14329347122598585
23.63144,2.362704628366793,0.1422255287174789
23.633836,2.38351703176388,0.1412949897689626
23.636224,2.4064713055342435,0.1402634000611554
23.638608,2.437014673409694,0.1389295709408038
23.641004,2.471562242777978,0.1374495693288934
23.643392,2.504899107332764,0.13605850371625938
23.645772,2.540098303007106,0.13464595931290085
23.648168,2.5714330668154743,0.13340891391665474
23.650556,2.5999743339445076,0.13226139164158318
23.652936,2.6305177018199584,0.13104091437263649
23.655344,2.6554740763367386,0.13002663333964867
23.657728,2.6768455582412662,0.12911462388020323
23.660112,2.6954235434664593,0.12829089577847635
23.662508,2.7092059312658994,0.12764113068575245
23.664896,2.7196357438785643,0.1271702577479297
23.667276,2.726061354998395,0.1268634303945878
23.669672,2.729413930185171,0.12669334448439631
23.67206,2.729553699812031,0.12667288643278418
23.674444,2.734908375745224,0.12642047768244688
23.67684,2.736119080558723,0.12635060713286614
23.679228,2.734536288692887,0.1263688668759818
23.681612,2.736258850185583,0.12633153002662756
23.684008,2.735979310931863,0.12637050502386835
23.686396,2.7318353398121693,0.1265367029345814
23.688776,2.7227560016398638,0.12687128657449664
23.691172,2.7158185338408347,0.12711160850174752
23.69356,2.7060875693624706,0.12742345408418254
23.695944,2.6982189360036632,0.12768392744471063
23.69834,2.6911416985777743,0.12794240857974995
23.700728,2.682481669286049,0.1282110287605517
23.703108,2.679688172606714,0.12828666315353646
23.705508,2.680759107793352,0.1282431859936567
23.707892,2.686625640405743,0.12805722519156967
23.710292,2.695145900070608,0.1278092519320164
23.712688,2.7076703612283066,0.12742467822808118
23.715076,2.7229883190653403,0.12695820611944147
23.717456,2.7380267376486542,0.12652643458734222
23.719856,2.7572091273516612,0.12592531034816323
23.722244,2.7711766107483355,0.1255366255701959
23.724628,2.7882171300780656,0.1250355980298557
23.727024,2.805257649407796,0.12453457048951551
23.729412,2.8187132761252736,0.12412276902969452
23.731792,2.8312377372829722,0.12373411950483668
23.734192,2.843762198440671,0.12334546997997885
23.73658,2.85642642922523,0.12293216359199324
23.738964,2.866157393703594,0.12261871124505049
23.741356,2.8756088189282374,0.1223423744143002
23.743744,2.8838495393393817,0.12212913498745072
23.746128,2.893021425310305,0.12188697633977696
23.748528,2.901774002400647,0.12170137564474746
23.750916,2.9074535435579345,0.12163553272770154
23.7533,2.9120621495285834,0.12161458614846798
23.755696,2.9157395899394536,0.12161997524686387
23.75808,2.9206277351638215,0.12156726087829463
23.76046,2.9217912181490777,0.12160795284892142
23.76286,2.925236341134471,0.12155239231785922
23.765244,2.928961003373584,0.12146213121025655
23.767624,2.9393435941580055,0.12121253639736446
23.770016,2.9506573505022056,0.1209353026272009
23.772404,2.95889807091335,0.12075794617031771
23.774784,2.9659280865109956,0.12063376877046879
23.7772,2.974820433228198,0.12046591493206843
23.779584,2.9885083773711525,0.12017832546805257
23.781964,3.0051295878203024,0.11981746090930853
23.784368,3.0246840645756476,0.11938069377216899
23.786756,3.0490341387567437,0.11883372627129611
23.789136,3.0725928170049217,0.11828651660116356
23.791532,3.094568703387264,0.1177393095606811
23.79392,3.118686460142883,0.11712375641847332
23.7963,3.1449460872717796,0.1164410122906084
23.798704,3.171205714400676,0.11576574933743963
23.801088,3.1985362767162107,0.11506693807718678
23.803468,3.2227938030986905,0.11446373542868875
23.805872,3.249705056533645,0.1138355067196353
23.80826,3.277547475528377,0.11318431470762953
23.81064,3.3023168585900544,0.11263496175542226
23.813044,3.327086241651732,0.11208560880321498
23.815432,3.342404199488765,0.11175391263792078
23.817812,3.3617263588186326,0.11132446523274558
23.820216,3.382910849268056,0.11085693595316698
23.8226,3.4075876845311166,0.11026445337578727
23.82498,3.433475224607675,0.10963622185447627
23.827376,3.4544273976316227,0.10913268886544147
23.829764,3.467510937296762,0.10880610421643604
23.832144,3.475519340282429,0.10860844608904315
23.834548,3.4759386491630098,0.10856434397176273
23.836932,3.479011685096065,0.10848328180120825
23.839312,3.4899533543879278,0.10822678043309122
23.841712,3.502897124426207,0.1079327170257624
23.844096,3.515701124837626,0.10765871532598358
23.84648,3.5257116285697103,0.10743089274104249
23.848876,3.531717930808961,0.10729427014597376
23.851264,3.53879516823485,0.1071267470756566
23.853644,3.5392144771154306,0.1070846970856042
23.856048,3.538702620436233,0.107058454100575
23.858436,3.533255396704423,0.10714293158599002
23.860816,3.5299500433458904,0.10716513579667948
23.86322,3.5263651507336378,0.10721695967372884
23.865604,3.5219888621884667,0.10726861976136493
23.867984,3.5171007169640975,0.10729341353688636
23.870388,3.5117932628591486,0.10735804683278254
23.872776,3.504343938380922,0.10747924489793569
23.875156,3.498245088343054,0.1075441923152396
23.877552,3.4978730012907167,0.10750389739211215
23.87994,3.5065802524106857,0.10725640498395864
23.88232,3.5210142665161848,0.10690013240451185
23.884716,3.5326547839423474,0.10659067909115563
23.887104,3.536147128755984,0.1064767690891622
23.889484,3.535775041703646,0.1064373626737794
23.891888,3.5327492275988335,0.10642824847032763
23.894276,3.534379241292913,0.10634661774191251
23.896656,3.5408048524127445,0.10617947227146121
23.899052,3.5484411683460744,0.10597259039825013
23.90144,3.559382837637937,0.105743944920468
23.90382,3.575120104355552,0.10543322079864546
23.906216,3.5990055436856943,0.10493582737030081
23.908604,3.623402839695034,0.10447601967286985
23.910984,3.653526898689904,0.10392062380070119
23.913388,3.677644655445523,0.10348738213841764
23.915772,3.7018549599997597,0.1031193858514327
23.918156,3.728067365300412,0.10272261708123397
23.920552,3.75134650429487,0.1023742019006523
23.92294,3.7749977303416653,0.10206595704555915
23.92532,3.8029326971350152,0.1016637094633148
23.927724,3.822067865009779,0.10142737027523072
23.930112,3.8387816232575456,0.10126869818610319
23.932492,3.859639352625006,0.10102325211111851
23.934896,3.8818475564328256,0.10072188012157515
23.937284,3.8989806235611724,0.10051814800735044
23.93966,3.9152750729283583,0.10038732511961412
23.94206,3.9281243993101516,0.10028786332278643
23.944444,3.934455566773497,0.10028259634991642
23.946824,3.9390169509159016,0.10036788638650014
23.949228,3.9471179017001865,0.10027494165320558
23.951616,3.947769528006244,0.10028720011711684
23.953996,3.9486534717377793,0.10034887104283807
23.956396,3.949305098043837,0.10036109736510729
23.958784,3.9446492702449456,0.10042122328191672
23.961164,3.9463718317376424,0.10040905487328267
23.96356,3.9514941902453575,0.10024126249619364
23.965948,3.9480962890882085,0.10019212973693507
23.968328,3.9504251509165886,0.10005954817703569
23.970728,3.95331309125241,0.09987970972954635
23.973116,3.949403333416063,0.09980628725843511
23.975496,3.949869864124887,0.0996986990720996
23.977892,3.953968509274207,0.09948650561123727
23.98028,3.9523403914379966,0.0993549587412351
23.98266,3.953505770281121,0.09918988377712758
23.985056,3.9664042143490263,0.09884461157761273
23.987448,3.980560585058674,0.0983904721603074
23.989844,3.9940181076340195,0.09799215509908255
23.99224,4.015344263568173,0.0974683217025126
23.994628,4.037648806890349,0.09686056813795461
23.997008,4.058695423570781,0.0963753402208251
23.999404,4.086260199169663,0.09581286131593526
24.001792,4.110799160663732,0.09524489551085341
24.004176,4.129843676597748,0.09479970273581732
24.006576,4.1534042507037965,0.09431650310931097
24.008964,4.175941111451449,0.09379422875327144
24.011344,4.194566318504884,0.09340148589659576
24.013748,4.220920389290267,0.09290416302091868
24.016136,4.247833538583091,0.09237613151149364
24.018516,4.271673651942859,0.09189945521786817
24.020912,4.294442830115988,0.09143664094134295
24.0233,4.31697969086364,0.09093336766639101
24.02568,4.336443515678237,0.09048835252335373
24.02808,4.3596320027319475,0.09000374120484478
24.030468,4.3792355971734045,0.08954814914688994
24.032848,4.389387766390218,0.08920244780633405
24.035244,4.4020538930326465,0.08885470517572577
