Time,Force,Position
22.51922,0.16478764361557172,0.0
22.521604,0.15319081298131668,0.0
22.524,0.13931234234692436,0.0
22.526391999999998,0.12450270615275374,0.0
22.528772,0.10783073883902647,0.0
22.531172,0.08887713152516193,0.0
22.533559999999994,0.06992352421129738,0.0
22.535944,0.05218062171093156,0.0
22.538343999999995,0.037510755143621136,0.0
22.540732,0.03206353141181143,0.0
22.543116,0.025126063612782554,0.0
22.545516,0.01967883988097284,0.0
22.547904,0.01688534320163788,0.0
22.550287999999995,0.017444421709078724,0.0
22.552684,0.021728162455632846,0.0
22.555076,0.030667731001078568,0.0
22.55746,0.04026246088891675,0.0
22.559856,0.048506716336396,0.0
22.562244,0.05288300488156717,0.0
22.564623999999995,0.0544657967474034,0.0
22.56702,0.05777468514227061,0.0
22.569412,0.05880193353700055,0.0
22.571796,0.05880193353700054,0.0
22.574192,0.05880193353700054,0.0
22.57658,0.05880193353700055,0.0
22.578964,0.05880193353700055,0.0
22.581364,0.060620577864648605,0.0
22.583752,0.0644413229387135,0.0
22.586132,0.06747067207986031,0.0
22.588528,0.07021694693095211,0.0
22.590916,0.0753846314090414,0.0
22.593295999999995,0.07733951032721509,0.0
22.595692,0.07757182775269238,0.0
22.59808,0.07445156999139382,0.0
22.60046,0.07254201704359402,0.0
22.602856,0.06611640592376286,0.0
22.605244,0.06276383073698706,0.0
22.607628,0.06197243480406895,0.0
22.610024,0.06611640592376286,0.0
22.612412,0.07505597446920859,0.0
22.614796,0.08306437745487598,0.0
22.617192,0.0947048948810396,0.0
22.61958,0.10630172551529465,0.0
22.621959999999994,0.12004042652282676,0.0
22.624356,0.13349958827663844,0.0
22.626743999999995,0.1460275844706718,0.0
22.629124,0.15580577077727878,0.0
22.631524,0.16143998596419187,0.0
22.633911999999995,0.16572372671074598,0.0
22.636292,0.1685644452183241,0.0
22.638687999999995,0.16698165335248788,0.0
22.641076,0.16940306297948535,0.0
22.64346,0.17368680372603945,0.0
22.645855999999995,0.18011241484587062,0.0
22.648244,0.18174242853994999,0.0
22.650628,0.18323267260716916,0.0
22.653023999999995,0.18178965036819317,0.0
22.655412,0.18020685850235696,0.0
22.657796,0.1769015051438243,0.0
22.660191999999995,0.16665868398626277,0.0
22.66258,0.15948889876175665,0.0
22.66496,0.15297073984330842,0.0
22.667359999999995,0.14966538648477576,0.0
22.669743999999994,0.14207629237968894,0.0
22.672128,0.13704837752845989,0.0
22.674524,0.13216023230409102,0.0
22.676911999999994,0.129274187826139,0.0
22.679296,0.12853001372146405,0.0
22.681692,0.12992770999006614,0.0
22.684079999999994,0.13141795405728532,0.0
22.686464,0.1399382137221504,0.0
22.68886,0.1475726337976111,0.0
22.691247999999995,0.15832541577650106,0.0
22.693632,0.17298795559173843,0.0
22.696028,0.1978460947362942,0.0
22.698415999999995,0.2250311998513611,0.0
22.7008,0.2530530268697201,0.0
22.703196,0.2807008709778723,0.0
22.705583999999995,0.3131896384821502,0.0
22.707964,0.3562933141963272,0.006693957295723146
22.710359999999994,0.3975799847613214,0.01385203848399226
22.712751999999995,0.437841046110051,0.021482474588395015
22.715132,0.47893882936207255,0.02929395030971553
22.717532,0.5285096504507161,0.03678377978730425
22.719919999999995,0.5779860278828733,0.04446954126029051
22.7223,0.632722637591737,0.05203861001462665
22.724695999999994,0.6895066740173913,0.05970474857852369
22.727087999999995,0.748058597906116,0.06765783557956245
22.729468,0.8103805100043279,0.07569015388659424
22.731863999999995,0.8750766099012941,0.08370666700305583
22.734252,0.9388887660667251,0.09148170198646
22.736636,1.0020039699557244,0.09914801029250513
22.739031999999995,1.0601384808217378,0.10687869649953559
22.74142,1.1130127594110446,0.11468285977159139
22.7438,1.1571344609100094,0.12266715433949416
22.746196,1.199720592371381,0.13068939925503392
22.748584,1.2418893108100408,0.13856069158579337
22.750968,1.2839201554797102,0.1462832655007988
22.753364,1.3248347389923667,0.1537209983185212
22.755752,1.3585795372805174,0.15460418442536464
22.758136,1.392930635904352,0.15496280198510023
22.760532,1.4253740774382562,0.15490950928326408
22.76292,1.4537679915089525,0.15477276044837518
22.765304,1.4721986236758078,0.1553815057843049
22.7677,1.48895391617821,0.15583736308623736
22.770088,1.498818962709826,0.15671559681681604
22.772468,1.5067763521515116,0.15734139960718085
22.774868,1.5124539974509295,0.1576375504152917
22.777252,1.513570258607942,0.1578903224986845
22.779636,1.511660705660142,0.15823867526648291
22.782032,1.506678116779287,0.15886862708542615
22.784423999999994,1.5000655142043526,0.15976840252940402
22.786808,1.4945238468160567,0.16056267303569285
22.789207999999995,1.4883305531217024,0.16136528728576222
22.791596,1.4853500649872642,0.16182625709970158
22.793976,1.4863737783456596,0.16191247768959374
22.796375999999995,1.4845567731964766,0.16241150752632838
22.798764,1.4811097543532148,0.1631763097707864
22.801144,1.4717962028975622,0.16442902583722444
22.803543999999995,1.4647642914420471,0.16541987385559107
22.805932,1.4574528407328113,0.16647209463561236
22.808312,1.4533541955834917,0.16719350467799876
22.810708,1.4527478952478077,0.16752627183206617
22.8131,1.4572639534198388,0.16722500209741226
22.81548,1.4603369893528944,0.16694536375682406
22.817876,1.4689044708460028,0.16610167175875185
22.820263999999995,1.475330081965834,0.1654740240503614
22.822644,1.483990111257559,0.16480295837254413
22.825044,1.4943727020419808,0.16403759517557437
22.827431999999995,1.5059659976399016,0.16313531564807734
22.829816,1.5182109195438798,0.16223506275439148
22.832212,1.5343202733138315,0.16104087104147938
22.834599999999995,1.548147987083646,0.1600622850911754
22.836984,1.5659799023462948,0.1587745044633889
22.83938,1.5826011127954442,0.15765822598233356
22.841767999999995,1.593076251378483,0.15708103162130096
22.844148,1.607835130708076,0.15610185904463145
22.846548,1.6215230748510303,0.15517794144595684
22.848932,1.6349314797402643,0.15426550820990392
22.851316,1.6447549920172453,0.15359824895671143
22.85372,1.6548580435479465,0.15286801143954346
22.856108,1.6603978150783734,0.1526391026866556
22.858492,1.6623054721683037,0.15283976824643355
22.860888,1.6615121803775161,0.1533934446601517
22.86328,1.6644435508258422,0.15367629663977644
22.86566,1.6640223460873924,0.1542883528478438
22.86806,1.6670462643343356,0.154712617818024
22.870452,1.6674164555288038,0.15528764707958356
22.872836,1.6696489778428287,0.15573145370136596
22.875232,1.6697396297835765,0.1563619700563481
22.877624,1.6711807561646834,0.15682616878250666
22.880004,1.6730411914263705,0.15718354856708333
22.8824,1.6801165329943903,0.15714287601331858
22.884788,1.6810458026962996,0.1575531509406675
22.887172,1.6822546116519288,0.15789792069419664
22.889568,1.687607391727252,0.15793277077555137
22.891956,1.6944031940415514,0.15796293860541874
22.894336,1.7058548241547422,0.1577329693533379
22.896732,1.7215901950144874,0.1571682826303235
22.89912,1.7387685881132084,0.15656335651948142
22.901504,1.7568781467717078,0.15592988997567123
22.903904,1.7799230724828197,0.1549617931634612
22.906288,1.802688458940211,0.15400427217724827
22.908672,1.8314601476368526,0.15266655465420237
22.911072,1.8554362389077423,0.15164281911252356
22.913456,1.8796918694323526,0.15054824928989002
22.91584,1.9002228377178496,0.14967559290527802
22.918236,1.9254096338022382,0.14857083095559775
22.920624,1.947942702834152,0.14763063001538018
22.923004,1.9756906781723986,0.1463577330322618
22.9254,2.0015763223910885,0.14520900612606852
22.927788,2.021315894743667,0.14446327256158953
22.930167999999995,2.037283583028889,0.14406595243540382
22.932568,2.056044767993447,0.14349545016764606
22.934956,2.0689394203456137,0.143250060691818
22.937335999999995,2.0801115112050845,0.14308549403565515
22.939736,2.087698709452302,0.14309254279345116
22.942124,2.091701015087266,0.14326081710382568
22.944503999999995,2.0898367881098405,0.14377277834727312
22.9469,2.091744445199771,0.14394379886995043
22.949288,2.0899274400505883,0.14430088681887987
22.951668,2.0883899741551257,0.14459276656856404
22.954063999999995,2.094349054566133,0.14440037588800678
22.956452,2.0925792712451936,0.1445951893796984
22.958836,2.094813689417088,0.144572942085904
22.961231999999995,2.09769973389504,0.14456022329669238
22.963615999999995,2.1024481094925487,0.1444621128634392
22.966,2.1030525139703635,0.14460673002317703
22.968396,2.1032376095675973,0.14482695653481567
22.970783999999995,2.099418503671998,0.14525031019284715
22.973168,2.0954596281495386,0.14569901388153927
22.975564,2.100021012291944,0.14576726607502666
22.977951999999995,2.106352179755288,0.14564895619132176
22.980332,2.1149649872187704,0.14538326451775987
22.982732,2.1303754928544216,0.1447768679065415
22.985119999999995,2.147368790355909,0.14415059638422467
22.9875,2.164222318230536,0.14354208364504004
22.9899,2.1861509827846346,0.14268323794712987
22.992287999999995,2.214597806257182,0.14152758322739967
22.994679999999995,2.2426253208491485,0.1405194855168853
22.99708,2.274889354359426,0.13938915063946955
22.999468,2.303940582309788,0.13846754819190385
23.001847999999995,2.325774803207401,0.1379507002233067
23.004244,2.352404621530765,0.137225346195352
23.006632,2.374890468734436,0.1367084488339263
23.009015999999995,2.3987267903784653,0.13610269885849668
23.011412,2.4231221905299356,0.135419218437036
23.0138,2.4502185395621248,0.1345467171077158
23.01618,2.478665363034672,0.13357777264394133
23.018576,2.506972416880359,0.13262787022551314
23.020964,2.5382127370322407,0.13157409168156675
23.023343999999994,2.559070466399702,0.13090897641600094
23.025744,2.5788572605805236,0.13030558340177117
23.028127999999995,2.5966419540149293,0.12979918070653346
23.030511999999995,2.6114933811431396,0.12941152251598967
23.032908,2.6215492108455978,0.12919789367621493
23.035295999999995,2.6318845798017763,0.1289396944444114
23.037679999999995,2.638355516891981,0.12883817648814874
23.04008,2.646316698049405,0.12863577214725255
23.042468,2.6470608721540794,0.12873869748569058
23.044852,2.6457103977137204,0.12882791829501114
23.047248,2.644639462527082,0.1288772824609196
23.049636,2.646781332900359,0.128778923244461
23.052015999999995,2.64706087215408,0.1287392405596384
23.054416,2.6534864832739116,0.1284509453108122
23.056804,2.6579099936473263,0.12824197417140704
23.059183999999995,2.664056065513437,0.12800421419674501
23.061584,2.665918396632993,0.12795078397991919
23.063972,2.6669893318196314,0.12790556186478844
23.066351999999995,2.6691312021929083,0.1278154325231938
23.068748,2.666477475140433,0.12787491657270514
23.07114,2.6687591151405705,0.12776285631045875
23.073519999999995,2.673974021446903,0.12755419045781557
23.07592,2.6790491581263756,0.12736406667474912
23.078308,2.6891994314853203,0.12699109922563373
23.080687999999995,2.706426942270154,0.12636296093599336
23.083084,2.7265877193611816,0.12565187468249617
23.085472,2.7474001227582683,0.12495646704422513
23.087855999999995,2.7620664542892435,0.12449549633610028
23.090252,2.783158396940051,0.12376306237888157
23.09264,2.804762196270056,0.12306665739631292
23.095023999999995,2.82729716115984,0.12234930375373847
23.09742,2.845827924556789,0.12176905859896399
23.099808,2.8642189183268782,0.12120564798899568
23.102191999999995,2.8735305739246613,0.12095565271820785
23.104588,2.8808401287760272,0.1207709463157523
23.106976,2.8804208198954466,0.12082679738845421
23.109356,2.8827950076942006,0.120804839164285
23.111756,2.8832596425451555,0.12094057315312587
23.114144,2.8829328814631916,0.12108328952106583
23.116527999999995,2.881814724448309,0.12123673146188711
23.118924,2.8854921648591803,0.12123709908175256
23.121312,2.8853051734040767,0.12136010479483406
23.123695999999995,2.8852579515758334,0.12146456843833883
23.126092,2.881346297881617,0.12168558599716088
23.12848,2.8704971763883713,0.12213332336709558
23.130863999999995,2.855643853402292,0.12271081227679818
23.13326,2.8418614656028516,0.12323796330274532
23.135648,2.8311521137364664,0.12365910241644075
23.138031999999995,2.8183008914968037,0.12415728167964446
23.140428,2.8055894388840015,0.12463351235989957
23.142816,2.7920865903382808,0.12511203814102445
23.1452,2.780865381792698,0.12549440937998207
23.147596,2.7689925469410577,0.1258671817162649
23.149984,2.766199050261722,0.12593874511071734
23.152368,2.7672699854483613,0.12589700256417943
23.154764,2.7748590795534476,0.12568249560028213
23.157156,2.783798648098894,0.12539494664108006
23.159536,2.796510100711696,0.12490944998296893
23.161936,2.8098731796305563,0.1244381236645512
23.164324,2.828031855975168,0.12382611709188857
23.166704,2.8384616685878328,0.12344763059760903
23.169104,2.850893581946915,0.12300479121005439
23.171492,2.8653275960524134,0.12250335709924084
23.173872,2.8784111357175526,0.12207459947513206
23.176272,2.896430042435304,0.12148871610971843
23.17866,2.917801524339832,0.12076713885983105
23.181044,2.937310675124803,0.12010047512106294
23.183443999999994,2.957471452215832,0.11945640779175586
23.185832,2.976421524493362,0.1188638118276327
23.188216,2.9956511360246125,0.11824612896624188
23.190611999999994,3.0178140138620586,0.11755899103228667
23.193003999999995,3.04141991393848,0.11688776049549741
23.195388,3.0664688362538777,0.11622164963786213
23.197796,3.08858449226308,0.11565951961262087
23.20018,3.109768982712504,0.11512763953930079
23.20256,3.1301620772290097,0.11460750383833641
23.204964,3.150135862864935,0.11414782521737957
23.207352,3.1681075477544427,0.11375140234774209
23.209731999999995,3.183285735964616,0.11340917066354575
23.212136,3.200326255294347,0.11304253209381865
23.21452,3.222441911303549,0.11253373844728567
23.216904,3.2445575673127514,0.1120329828000787
23.2193,3.265742057762176,0.11156091162067909
23.221688,3.290139353771515,0.11098995571296699
23.224072,3.313465714594216,0.11046207783409148
23.226468,3.3323685650435038,0.1100815402664454
23.228856,3.3532735162392067,0.10965635910766384
23.231236,3.3715247403824358,0.10926956629596667
23.233636,3.3929887700855796,0.10878725730737489
23.236024,3.4141732605350046,0.10834157815838497
23.238404,3.4320051757976526,0.10801130780831299
23.2408,3.449045695127383,0.10768747245201457
23.243188,3.4655743577779154,0.1073377032855309
23.245568,3.4828944163613653,0.10699204470311924
23.247964,3.5002144749448165,0.1066498326527913
23.250352,3.5176743031551276,0.10629777462136321
23.252731999999995,3.532480404312964,0.10597963421111352
23.255128,3.5499402325232747,0.10563435893041122
23.257515999999995,3.572335427786198,0.10518613809091697
23.259896,3.591797356742926,0.10480798905998163
23.262291999999995,3.610048580886154,0.1044784760194448
23.26468,3.628020265775663,0.10417892452587592
23.26706,3.6466435769712295,0.1038961283083506
23.269459999999995,3.6631250177935186,0.10367071508549199
23.271843999999994,3.67867529305603,0.1034604577737401
23.274228,3.7003716401846516,0.10311686707415187
23.276632,3.7209970521266347,0.10280574871004364
23.27902,3.744415960747953,0.10245538764471285
23.2814,3.7646220638093553,0.10218523106349499
23.283795999999995,3.78389700131098,0.10192991600785914
23.286184,3.8015891469467675,0.10167179315074676
23.288564,3.8163480262763607,0.1014658846285081
23.29096,3.832038071165732,0.10124861362813731
23.293347999999995,3.846796950495325,0.10104800748918835
23.295728,3.860624664265139,0.10086172193889262
23.298123999999994,3.8731019035945944,0.10072739925015028
23.300512,3.8865103084838286,0.1005789794976582
23.302892,3.897125216693727,0.10047242659924871
23.305291999999994,3.9049466282242915,0.10040705742746164
23.30768,3.9127680397548557,0.10034252017087074
23.310075999999995,3.9185873505390028,0.10031570989920434
23.312472,3.922684099830453,0.10030177640668568
23.31486,3.921054086136374,0.1003777537934419
23.31724,3.919563842069155,0.10044120998627512
23.319636,3.9200756987483527,0.10046589070822186
23.322024,3.915652188374939,0.10057844685171291
23.324408,3.909366346881968,0.10071629268259834
23.326804,3.9012181742694403,0.10087814029726197
23.329192,3.897353742403467,0.10093999473501798
23.331571999999998,3.8933495409106333,0.10101426802432732
23.333968,3.893209771283773,0.10102653365971452
23.336355999999995,3.8961430375899684,0.10097686764745491
23.338736,3.8998676998290813,0.1009278796468292
23.341136,3.9005193261351394,0.10093999106076375
23.34352,3.9042439883742523,0.10089146194178042
23.345904,3.9114609954270017,0.10074781160857843
23.348299999999995,3.919609168039529,0.10059281765629698
23.350688,3.9278971102789164,0.1004261359109547
23.353068,3.936045282891444,0.10027173727466593
23.355467999999995,3.944333225130832,0.10010691772821928
23.357856,3.9549028073703574,0.0998833690067774
23.360252,3.9694765911027163,0.09959250012311828
23.362648,3.9874029500218513,0.0992126716855156
23.365036,4.00961304968754,0.09874754228211612
23.367416,4.03075221416659,0.0983113849982167
23.369812,4.052822544205419,0.09786223567794256
23.3722,4.074892874244247,0.09740977127731591
23.374579999999995,4.097102973909936,0.0969462628568265
23.37698,4.114377706523013,0.09656634321291704
23.379368,4.131931978389809,0.09616286517993206
23.381747999999995,4.145202509510052,0.09585069615080444
23.384144,4.160475141376713,0.09551052164164153
23.386531999999995,4.173094046190896,0.09519339142786766
23.388915999999995,4.187203195072302,0.09481518939362432
23.391312,4.199310243207289,0.094476690782419
23.393699999999995,4.205410989103026,0.09423838404981572
23.396083999999995,4.209789173506065,0.09401016510601584
23.39848,4.211094321976051,0.09383563305552838
23.400868,4.213330636005814,0.09365077756001067
23.403251999999995,4.215427180408717,0.09347848265097652
23.405648,4.220177451864095,0.09328910484278118
23.408036,4.220783752199779,0.09317550022811354
23.410416,4.224043779587939,0.09304335938343673
23.412816,4.222880296602684,0.09300760047735418
23.415204,4.221996352871148,0.09294990611648983
23.417584,4.218318912460278,0.09292124031253084
23.419979999999995,4.215712407236047,0.09287160881493702
23.422368,4.212314506078897,0.09282042117466646
23.424764,4.2107789360413035,0.0927494782623214
23.42716,4.208032661190212,0.09271068612568827
23.429548,4.210129205593114,0.09254302462693097
23.431928,4.210223649249602,0.09240755765297753
23.434328,4.212040654398783,0.09226406948016844
23.436716,4.21758232178708,0.0920841900016279
23.4391,4.221121888428959,0.09193414552665033
23.441496,4.2283861173099515,0.09174558374916565
23.443884,4.239654547683777,0.09150028668895775
23.446264,4.255858345110215,0.0911857058412764
23.44866,4.272481451417234,0.09084204182909451
23.451048,4.28579920436572,0.09050168475143837
23.453432,4.292598798395759,0.09022659702303112
23.455836,4.300888636493016,0.08989874275316029
23.45822,4.307176373843856,0.0896016283673752
23.460604,4.313883420075277,0.08927232884022801
23.463,4.318308826306561,0.08899344306039327
23.465388,4.327529829963597,0.08865884282015264
23.467768,4.338752934367049,0.08829882912616605
23.470164,4.350348125822839,0.0879721712255755
23.472552,4.36129169097257,0.08763253709872167
23.474936,4.376798536122576,0.0871975623574083
23.477332,4.391094676459083,0.08679989202877428
23.47972,4.403668255302895,0.08640950568249708
23.4821,4.415590207840649,0.08600810030312935
23.4845,4.4248584333259275,0.08562518534051805
23.486888,4.434406198064926,0.08522009468618047
23.489268,4.444233502057645,0.08479696156817756
23.491672,4.4481942734379745,0.08444212135663959
23.49406,4.452574353698884,0.08406080778288509
23.49644,4.4557437291462945,0.08370889379747844
23.498836,4.461287292392459,0.08336390374811119
23.501228,4.470555517877738,0.08298835968916358
23.503608,4.478333499295798,0.08266101628392689
23.506004,4.487461955154215,0.082297366805815
23.508392,4.4944485406393575,0.08196759181379581
23.510776,4.503856535751496,0.08158289386499339
23.513172,4.511541969370939,0.08120505177357558
23.51556,4.517365071870825,0.08084400407071954
23.51794,4.525749353624567,0.08042083125106086
23.520336,4.536927132057645,0.07997971836222131
23.522724,4.54354163049045,0.07962832142182301
23.525108,4.5477347192962565,0.0793302254384661
