Time,Force,Position
2.4485400000000004,0.3596396112101874,0.0
2.4508839999999994,0.355123553038156,0.0
2.453224,0.35368053079918,0.0
2.455564,0.3477214503881726,0.0
2.4579080000000006,0.34469563628336036,0.0
2.460252,0.3393881821784108,0.0
2.462604,0.32928513064770953,0.0
2.464944,0.3210444102365648,0.0
2.467288000000001,0.3123843809448395,0.0
2.4696279999999997,0.3042362083323119,0.0
2.471972,0.2951568701600059,0.0
2.47432,0.2830044960546445,0.0
2.4766640000000004,0.2700607260163651,0.0
2.479016000000001,0.25325252411211224,0.0
2.481356000000001,0.23751525739449786,0.0
2.4837,0.22005542918418702,0.0
2.486052,0.20981260802662546,0.0
2.4883960000000007,0.20250305317525913,0.0
2.4907440000000003,0.20119980056314332,0.0
2.493092,0.19403001533863717,0.0
2.495432,0.1835076549273552,0.0
2.497776000000001,0.17377669044899136,0.0
2.5001240000000005,0.16404572597062758,0.0
2.50246,0.15668894929101806,0.0
2.504808,0.14667844555893383,0.0
2.507148,0.14202261776004224,0.0
2.5094959999999995,0.14002051701362536,0.0
2.511831999999999,0.1381581858940687,0.0
2.514176,0.1373667899611506,0.0
2.5165239999999995,0.13564422846845417,0.0
2.518859999999999,0.1359237677221746,0.0
2.521212,0.14006773884186852,0.0
2.523556,0.1479363722006757,0.0
2.525899999999999,0.16302201261223218,0.0
2.52824,0.17768834414320803,0.0
2.530584,0.19249444530104412,0.0
2.532927999999999,0.20129424421962963,0.0
2.535272,0.20702100720515973,0.0
2.537612,0.2059500720185212,0.0
2.539955999999999,0.213539166123608,0.0
2.5422959999999994,0.22648293616188742,0.0
2.54464,0.23621390064025127,0.0
2.5469839999999992,0.24715556993211385,0.0
2.5493239999999995,0.2574456129179185,0.0
2.551659999999999,0.2674561166500028,0.0
2.554004,0.27439358444903167,0.0
2.5563480000000007,0.28053965631514244,0.0
2.558687999999999,0.2824019874346991,0.0
2.5610240000000006,0.2824019874346991,0.0
2.563368,0.28440408818111595,0.0
2.5657120000000004,0.2850557144871738,0.0
2.5680520000000007,0.28999108153978587,0.0
2.570396,0.2889201463531473,0.0
2.572736,0.2794214993002606,0.0
2.575076,0.27220449224751136,0.0
2.577412,0.26563911150082,0.0
2.5797560000000006,0.2620069970603238,0.0
2.582096000000001,0.25586092519421305,0.0
2.58444,0.25264811963429745,0.0
2.58678,0.24277738552907346,0.0
2.589124000000001,0.22648104030401828,0.0
2.5914639999999998,0.21488774470609778,0.0
2.5938120000000007,0.20008164354826172,0.0
2.59616,0.18699810388312202,0.0
2.598496,0.1769876001510378,0.0
2.6008400000000007,0.1689791971653704,0.0
2.603184,0.1611105638065632,0.0
2.605524,0.15673427526139197,0.0
2.6078680000000007,0.155291253022416,0.0
2.610212,0.15412777003716038,0.0
2.6125560000000005,0.15524592705204207,0.0
2.6149,0.15114917776059134,0.0
2.61724,0.15412966589502966,0.0
2.6195840000000006,0.16125412514916188,0.0
2.621928,0.16158088623112546,0.0
2.6242720000000004,0.1649806832461444,0.0
2.626608,0.1715932858210789,0.0
2.628952000000001,0.18686591768773875,0.0
2.631296,0.20521158548745397,0.0
2.6336400000000006,0.22621098033964396,0.0
2.635984,0.2485608496321929,0.0
2.6383280000000005,0.26834953967088415,0.0
2.640676,0.29307359676218736,0.0
2.643024,0.31300205642773893,0.0
2.6453680000000004,0.32906608422731687,0.0
2.6477200000000005,0.343128011280478,0.0
2.650056,0.3531857368408054,0.0
2.6523960000000004,0.3651057935206894,0.0
2.654744,0.3731614183346,0.0
2.65708,0.37907517277523345,0.0
2.6594240000000005,0.3859200927756452,0.0
2.6617640000000007,0.3935564087089752,0.0
2.6641120000000003,0.3966294446420305,0.0
2.6664520000000005,0.39821223650786663,0.0
2.6687920000000007,0.4056143391578501,0.0
2.671144000000001,0.41282945035273017,0.0
2.673476,0.41622545565201063,0.0
2.675812,0.41207769281657824,0.0
2.6781560000000004,0.4063924640856835,0.0
2.680504,0.4014514094594638,0.0
2.68284,0.40498339266986594,0.0
2.6851840000000005,0.4079090755445842,0.0
2.687532,0.4092972925238402,0.0
2.689868,0.41687690733958066,0.0
2.69222,0.4315790855515842,0.0
2.6945640000000006,0.4534038271598507,0.008614256131515957
2.696904000000001,0.48621556403035376,0.016713456505138686
2.699248,0.5197242531772887,0.0250082972811662
2.7015920000000007,0.5602157360936264,0.03313553812300764
2.703936,0.6083416390854245,0.04104898139616975
2.706276,0.6582354295402931,0.04904654587845816
2.7086200000000007,0.7133894522718682,0.05697070943730354
2.710959999999999,0.7747348728399278,0.06490241908682504
2.713304,0.8416200649384142,0.07277319030169967
2.715644,0.9159545815151271,0.0802724866022506
2.717987999999999,0.99014932846498,0.08780413342415105
2.720332,1.0703503776540833,0.09522187398883084
2.7226799999999995,1.1554867938957987,0.10265258202254343
2.72502,1.2416941453241526,0.11011384365192474
2.727364000000001,1.331114302312422,0.11746858270375357
2.729704000000001,1.4154593226212193,0.12491950857403836
2.7320400000000005,1.5073008892364863,0.13216944440324208
2.734388,1.6002133910383918,0.13947234905650543
2.736724,1.6934054320940177,0.1467672393132931
2.739076,1.7840835157240291,0.15406886161795466
2.741416,1.8719681026747057,0.15276945629988964
2.743760000000001,1.9573387321997675,0.1519235189397033
2.7461080000000004,2.0454103106055475,0.15079275319760052
2.7484519999999995,2.1317593275186306,0.1498448094152916
2.750796,2.2129406599536248,0.14918632104371266
2.7531360000000005,2.2945413012692,0.14844432218892883
2.7554760000000007,2.3736279851591595,0.14781770664102253
2.75782,2.4546242219969194,0.14705725189383215
2.76016,2.5329667317822055,0.1464154508456003
2.7625040000000007,2.6059545656342977,0.14619013656481777
2.7648400000000004,2.6788026298595304,0.14597053756139028
2.767188,2.749928132592066,0.14584282772215973
2.769536,2.8213331745783217,0.14568106063821892
2.7718800000000003,2.893669382124356,0.14548379746109683
2.774224,2.965865820043531,0.14534864033139766
2.776564,3.040064358709122,0.14511350723111566
2.7789080000000004,3.1130521925612142,0.14501482366030785
2.781256,3.19125493271964,0.14473139705648544
2.7836039999999995,3.271739312878202,0.14437478627531894
2.785952000000001,3.3530150889696824,0.14401282792847914
2.7882880000000005,3.4351294828223238,0.14357613236232183
2.790632,3.5116568833162956,0.14328912644389272
2.792984,3.585018700078595,0.14306933320024268
2.79532,3.657356803482499,0.14281282372262
2.79766,3.7276002583413685,0.142530140757628
2.8000040000000004,3.7945855816699487,0.14222724274412538
2.802352,3.862828831640271,0.14180559714909774
2.804684000000001,3.9212485693336125,0.14160446031882978
2.807028,3.9776208803101634,0.14132100082406907
2.8093759999999994,4.029152267890589,0.1410192907408918
2.811712000000001,4.07928785506028,0.14064758117756396
2.814056,4.124023440326406,0.14032468951388682
2.8164000000000007,4.161356922942549,0.14010317828939808
2.818744,4.197154835521098,0.13983355124265665
2.8210880000000005,4.2264818110094415,0.13964869871619356
2.8234319999999995,4.2525506549674965,0.13944228483243273
2.825780000000001,4.269355065156011,0.1393827280576047
2.828112,4.277826207134764,0.13944999718556955
2.8304560000000007,4.279546872769591,0.13961954925164882
2.8328,4.277729867620408,0.13978771683552754
2.835144000000001,4.270605408366276,0.1400517997312959
2.837476,4.266461437246582,0.14017228981369442
2.8398200000000005,4.258872343141495,0.14034889785788907
2.842176,4.248629521983934,0.1405731696882168
2.8445240000000007,4.243881146386426,0.1406178645767492
2.846863999999999,4.239132770788917,0.1406619256032157
2.849208,4.229309258511936,0.1408411985224314
2.851544,4.224840422168148,0.1408603293612365
2.8538799999999998,4.222885543249974,0.14084471853103184
2.856224,4.223584391384275,0.1407829029225188
2.8585640000000003,4.2233520739587975,0.14074070561402657
2.860908,4.226844418772433,0.14062127531440213
2.863248,4.236063526571599,0.14037203519022454
2.8655920000000004,4.243420303251209,0.14016383949887784
2.867936,4.253570576610152,0.13989690069871333
2.870272000000001,4.265303641834933,0.1396190005035665
2.872616,4.281832304485466,0.13922909795679206
2.874956,4.29687072306878,0.13890380029905988
2.877304,4.312048911278953,0.13856375935286144
2.8796480000000004,4.32550453799643,0.13824858286631972
2.8819880000000007,4.340031099900545,0.13789899977841652
2.884340000000001,4.353486726618022,0.13758642959302445
2.8866799999999992,4.37280888594789,0.13713792796725335
2.8890280000000006,4.394552454904755,0.13660527457348837
2.891368000000001,4.406425289756396,0.13631413000887785
2.893719999999999,4.414154153488343,0.13613419400639185
2.8960680000000005,4.424444196474147,0.13585319566327844
2.8984080000000008,4.433523534646454,0.13561980042063385
2.900752,4.438878210579646,0.13546407757097015
2.903092,4.440368454646865,0.13539589241526673
2.90544,4.439577058713947,0.1354029053443559
2.9077840000000004,4.434781461288195,0.13551197628357173
2.9101240000000006,4.431848194982001,0.13558048041841678
2.912468,4.426773058302528,0.13571182356560613
2.9148120000000004,4.419695820876639,0.13589354461086933
2.9171520000000006,4.408754151584776,0.13616391320787333
2.9195,4.394879215986719,0.13650454258746744
2.921848,4.384077316321717,0.13676513886145544
2.924196,4.374066812589633,0.13701939405961497
2.926532000000001,4.366710035910023,0.13722858629255535
2.928876,4.359353259230413,0.13743777852549577
2.9312239999999994,4.350134151431246,0.13768564732714364
2.933560000000001,4.3323947839672154,0.13811790295528256
2.9358999999999997,4.3085093446370735,0.1387202818296548
2.938244,4.2937032434792375,0.1390861550527096
2.940596,4.287464623814509,0.13919586628106284
2.9429279999999998,4.281226004149781,0.13930372501953187
2.945272,4.2761980892985525,0.13936691558744088
2.94762,4.270099239260685,0.13946237359183875
2.949956,4.273079727395124,0.13932875570600378
2.952312,4.2794127907163375,0.1390904680269327
2.9546520000000003,4.288679120343747,0.138782781054973
2.9569959999999997,4.290216586239208,0.13864922576154667
2.9593359999999995,4.2929647569481695,0.13847117844919585
2.9616800000000003,4.297203171724351,0.13822489554754155
2.964028,4.302792060940889,0.13792041486084888
2.9663720000000007,4.313456086836901,0.13748550736858223
2.968716,4.323608256053715,0.13703546811637254
2.9710600000000005,4.333900194897389,0.13657362250659263
2.973408,4.343400737808144,0.13612018386646707
2.975744,4.3531808199726205,0.13564320650800968
2.9780880000000005,4.365102772510373,0.1351055055363493
2.9804319999999995,4.381820322473878,0.13445670231935905
2.982772,4.404683944303495,0.13363955517671083
2.9851160000000005,4.421541263893861,0.1329805436751776
2.98746,4.42917947568506,0.13256628949712942
2.989807999999999,4.433884421170063,0.13221943449988835
2.992152,4.434585165162234,0.13197090373117223
2.9944999999999995,4.439709419527818,0.13158887887669923
2.996852,4.434031774228401,0.13145605585667713
2.9991960000000004,4.429145524861902,0.13131723836220924
3.0015360000000006,4.423467879562484,0.13118416909593467
3.00388,4.425938406875593,0.13085089869368077
3.006232,4.432413135681537,0.13042707517413804
3.0085679999999995,4.437816929300842,0.13003266681640918
3.010916000000001,4.445874449972622,0.12960058910222574
3.01326,4.450719165084486,0.1292583631653278
3.0156,4.45542411056949,0.1289288850182698
3.017944000000001,4.457195789748298,0.128659093047924
3.020288,4.461249108927245,0.1283234627144362
3.0226320000000007,4.466093824039109,0.12798446434060967
3.024964,4.467074107285,0.12772155980462832
3.027312,4.464469497918638,0.1275119726786879
3.0296600000000007,4.4592111614998,0.12733985076379234
3.031992,4.454372133961544,0.12713193811056517
3.0343360000000006,4.45460824310276,0.12680515610448986
3.03668,4.454704582617116,0.12648750114766713
3.0390240000000004,4.453869756571693,0.12618363125178894
3.04136,4.450613520899274,0.12596266468138875
3.043704000000001,4.456017314518578,0.12556498042933112
3.046055999999999,4.456905049965852,0.1252398368781016
3.0483920000000007,4.457141159107066,0.12490754348454666
3.050736,4.453373066755448,0.12466785233477007
3.0530839999999992,4.44373844179144,0.12454916823994541
3.0554239999999995,4.434895212760351,0.12442538955635095
3.057764,4.424329422236564,0.12432134412762702
3.0601080000000005,4.411109904660302,0.12425448382100335
3.062456,4.3956087470839025,0.12425600253428397
3.064800000000001,4.386113891746755,0.12412357314077951
3.067144,4.372335295663054,0.12410165650177911
3.0694919999999994,4.353109475847542,0.12416663017190264
3.071836,4.337748087898002,0.12415431335174004
3.0741760000000005,4.32410926144116,0.12412183521356972
3.0765199999999995,4.311401600544096,0.12407117331841576
3.0788640000000003,4.2992057963262305,0.12404013409809424
3.0812,4.283005790615531,0.12409994995949108
3.0835440000000007,4.268807885651248,0.12411516483295328
3.085888,4.257822786246881,0.12404373523375499
3.088228,4.242181859043622,0.12406000501852359
3.0905720000000008,4.219883003295055,0.1242063216755354
3.092916,4.2013088097856,0.12428370327867569
3.095256,4.1835260122090645,0.12435444946532283
3.097596,4.16467227944589,0.12445379855359792
3.0999399999999997,4.14954320892183,0.1244855722754835
3.1022880000000006,4.138278570263742,0.12443436818739388
3.104636,4.127013931605655,0.12438192613359837
3.106979999999999,4.118542789626901,0.12427980644421088
3.1093199999999994,4.11635748914112,0.12401737449043364
3.111664,4.111238922349143,0.12381673908007286
3.1140040000000004,4.107191290743805,0.1235869208672627
3.116352,4.107659717310499,0.12328495915596688
3.118696000000001,4.107057208690553,0.12301257550701482
3.1210359999999997,4.108317031190164,0.12270779369861567
3.12338,4.108086609622555,0.12246767957537384
3.125724000000001,4.109066892868446,0.12218644850907591
3.1280720000000004,4.115122312793809,0.12178683643372588
3.130408,4.121457271972892,0.121364051949754
3.132756,4.128443857458033,0.12095207247833599
3.1351000000000004,4.143438845928842,0.12036224428856758
3.1374400000000007,4.164160597385181,0.11966615801893099
3.139784,4.1828802480951035,0.11901658972058052
3.1421280000000005,4.2042536258575,0.11834086444371228
3.1444680000000007,4.22348513324662,0.11771205692070662
3.1468040000000004,4.240714539889323,0.11712785010689959
3.149152,4.2511462483598565,0.11668069789924991
3.1514960000000007,4.256363050524058,0.1163552429827875
3.153847999999999,4.263581953434677,0.1159888831827438
3.156192,4.265585950038963,0.11575189242212482
3.158532,4.268241572949307,0.11552449810362228
3.160875999999999,4.271828361419429,0.1152815930601028
3.16322,4.280210747315303,0.11495668146627457
3.1655640000000007,4.2904554643307335,0.11460516393010788
3.167908,4.300700181346165,0.11425664289339335
3.1702439999999994,4.314157703921511,0.11383159036835394
3.172588,4.328127083176056,0.1134288957231278
3.174936,4.338883656870684,0.11310605372048903
3.1772719999999994,4.354016519110483,0.11274400484477845
3.179607999999999,4.370220316536921,0.11236238869972928
3.181952,4.382931769149724,0.11208166664218065
3.1842999999999995,4.389497149896415,0.11192467069971132
3.186635999999999,4.39871625769558,0.11174023833752444
3.18898,4.403931164001913,0.11163115714149797
3.1913240000000007,4.413801898107137,0.1114559121209722
3.193668,4.427537064078335,0.11121932032611333
3.1960039999999994,4.445788288221564,0.1109271164368149
3.198348,4.476843512776212,0.11041510727875703
3.200696,4.50761919807714,0.10993448574631376
3.2030280000000007,4.539046509684125,0.10945930420285355
3.205367999999999,4.568471720544694,0.10901997084726435
3.2077199999999992,4.5996194928979595,0.10857033726858724
3.2100560000000007,4.6247609630119735,0.10823596985243313
3.212395999999999,4.64869172831249,0.10793934742260479
3.21474,4.671272019172648,0.10768761599279496
3.2170879999999995,4.694364166712003,0.10746155341811454
3.219423999999999,4.72146051574419,0.10717393807394224
3.221768,4.75335246220213,0.10682236305012344
3.2241279999999994,4.779517645674541,0.10655589863833594
3.226476000000001,4.806194685826148,0.10631486295591978
3.22882,4.833942661164395,0.10605307484013181
3.23116,4.8695592698614485,0.10567405011336432
3.233504000000001,4.902242612252306,0.10533902302095279
3.2358439999999997,4.941351565762996,0.10488761733117948
3.238188,4.981810993714044,0.10440531099696485
3.240532000000001,5.021199486478453,0.10395284624278062
3.2428719999999998,5.05700308663061,0.1035315318310535
3.2452200000000007,5.083867118237321,0.10325127013347968
3.247559999999999,5.109799984284253,0.10298404399528557
3.249904,5.138154259958183,0.10266122080069334
3.2522480000000007,5.171583672311585,0.102265288641853
3.2545960000000003,5.20408191910521,0.10188304822928765
3.2569360000000005,5.238582266645251,0.10147134559499259
3.2592799999999995,5.2722912182523745,0.10106064761444795
3.2616240000000003,5.3124257809793285,0.10054712382713092
3.2639679999999998,5.349115220720891,0.10005619670391325
3.2663160000000007,5.379286501544003,0.09963612947693244
3.2686520000000003,5.406664285687781,0.09925060753971095
3.271,5.436975336137754,0.09883084828698803
3.2733440000000007,5.462770328415695,0.09844756402072977
3.275688,5.489915795133998,0.09803360898904834
3.27804,5.511614038120488,0.09766883061177392
3.28038,5.536525086666895,0.09725337412040858
3.282724000000001,5.553008423347053,0.09697036308716843
3.285068,5.56497570185518,0.09672263610827862
3.2874159999999994,5.573497857377914,0.0964911569484534
3.289764000000001,5.586024214393482,0.0962097910663026
3.2921000000000005,5.600180585103129,0.0958770109994537
3.294448,5.613685329506719,0.09553650203975861
3.296796,5.622254706857698,0.09525387704561444
3.2991400000000004,5.62216405491695,0.09506153613437424
3.3014839999999994,5.622492711856783,0.09484417888723565
3.303828,5.624171843236974,0.09459459831945005
3.3061800000000003,5.626410053124606,0.09431128184586247
3.308516,5.617846363347235,0.09414788618591383
3.310856,5.607699881704031,0.09398196821523842
3.313204,5.598484565620603,0.09380759818545929
3.3155360000000007,5.585684356924922,0.09365526194584246
3.31788,5.567436924497431,0.093540582972323
3.3202240000000005,5.5517506713237985,0.09336599810783702
3.3225679999999995,5.532199986284193,0.09322983107981728
3.3249120000000003,5.514791171617865,0.09305965308895081
3.3272559999999998,5.493657694712421,0.09291871742282053
3.3296,5.4750853970608375,0.09271928924529359
3.3319400000000003,5.45744426496903,0.09251055807113147
3.334284,5.440874068063862,0.09228408154460406
3.336628,5.423931784106356,0.09202945037645735
3.3389680000000004,5.402705759402297,0.09183741882111741
3.341304,5.376032510966428,0.0916798962287952
3.3436440000000003,5.352851607344195,0.09145446098845977
3.3459960000000004,5.33102117816232,0.09119309787477818
3.3483399999999994,5.304395151554694,0.09097697968982456
3.35068,5.272042361961538,0.09081358707915582
3.3530240000000004,5.235825140502408,0.0906868105739566
3.3553679999999995,5.1986767534835,0.09057148821898547
3.3577120000000003,5.163111158330429,0.09045765594404129
3.36006,5.128104641684798,0.09030371299230093
3.3624040000000006,5.093377664292887,0.09012902576586787
3.364748,5.060652787647393,0.08992716423951867
3.3670920000000004,5.023783939882206,0.08978252054143501
3.3694320000000006,4.987054861743878,0.08962627652973447
3.371776,4.9445990206200205,0.08952442850901715
3.374112,4.903493653936522,0.08938151500884271
3.3764600000000007,4.861596891320105,0.08923265449361797
3.378812000000001,4.817558258330413,0.08911764545185293
3.3811519999999997,4.772448690154079,0.08901762110334993
3.383496,4.7199823452981375,0.0890305611579104
3.385840000000001,4.669937410069194,0.0889883362340723
3.388191999999999,4.626270864131838,0.0888974850479657
3.390536,4.5823247789407615,0.08881937375667918
3.392888,4.5461075574816325,0.08865176942846495
3.395236,4.513754767888474,0.08844054589732996
3.397572,4.484195474974653,0.08820387039422502
3.399916,4.459152240232864,0.08793540427176108
3.4022680000000003,4.442117408476742,0.08756137952943735
3.4045999999999994,4.427364216720757,0.08714035924354377
3.40694,4.410981011270692,0.08677482554793384
3.4092840000000004,4.394690353619245,0.08645995674615309
3.411636000000001,4.377049221527438,0.08618132081057756
3.413968,4.362992982047885,0.08587911656241877
