Time,Force,Position
3.842572,0.14694994724010396,0.0
3.844916,0.13617652546988038,0.0
3.84726,0.12461170776673866,0.0
3.849604,0.11290712043673674,0.0
3.8519479999999993,0.10385626015920958,0.0
3.854292,0.09480539988168242,0.0
3.85664,0.08296104292482029,0.0
3.858984,0.0721876211545967,0.0
3.861332,0.06276467382473205,0.0
3.8636880000000007,0.05054822981553245,0.0
3.866032,0.04033388655274969,0.0
3.868376000000001,0.03212164403638379,0.0
3.870724,0.02283846633337936,0.0
3.873068000000001,0.014626223817013456,0.0
3.875412,0.008416082047064403,0.0
3.8777560000000006,0.0032768754637538806,0.0
3.880096000000001,0.0,0.0
3.88244,0.0,0.0
3.8847840000000007,0.0,0.0
3.887128,0.0,0.0
3.8894759999999993,0.0,0.0
3.89182,0.0,0.0
3.89416,0.0,0.0
3.8965039999999993,0.0,0.0
3.8988400000000007,0.0,0.0
3.901184,0.0,0.0
3.903528000000001,0.0,0.0
3.905868000000001,0.0,0.0
3.908212,0.0,0.0
3.9105560000000006,0.0,0.0
3.9129,0.0,0.0
3.9152359999999993,0.0,0.0
3.91758,0.0,0.0
3.919932,0.0,0.0
3.922268,0.0,0.0
3.9246120000000007,0.0,0.0
3.926956,0.0,0.0
3.929304000000001,0.0,0.0
3.931648,0.0,0.0
3.933996,0.0,0.0
3.93634,0.0,0.0
3.938684,0.0,0.0
3.941024,0.0,0.0
3.943368,0.0,0.0
3.945716,0.0,0.0
3.948056,0.0,0.0
3.950404,0.0,0.0
3.952752,0.0,0.0
3.955096,0.0,0.0
3.957440000000001,0.0,0.0
3.959784,0.0009480136353734572,0.0
3.9621280000000008,0.0011046313378288042,0.0
3.964472,0.0015407882940045724,0.0
3.966816000000001,0.0018371756233201305,0.0
3.969164,0.0018371756233201307,0.0
3.971504,0.0018371756233201307,0.0
3.973848,0.0018371756233201307,0.0
3.9761960000000007,0.0018371756233201307,0.0
3.97854,0.0018371756233201307,0.0
3.980884000000001,0.0018371756233201307,0.0
3.9832240000000008,0.0018371756233201307,0.0
3.985572,0.0018371756233201307,0.0
3.987904,0.0018371756233201307,0.0
3.990248,0.0018371756233201307,0.0
3.992604000000001,0.0018371756233201307,0.0
3.994936,0.0018371756233201307,0.0
3.997280000000001,0.0018371756233201307,0.0
3.9996199999999993,0.0018371756233201309,0.0
4.001971999999999,0.0018371756233201309,0.0
4.004308000000001,0.0018371756233201309,0.0
4.006652,0.0008891619879466734,0.0
4.009,0.0007325442854913263,0.0
4.01134,0.00029638732931555807,0.0
4.0136840000000005,0.0,0.0
4.016028,0.0,0.0
4.01838,0.0,0.0
4.0207120000000005,0.0,0.0
4.023056,0.0,0.0
4.025404000000001,0.0,0.0
4.027756000000001,0.0,0.0
4.0301,0.0,0.0
4.032444000000001,0.0,0.0
4.034788,0.0,0.0
4.037128,0.0,0.0
4.039476,0.0,0.0
4.041828,0.0,0.0
4.044168,0.0,0.0
4.046512000000001,0.0,0.0
4.048856,0.0,0.0
4.051208,0.0,0.0
4.053556,0.0,0.0
4.055904000000001,0.0,0.0
4.058256000000001,0.0,0.0
4.0606,0.0,0.0
4.06294,0.0,0.0
4.065288,0.0,0.0
4.067624,0.0,0.0
4.069968,0.0,0.0
4.072311999999999,0.0,0.0
4.074656,0.0,0.0
4.076992,0.0,0.0
4.0793360000000005,0.0,0.0
4.081684,0.0,0.0
4.08402,0.0,0.0
4.0863640000000006,0.0,0.0
4.088708,0.0,0.0
4.091048,0.0,0.0
4.093388,0.0,0.0
4.095728,0.0,0.0
4.09808,0.0,0.0
4.100416,0.0,0.0
4.102760000000001,0.0,0.0
4.105104,0.0,0.0
4.107448000000001,0.0,0.0
4.109788000000001,0.0,0.0
4.112132,0.003318409718389311,0.0
4.114476000000001,0.008172389474371681,0.0
4.116816000000001,0.013910312961889222,0.0
4.11916,0.023325676860276902,0.0
4.121504000000001,0.03413684116939743,0.0
4.123844000000001,0.05048777700894473,0.0
4.126180000000001,0.06930544844586344,0.0
4.128524,0.0903103162264331,0.0
4.130864,0.11736681221662723,0.0
4.133208000000001,0.14311815973683634,0.0
4.135548000000001,0.17650392733250606,0.0
4.137892,0.21631341019013778,0.0
4.140236000000001,0.26333800424264947,0.010129385753804005
4.142572,0.31664654393026304,0.019922519631019958
4.144915999999999,0.37623902925297825,0.029450316227699294
4.147256,0.43932196353146025,0.03906961428286742
4.149604000000001,0.5060351163925692,0.04872488138265798
4.151948,0.5778687319035242,0.058147367340285985
4.154292000000001,0.6557539756241039,0.06728648156141323
4.156644000000001,0.734895250128556,0.07660269292623266
4.158980000000001,0.8090408793922964,0.0863853135321577
4.161328,0.8870509405220105,0.09588402743201378
4.16368,0.9672954198236183,0.10538669839791237
4.166023999999999,1.0467012813640653,0.11496144311083344
4.168368,1.12675876921057,0.12464439677059869
4.170712000000001,1.2059776392959134,0.134247021556862
4.173064000000001,1.2863599923665123,0.1438744460948894
4.175400000000001,1.3664628061833908,0.15362826330311707
4.177748,1.4453549151867706,0.16327748123010796
4.1800880000000005,1.53174357049662,0.1726903878808987
4.182428000000001,1.6145473331942164,0.1820523073489184
4.184772,1.695396216973639,0.19129182043142054
4.1871160000000005,1.7696343940359966,0.19051954285695116
4.189456000000001,1.8391241955008455,0.19014629322697846
4.191792,1.9080095924878797,0.18982342156090226
4.1941440000000005,1.9793636209301542,0.18916813853188183
4.196492,2.0510444104543923,0.18836299425460123
4.198828,2.121421947366515,0.1877036784571261
4.201172000000001,2.188913439800685,0.18724537045037176
4.20352,2.2591058811155738,0.1865119208664962
4.205864000000001,2.3390765087370693,0.18501978660347027
4.208208,2.4146708478133934,0.18385088238823852
4.210552000000001,2.4912435742777395,0.1825788214499353
4.212896,2.569353766637547,0.1811062675232644
4.215231999999999,2.6497928208257355,0.17940364669705675
4.217576,2.726182347550716,0.177783972789317
4.219928,2.7997330516259877,0.17612574527732988
4.222264,2.8744491345443848,0.17422050377489515
4.224604,2.9433931285068766,0.17244888131697034
4.226947999999999,3.0040038542596075,0.1710051716922199
4.229292,3.0579113254966557,0.16968735018122688
4.231632,3.1034855285239424,0.1686354848275791
4.233975999999999,3.1518079022601904,0.16730335929858503
4.236327999999999,3.1990140148394257,0.16585851158524
4.238668,3.237607319955179,0.16473877184299351
4.241012,3.268099674286648,0.16395858344910658
4.243356,3.293843653020609,0.163307731345602
4.245696,3.315910191343699,0.16272645453418616
4.248036,3.3297360092556447,0.16245043655328767
4.250380000000001,3.3406757826896376,0.16221957398983472
4.252724,3.339510403846513,0.16245970510095542
4.255064,3.3393234123914097,0.162570023377487
4.257408000000001,3.334899902017995,0.1627978069735776
4.259752,3.323027067166354,0.16330047969934858
4.262104,3.308919814142818,0.1638144384983161
4.264448000000001,3.2943007044400856,0.16430737360138048
4.266796,3.2768880980580173,0.16490555535700643
4.269148,3.2584045564893125,0.16553286563280148
4.2715000000000005,3.242202654920743,0.16604079419094933
4.273844,3.2304242637255887,0.1663341628008081
4.276188,3.225443570702603,0.16636831178268202
4.2785400000000005,3.225398244732229,0.1662100083068665
4.280872,3.2201380124555232,0.1662781906313683
4.283220000000001,3.214598240925096,0.16637905163312347
4.285576,3.211200339767946,0.1663847300491025
4.287920000000001,3.210223848237794,0.16625712824959268
4.290260000000001,3.211109687827198,0.16606497780839752
4.292608,3.212135297043463,0.16585599056916187
4.294948000000001,3.220377913312477,0.16532838529765648
4.297292,3.2278291336485725,0.16482016537794358
4.2996360000000005,3.240635029917861,0.16405346493921896
4.30198,3.2517183646944527,0.1633442597552284
4.304324,3.2641521739114037,0.16255496926292068
4.3066640000000005,3.2791471623822126,0.1615990175059323
4.309016000000001,3.290417488613908,0.160778705843108
4.311344000000001,3.3008964189126853,0.15997292765788623
4.313688,3.3148676940250987,0.15898096510600876
4.316028,3.3269766380179555,0.15806416291422334
4.318376,3.336803942010675,0.1572662405614211
4.320720000000001,3.3457000804436157,0.1565139226574742
4.323060000000001,3.34672758551775,0.1560605302447278
4.325416,3.348034629845604,0.15557728974082147
4.327756,3.349341674173458,0.15508811215593457
4.330096,3.3487863873817556,0.1546584428315169
4.332440000000001,3.352375071709747,0.1540597351698093
4.3347880000000005,3.3570346912243774,0.15341850056822148
4.337124,3.3609029148060894,0.15279386340551054
4.339468000000001,3.364631368760941,0.1521872271724903
4.341812,3.3657060956633185,0.15165501913642143
4.344152,3.3646389521924185,0.15121159465642114
4.346495999999999,3.364502974281297,0.1507440793012187
4.348836,3.3625046652506185,0.15033145941555423
4.35118,3.358923564354104,0.14994266305396886
4.353516,3.3590671256967024,0.1494458691812186
4.355860000000001,3.362004183718636,0.14886657954197124
4.358204,3.366803572860126,0.1482345400902186
4.360544,3.3702524875612574,0.14768160734892305
4.362888000000001,3.3739809415161086,0.14709840341950758
4.365232,3.3810619706577363,0.14637699808130716
4.367579999999999,3.3841387983065303,0.14578968925565208
4.369928000000001,3.3893574963286017,0.1451057133690454
4.372276,3.392713863231116,0.1444782093736629
4.3746160000000005,3.4004937405070446,0.14366712479545138
4.37696,3.4113466537160293,0.1427447526095109
4.379304,3.4171244302455404,0.14200770324108467
4.3816440000000005,3.4219710412152735,0.1413019379097439
4.383988,3.4248155514385905,0.14066002063968808
4.386324000000001,3.4288707664754057,0.1399650098537375
4.388672000000001,3.434788312631777,0.13922306039355348
4.391024000000001,3.444989599534703,0.1383220336517929
4.393368,3.450115749758157,0.13759067803159866
4.395708,3.4578956270340866,0.13680027032777356
4.398052000000001,3.464045490615935,0.13610742090313638
4.400392000000001,3.464328821585394,0.13559598443405507
4.402728000000001,3.462610051808437,0.1351497174500849
4.405076,3.4590289509119225,0.1347522747444606
4.407424,3.45479622370935,0.13434691868999454
4.40976,3.448421626133501,0.13401948308520603
4.412104,3.4408363237441524,0.13374677280269784
4.4144440000000005,3.4361842876609994,0.1333860617259777
4.416796000000001,3.434325748257181,0.13295355170768614
4.419136000000001,3.432047899972782,0.13256602522854705
4.42148,3.4281400379943037,0.13228149103805895
4.423827999999999,3.4240924063889655,0.13201290836239016
4.426168,3.4229780410898223,0.1316607276638664
4.428512,3.4195820357905418,0.1313982853442927
4.43086,3.419119296797456,0.13105201546470077
4.433196,3.4154437522444554,0.13081898286702962
4.4355400000000005,3.410557502877956,0.13063879872523024
4.437884,3.3992456423916253,0.13068445487300717
4.440232000000001,3.3916584441444075,0.13064109848738392
4.442576,3.3820691451507727,0.13065808752350222
4.444916,3.377834522090331,0.130484797118284
4.447272000000001,3.3794664316422796,0.1301476883752299
4.44962,3.38002740600759,0.12984555942932255
4.451963999999999,3.381379776305818,0.12953599415535813
4.454308,3.383104233656384,0.12926516112190686
4.456648,3.3846889213800893,0.12900667798323345
4.459028000000001,3.3804070764914043,0.1289166657623705
4.461424,3.3769166275356377,0.12881883159271146
4.463812,3.374217574512789,0.12871379662468604
4.466192,3.376453888542553,0.12846823119686174
4.468588,3.3768278714527593,0.1282666790545788
4.470975999999999,3.3738492791761905,0.12819250453494327
4.473356,3.3676578813397056,0.12823112583302987
4.47576,3.3656104546229146,0.12813448556824486
4.478144,3.363423258279264,0.12805321297423372
4.480524,3.36351770193575,0.12788215172057388
4.482928,3.363612145592236,0.12771123996795367
4.485316,3.3719945314881103,0.12727636253973323
4.487696000000001,3.3795855214510664,0.1268499573787252
4.490096,3.389178612160439,0.12636608006762062
4.49248,3.393417026936619,0.12606708197779037
4.49486,3.394302866526023,0.1258934957681514
4.497264,3.399192907608261,0.12560820828026506
4.499652,3.4050141142502777,0.12530429389629352
4.502032000000001,3.410183694586237,0.12498986656774178
4.504428,3.4182865412283907,0.12459814204172154
4.506816,3.4310452156694358,0.1240929047997863
4.509196,3.440870623804286,0.12366514209379435
4.5116000000000005,3.4468316000731627,0.12333766150209395
4.513988,3.447717439662567,0.1231628508875854
4.516368000000001,3.450745149625248,0.12291709370983281
4.518764,3.455914729961207,0.12259705418106236
4.521152,3.462946641416722,0.12223136006882784
4.523532,3.466486208058601,0.12200685359002125
4.525932,3.4638797028343697,0.12196993241094742
4.528315999999999,3.462576450222254,0.12195130556222432
4.5307,3.461924823916196,0.12194197700504347
4.533096,3.457920622423363,0.12205350363629994
4.535483999999999,3.457780852796502,0.1220682259386064
4.537864,3.4596431839160586,0.12202968613296247
4.540260000000001,3.4642990117149504,0.12193234716910763
4.542648000000001,3.4660215732076476,0.12190725221258443
4.545024000000001,3.4656022643270665,0.1219511368038798
4.54742,3.4659743513794044,0.12198978817751983
4.549808,3.4692797047379367,0.12195689176769225
4.552188,3.471234583656111,0.12198617438793527
4.554583999999999,3.475843189626759,0.12197355874274797
4.556972000000001,3.487389263396436,0.12179181612394778
4.559352,3.5037309345918652,0.12150642400611478
4.561748000000001,3.520491914667875,0.12117622689914744
4.564136,3.5359024203035254,0.1209090316504359
4.566516000000001,3.5554568970588707,0.12053685988772693
4.568916000000001,3.5762220786277146,0.12012112299835667
4.5713,3.5951249290770004,0.1197296994764551
4.57368,3.6243178225120927,0.11905711553279984
4.576076,3.651788154454487,0.1184120953910347
4.578463999999999,3.678467090463964,0.11777301262563032
4.580844,3.702212760167246,0.11719868781353095
4.583240000000001,3.715947926138444,0.11687255406312763
4.585628000000001,3.7255391209899473,0.1166643462339982
4.588012,3.7343389199085335,0.11646077562566198
4.590408000000001,3.750355725879868,0.11606377572961465
4.5928,3.7654413662914243,0.11568301348558388
4.59518,3.7769421140907276,0.11536094035440385
4.597576000000001,3.788163322636311,0.11507289118666372
4.599964000000001,3.801945710435751,0.11468507370992591
4.602348,3.813493680063298,0.1143002704901028
4.604743999999999,3.8168934770783167,0.1141196802777667
4.607132000000001,3.8193621085335576,0.11395860969325766
4.609516,3.826346798160829,0.11373314908995066
4.611911999999999,3.832400322228322,0.11352223431653452
4.614300000000001,3.8353808103627607,0.11338838630002675
4.61668,3.838501068124059,0.11324308646996248
4.619076000000001,3.8489781025649674,0.11291655669731301
4.6214640000000005,3.854240230699543,0.11272072099070769
4.623848,3.8575002580877022,0.1125654490336355
4.626244000000001,3.8618312206624994,0.11238362538395108
4.6286320000000005,3.8683040536105735,0.112145787754101
4.631011999999999,3.8858583254773706,0.11166693607624475
4.633412000000001,3.905694237344305,0.11112084663493808
4.635796,3.928742954771155,0.11050152400343712
4.638179999999999,3.949649801824728,0.1099524540884504
4.640576,3.975492015930913,0.10931692838085327
4.642964,4.005850288209129,0.10862740018690442
4.645344000000001,4.03462576862151,0.10794859068799433
4.64774,4.063121709780169,0.10730784848241501
4.650128,4.09492300429736,0.10666282888028232
4.652508,4.131799435494027,0.10591268952374272
4.654908,4.164671665197856,0.10523909728831642
4.657292000000001,4.193819232662575,0.10462916354144682
4.659676,4.226319375314069,0.10393867705997446
4.662071999999999,4.255886251659367,0.10329674596939359
4.664460000000001,4.286244523937583,0.10266385312228396
4.66684,4.312598594722966,0.10211705435624993
4.669239999999999,4.3409547662547645,0.10153983697967284
4.671627999999999,4.375596779279536,0.1008424439253036
4.674008,4.409447396371387,0.10015131020261488
4.676404000000001,4.442506617530322,0.0994614889353219
4.6787920000000005,4.468628370890228,0.09889470575504569
4.681171999999999,4.490885692384159,0.09838299264769185
4.683572000000001,4.508347416452339,0.09794295004321396
4.685960000000001,4.521153312721628,0.09755778173689737
4.688339999999999,4.528372215632246,0.0972413613081536
4.690736,4.530283664437915,0.09696788336694483
4.693128000000001,4.532195113243585,0.0966949432431022
4.695512,4.53038189981014,0.09646439816378777
4.697908000000001,4.5224698363388285,0.09627468717118168
4.700296000000001,4.510833110628403,0.09612608983310572
4.702672000000001,4.500826398612057,0.09591185379196646
4.705068,4.487234793983459,0.09572720105727617
4.707452000000001,4.473782958981721,0.09553008027609111
4.709832,4.463543929539897,0.09526931838199004
4.7122280000000005,4.447717906739404,0.09506833044188659
4.714612,4.431891883938912,0.09486603356882181
4.716988,4.413831442966524,0.09464826125758238
4.719384000000001,4.387902368635329,0.0945384923652166
4.721768,4.360110963184579,0.09444640739474056
4.7241480000000005,4.334461428107104,0.0943098572451978
4.726556,4.311512841910348,0.09408697870980762
4.728943999999999,4.291637291646648,0.09381226541310907
4.731324,4.268037079143833,0.0935733713942487
4.733732000000001,4.2448561755216,0.093298610945097
4.7361200000000006,4.220883875966448,0.09301956977273623
4.7384960000000005,4.197982511597937,0.09271625121809923
4.740892,4.170425319430533,0.09246043796346713
4.743276000000001,4.144498140957207,0.09213284598132328
4.745655999999999,4.120712832857159,0.0917570247729032
4.748064,4.099348934384109,0.0913117051726613
4.750452,4.073980834418225,0.09092348739759161
4.752828,4.052477166318314,0.0904796938560754
4.755236000000001,4.024036030419374,0.09013680323204712
4.757624000000001,3.9887971963482656,0.08988482319300899
4.760008,3.9569109374639333,0.08954985161822118
4.762408,3.924373052273543,0.08919558713756191
4.764792000000001,3.8924867933892107,0.08884857066661384
4.767176,3.861671469691517,0.08847659748185119
4.76958,3.8329980163671,0.08805524780721671
4.771972000000001,3.800040822296129,0.08771847925182055
4.774356,3.7625203482248835,0.08748963731746072
4.776751999999999,3.722066607847443,0.08729833045124769
4.779140000000001,3.689062191948229,0.08702501899502957
4.78152,3.659363129407548,0.08674538768626645
4.783936,3.631386628359563,0.08645453432525463
4.786320000000001,3.6072745591775512,0.08610705514757785
4.788704,3.5896806489139874,0.0856891838340632
4.791116,3.570456724956345,0.08533881435538446
4.793504,3.547600686558206,0.08508952706919784
4.795884,3.5244651089063463,0.08485997093828855
4.798279999999999,3.5101293301730725,0.08450572571101553
4.800668000000001,3.492720515506744,0.08420097802361044
4.803048,3.4791761327063875,0.08384272811892574
4.805460000000001,3.4725692177050616,0.08337552905787009
4.807848000000001,3.465403224196293,0.08295791645915598
4.810244,3.4536739506872505,0.08265156646818834
4.812648,3.4407339723647095,0.08237918892040119
4.815032,3.4316584259081426,0.08205398325403564
4.817412,3.4213721746380767,0.0817623281867693
4.819808000000001,3.414298728927926,0.08140114337105979
4.822196000000001,3.4095069232179127,0.0809756721039509
4.824576,3.4110935067994874,0.08050098751568079
4.8269720000000005,3.4149617303811994,0.07997947708356216
4.829356,3.4161762269104368,0.07946985598595707
4.831736,3.421115385678787,0.07893104380851385
4.8341400000000005,3.420699868513945,0.07849788438161978
4.836524,3.415348984296491,0.078130482409938
4.838908000000001,3.4117206615717333,0.07775811475311938
4.841304,3.415029806646004,0.07728820020208192
4.843687999999999,3.4128445061602224,0.07693347559183604
4.846068,3.4070270912339446,0.07668612226568834
4.848476000000001,3.4069364392931973,0.07637800255125897
4.85086,3.409779053658644,0.07603531447647212
4.853243999999999,3.417137726196123,0.07567788824556282
4.85564,3.4272898954129367,0.07530113032141279
4.858024,3.4454504676154176,0.0748135731928537
4.8604080000000005,3.463331500564178,0.07434824475349126
4.862812000000001,3.480932994259218,0.07391475456253657
4.865196,3.5009086757530135,0.07350038163267134
4.867576000000001,3.5224671491126442,0.07310383853863084
4.869976,3.550264242137003,0.07269378036739235
4.872364,3.5704722410562755,0.07234964141411995
4.874744000000001,3.5853255640423543,0.07210535935986433
4.877148000000001,3.604834714827325,0.07183411608871063
4.879532,3.619268728932824,0.07163072340671836
4.881912000000001,3.6387778797177948,0.07136098289498649
4.884315999999999,3.6661556638615727,0.07101243295438614
4.886704000000001,3.696466714311546,0.07063946946354488
4.889084,3.72556705994802,0.07030480886980879
4.8914800000000005,3.7660283837569377,0.06981798144746627
4.893868,3.806769246819576,0.06931122251804342
4.896248000000001,3.8444370739491585,0.06885241724565956
4.898651999999999,3.880474887384662,0.06846270309784508
