Time,Force,Position
4.013744,0.16654795648682755,0.0
4.016084,0.16626841723310715,0.0
4.018427999999999,0.16999307947222042,0.0
4.020772,0.1758596120846108,0.0
4.023112,0.1830766191373601,0.0
4.025448,0.1882915254436925,0.0
4.027791999999999,0.1911322439512706,0.0
4.030131999999999,0.19183109208557164,0.0
4.032476,0.19546320652606786,0.0
4.034816,0.19695345059328698,0.0
4.037159999999999,0.19616205466036885,0.0
4.039504,0.19457926279453266,0.0
4.04184,0.19299647092869643,0.0
4.044183999999999,0.19127390943600003,0.0
4.046523999999999,0.19448671499591566,0.0
4.048872,0.19783929018269147,0.0
4.051215999999999,0.20091232611574683,0.0
4.05356,0.1987704557424698,0.0
4.055903999999999,0.1978392901826915,0.0
4.058248,0.19462648462277593,0.0
4.060595999999999,0.1871299383163062,0.0
4.06294,0.17777589728479648,0.0
4.065279999999999,0.16735092106664823,0.0
4.067624,0.15478407447522294,0.0
4.069968,0.14007535751052058,0.0
4.072307999999999,0.12629780610559657,0.0
4.074644,0.11317188100673045,0.0
4.076992,0.1021878262811414,0.0
4.079335999999999,0.0893414404359957,0.0
4.08168,0.07756598977748855,0.0
4.084023999999999,0.0691382779112405,0.0
4.086367999999999,0.06271266679140933,0.0
4.088715999999999,0.0584289260448552,0.0
4.091055999999999,0.05228285417874444,0.0
4.093403999999999,0.041857877960596215,0.0
4.095748,0.031428065347931335,0.0
4.098083999999999,0.028075490161155528,0.0
4.100428,0.028727116467213425,0.0
4.102771999999999,0.028168037959772584,0.0
4.105111999999999,0.029890599452469017,0.0
4.107459999999999,0.03561736243799915,0.0
4.109804,0.047066052014542746,0.0
4.112151999999999,0.05930613752400445,0.0
4.114487999999999,0.06833341747355057,0.0
4.116832,0.08001442447557143,0.0
4.119179999999999,0.09048472666409357,0.0
4.121515999999999,0.09988409366597717,0.0
4.12386,0.11128556141427762,0.0
4.1262,0.12361819472235638,0.0
4.128547999999999,0.1390238639634905,0.0
4.130879999999999,0.1529441255319222,0.0
4.133228,0.16351181191357803,0.0
4.135583999999999,0.1716580886682364,0.0
4.13792,0.18366879728886829,0.0
4.140263999999999,0.19688537432848222,0.0
4.142608,0.2099670181357526,0.0
4.144948,0.2159714245171339,0.0
4.147287999999999,0.22304676608515375,0.0
4.149632,0.23254351728017106,0.0
4.151979999999999,0.24068979403482943,0.0
4.154324,0.24404047336373597,0.0
4.156667999999999,0.2418041593339726,0.0
4.159012,0.2386366797444309,0.0
4.161352,0.2466904087004722,0.0
4.163692,0.2510194754174002,0.0
4.166031999999999,0.2564194773209668,0.0
4.168383999999999,0.26368181034409,0.0
4.170728,0.2677313378072976,0.0
4.173071999999999,0.26977876452408833,0.0
4.175415999999999,0.267542450494325,0.0
4.177768,0.26479427978536396,0.0
4.180108,0.2663298498229571,0.0
4.182455999999999,0.2692158943009091,0.0
4.184807999999999,0.2711707732190828,0.0
4.18716,0.2723342562043384,0.0
4.189503999999999,0.2734977391895939,0.0
4.191847999999999,0.2769428621749868,0.0
4.194188,0.27717517960046406,0.0
4.196535999999999,0.27498608739894387,0.0
4.198883999999999,0.27200559926450557,0.0
4.201232,0.27288954299604073,0.0
4.203575999999999,0.27484442191421443,0.0
4.205915999999999,0.27321440822013504,0.0
4.208263999999999,0.25663852374135937,0.0
4.210603999999999,0.24062845002241048,0.0
4.212943999999999,0.22540303998399377,0.0
4.215284,0.21031739957243728,0.0
4.217631999999999,0.1987241039745168,0.0
4.219967999999999,0.18913290912301317,0.0
4.222312,0.18182335427164684,0.0
4.224659999999999,0.1793093968460323,0.0
4.226995999999999,0.17586427386063946,0.0
4.22934,0.16920634531533102,0.0
4.23168,0.16175702083710447,0.0
4.234028,0.15696142341135266,0.0
4.236363999999999,0.15309699154537915,0.0
4.238708,0.14601975411949006,0.0
4.241056,0.13829089038754305,0.0
4.243396,0.13098133553617672,0.0
4.245739999999999,0.12502225512516932,0.0
4.248084,0.11612990840796673,0.0
4.250424,0.10774941836996187,0.0
4.252755999999999,0.10630639613098586,0.0
4.2551,0.11380294243745556,0.0
4.257452,0.12180461317073707,0.0
4.259792,0.12422602279773455,0.0
4.262135999999999,0.1249248709320356,0.0
4.26448,0.12133997831978252,0.0
4.266823999999999,0.11789485533438966,0.0
4.269168,0.11230786197571974,0.0
4.271508,0.10485853749749317,0.0
4.273851999999999,0.09526734264598953,0.0
4.276196,0.08795778779462318,0.0
4.278536,0.08009588668820189,0.0
4.280879999999999,0.07051142408908419,0.0
4.283219999999999,0.05999579593018816,0.0
4.285559999999999,0.057249521079096345,0.0
4.287904,0.05850744772083824,0.0
4.290252,0.06027723104177782,0.0
4.292595999999999,0.060836309549218655,0.0
4.29494,0.06525981992263298,0.0
4.29728,0.07103380473640626,0.0
4.299623999999999,0.07438637992318207,0.0
4.301963999999999,0.07759918548309766,0.0
4.304308,0.08188292622965179,0.0
4.306651999999999,0.09510623552165164,0.0
4.308996,0.11019187593320812,0.0
4.311339999999999,0.12620868190454293,0.0
4.313679999999999,0.14008361750260068,0.0
4.316031999999999,0.15209622198110176,0.0
4.318367999999999,0.1641088264596029,0.0
4.320716,0.17826330131138107,0.0
4.323059999999999,0.19227800653629903,0.0
4.325404,0.20842784988210813,0.0
4.327747999999999,0.22644002434747387,0.0
4.330092,0.2404479973200059,0.0
4.332432,0.24896825698487102,0.0
4.334775999999999,0.25441548071668074,0.0
4.337124,0.26321527963526625,0.0
4.339467999999999,0.2748085752331867,0.0
4.341808,0.284819078965271,0.0
4.344152,0.29389841713757686,0.0
4.3465,0.3049798560562997,0.0
4.34884,0.3135473375494079,0.0
4.35118,0.3219750494156559,0.0
4.353523999999999,0.3273297253488486,0.0
4.355871999999999,0.3316134660954027,0.0
4.358251999999999,0.3389702427750122,0.0
4.360647999999999,0.3473979546412603,0.0
4.363036,0.3627631343065372,0.0
4.365415999999999,0.3761262132253973,0.0
4.367828,0.39056022733089585,0.0
4.370216,0.4080672773694498,0.0
4.372595999999999,0.4210582692359724,0.0
4.374992,0.4323266996097986,0.0
4.37738,0.4506723674095138,0.0
4.37976,0.46873849595550854,0.0
4.38216,0.4906690563674769,0.0
4.384543999999999,0.5098061201001102,0.0
4.386924,0.5281517878998254,0.0
4.389323999999999,0.5491511827520155,0.0
4.391711999999999,0.571873139096902,0.0
4.394092,0.5870060013367014,0.0
4.396487999999999,0.6025109506288386,0.0
4.398872,0.6152224032416407,0.0
4.401251999999999,0.6211361576822743,0.0
4.403667999999999,0.6249080417496308,0.0
4.406052,0.6265380554437101,0.0
4.408435999999999,0.6301701698842064,0.0
4.410832,0.6287271476452303,0.0
4.41322,0.6271443557793941,0.0
4.415599999999999,0.622208988726782,0.0
4.417996,0.615923147233811,0.0
4.420383999999999,0.6149447598457897,0.0
4.422764,0.6191340569358574,0.0
4.425164,0.6203428658914869,0.0
4.427552,0.6253688848848468,0.0
4.429932,0.6289972076096046,0.0
4.432327999999999,0.6346729570511532,0.0
4.434715999999999,0.6425359028363526,0.005261037962830973
4.437096,0.6457883467930343,0.01122451779088339
4.439512,0.648434490414032,0.017606624613379945
4.4419,0.6611364637374879,0.023935650227191563
4.444292,0.6732321367252598,0.030898931114350398
4.446696,0.6923106034824346,0.03780626674468842
4.449084,0.7254491014349013,0.04437427847696393
4.451463999999999,0.763056435731156,0.05111263044342785
4.453867999999999,0.804992836744339,0.057884547199523316
4.456255999999999,0.8460433981681174,0.06494395771731612
4.458635999999999,0.8914230263088239,0.07207672593839339
4.461035999999999,0.9428542826591548,0.07919513435188257
4.46342,0.9994060016593319,0.08638898109520424
4.465803999999999,1.0522783843907697,0.09406675790495779
4.468199999999999,1.1058949412268821,0.10178411398888157
4.470584,1.1535977436223612,0.1098181747473489
4.472964,1.203814503443455,0.11787205840642327
4.475359999999999,1.2520291625181321,0.12606959596286077
4.477747999999999,1.300383591219669,0.13434410596897495
4.480128,1.34701545842851,0.14278961395487158
4.482527999999999,1.3911333682117357,0.14610944710781232
4.484915999999999,1.444610155420988,0.14833541518680504
4.487296,1.49971695632432,0.15009739161091817
4.489696,1.5523097998020372,0.15189784474713308
4.492083999999999,1.6145410599595016,0.15268097736320413
4.494464,1.6754690675048498,0.15344818295765925
4.496864,1.7318810168781666,0.1545111902136379
4.499251999999999,1.7917853110651198,0.15523926571415922
4.501632,1.8493154174533184,0.15597472063232354
4.504032,1.9095464727222349,0.1563663651400931
4.506419999999999,1.9720591679912887,0.15658259865787175
4.5088,2.032197675461588,0.15683840189966783
4.5112,2.091312469573492,0.1570037363055804
4.513588,2.1591345148053644,0.15652612646313835
4.515968,2.227515638544678,0.15596853107934688
4.518359999999999,2.2973870063512103,0.15516108617235047
4.520748,2.3684690789712413,0.15429398677400025
4.523132,2.4435553530841063,0.15321760192296016
4.525527999999999,2.51985233201047,0.152055827134023
4.527912,2.6007125909371083,0.15061431049127583
4.530312,2.683994259490744,0.14899993723172875
4.532707999999999,2.758615898752655,0.1478875365240561
4.535096,2.8321666028279266,0.14685437018750747
4.537475999999999,2.90464637171656,0.1458845872515513
4.539872,2.967255406499969,0.14542372570140985
4.54226,3.0286537364698796,0.14505539508015997
4.544643999999999,3.0888413616262915,0.14476605156576242
4.54704,3.1467473467825657,0.14463500715904407
4.549428,3.208377994177953,0.14439302718668692
4.551807999999999,3.266656066386565,0.14430465265157477
4.554204,3.321349245982924,0.14433188077399067
4.556591999999999,3.3744596337134465,0.14437165670297042
4.558972,3.426638855884191,0.1444392790469325
4.561372,3.4720203798827676,0.14474177770797628
4.563755999999999,3.5126063064555915,0.14518587188585447
4.56614,3.557056664894389,0.14549939637081036
4.568535999999999,3.6025779585198254,0.14577831540904293
4.570923999999999,3.6466562299062852,0.14607073357882702
4.57332,3.689151709426909,0.14637956484190578
4.575715999999999,3.7237785555887255,0.1469248354177314
4.578103999999999,3.7565430706309852,0.1475147813842755
4.580488,3.7937310960466597,0.14792808626942308
4.582883999999999,3.8325491351564125,0.1482435932378458
4.585271999999999,3.8724853312810477,0.14844445986053814
4.587656,3.91647295072676,0.14844269215464978
4.590051999999999,3.9557121945749634,0.14848824572346267
4.592439999999999,3.988620270959822,0.14859912770530814
4.594824,4.015988575814254,0.14877472376628859
4.597231999999999,4.0390278139517575,0.148971231054485
4.599616,4.063604517984723,0.14901282723982298
4.601995999999999,4.087809134965352,0.14902286420984984
4.604392,4.109919103400947,0.14902999482226215
4.606775999999999,4.129794653664647,0.14905025791517357
4.609156,4.152650692062786,0.1489161149626153
4.61156,4.179278614528282,0.14861690667422897
4.613943999999999,4.202089326956046,0.14836048417743333
4.616319999999999,4.218149563039886,0.1482205362945864
4.618723999999999,4.226760474645499,0.14825778938627512
4.621107999999999,4.2348595295719145,0.1482778729895903
4.623487999999999,4.251665835618298,0.1480040101213551
4.625884,4.269031220172123,0.1476818570701427
4.628267999999999,4.282811712113695,0.14743811280478267
4.630663999999999,4.290353584390537,0.14732041986281216
4.63306,4.298035226294242,0.1471941481976057
4.635443999999999,4.3035749978246685,0.14713661188392688
4.637823999999999,4.313398510101649,0.14694664883622977
4.640228,4.331090655737437,0.1465542551590546
4.642611999999999,4.350645132492782,0.14611527482828546
4.644991999999999,4.3696405307406865,0.1457299370377519
4.647387999999999,4.385842432309255,0.14540950869913072
4.649772,4.396736879772874,0.14518504299249105
4.652152,4.408842032049993,0.1449136307347047
4.654555999999999,4.420295558021053,0.1446361022868513
4.656944,4.426022321006582,0.1444976202368491
4.659323999999999,4.429235126566498,0.14439835961970365
4.661715999999999,4.427931873954383,0.14439002669763717
4.664103999999999,4.4266286213422665,0.14438187629393873
4.666484,4.43268214540976,0.1441481903116793
4.668879999999999,4.43650125130536,0.14392746971248804
4.671267999999999,4.430589392722596,0.14395726322295835
4.673647999999999,4.4201614759678,0.14408031096544957
4.676047999999999,4.40721960178739,0.14424451898677612
4.678432,4.396279828353396,0.14435589087427828
4.680815999999999,4.378542356747235,0.1446472590391038
4.683227999999999,4.358570466969179,0.14495295225287666
4.685615999999999,4.33366321013851,0.14539516563056373
4.687995999999999,4.300887319949035,0.14605259735107237
4.6904,4.267459803453502,0.1467093400352312
4.692783999999999,4.225791566546825,0.1475891041632237
4.695163999999999,4.186125430386564,0.1484040278033842
4.697556,4.150463495719135,0.14911111276487585
4.699944,4.114522021797987,0.1498452247536507
4.702324,4.080862187876977,0.15048803091556995
4.70474,4.0512065554487995,0.1510145109244426
4.707128,4.020340218207124,0.15159194545794036
4.709507999999999,3.9939899391374794,0.15207308117504315
4.711911999999999,3.9705729263740306,0.15247140452114347
4.714296,3.9422205465579694,0.1530076501226283
4.716679999999999,3.9131693186076073,0.15362292305803993
4.719076,3.887842752896359,0.154153932916621
4.721464,3.8671720149840016,0.15456468561330292
4.723843999999999,3.8500861696838977,0.15489575226591232
4.726235999999999,3.8337917203167113,0.15521753193499296
4.728623999999999,3.817217731695805,0.15558525144312574
4.731004,3.8007362908735156,0.15601983047897658
4.733399999999999,3.7898418434098966,0.1562996339042963
4.735784,3.7837429933720292,0.15643883212919835
4.738179999999999,3.7793667048268578,0.15654012512493373
4.740576,3.78444184150633,0.15636109517671365
4.742964,3.7881665037454435,0.15625420436292947
4.745344,3.7916116267308366,0.15617719944032202
4.747747999999999,3.798269555276145,0.15597916064522288
4.750135999999999,3.800503973448039,0.15595869750859248
4.752515999999999,3.801248147552714,0.15602329351479732
4.754912,3.8039944224038056,0.15602079489481743
4.7573,3.8059493013219794,0.15603007868137445
4.759679999999999,3.803760209120459,0.15618855331260667
4.762083999999999,3.8011518080383584,0.15639398097781165
4.764468,3.8018959821430336,0.15645921934953883
4.766847999999999,3.8055734225539037,0.15642950516492335
4.769244,3.8052466614719402,0.15653581694393773
4.771627999999999,3.8050596700168366,0.15662684469775773
4.774012,3.805524304867791,0.15672072863206699
4.776407999999999,3.813345716398355,0.15654175029608972
4.778792,3.825590638302334,0.1561862339347195
4.781187999999999,3.837044164273394,0.1558508735174075
4.783583999999999,3.85143095655065,0.15543463969586213
4.785972,3.864095187335208,0.15505477311774815
4.788351999999999,3.875828252559989,0.15470453386097152
4.790755999999999,3.8904945840909653,0.15427162507886794
4.793143999999999,3.9019481100620257,0.15394736712775348
4.795524,3.9101888304731705,0.15374277081459595
4.797928,3.925367018683344,0.1533272287095436
4.800311999999999,3.9426870772667946,0.1528380308164761
4.802692,3.9575857262232477,0.1524513289308801
4.805096,3.9719252966722602,0.1521188955748925
4.807484,3.9921313997336636,0.15161079879694542
4.809864,4.016062165034179,0.15100042552946744
4.812259999999999,4.042367118133449,0.15037435524683312
4.814643999999999,4.0654592656728035,0.14986863574303053
4.817028,4.091484679518354,0.1492738228485352
4.819423999999999,4.115228453363766,0.14876714580097702
4.821808,4.13939153608976,0.14822362466448324
4.824187999999999,4.159270878069199,0.14783545775530388
4.826584,4.172724608928806,0.147667739930729
4.828971999999999,4.1818945990418595,0.1476471006293852
4.831367999999999,4.185337826169383,0.14778054338023924
4.833764,4.191295010722521,0.14787143054927887
4.836147999999999,4.197252195275659,0.1479625709341781
4.838527999999999,4.196551451283489,0.14822795261849156
4.840932,4.204138649530707,0.1482297078681783
4.843319999999999,4.212005387031645,0.1482048486304935
4.8457,4.214936757479971,0.14832039798016963
4.848104,4.212932760875685,0.1485758692207324
4.850488,4.214281339458174,0.1487100674293418
4.852871999999999,4.216049226921244,0.14880451457311492
4.855263999999999,4.215023617704979,0.14896602657032817
4.857648,4.21176359031682,0.14914182581222238
4.860027999999999,4.202916569569992,0.14945041789967367
4.862431999999999,4.19048465621091,0.14984283503669055
4.864819999999999,4.17698180766519,0.1502702090628815
4.867195999999999,4.162827332813412,0.15070032693644192
4.869599999999999,4.147601922774995,0.1511644327184487
4.871987999999999,4.13731187978919,0.15148305946791846
4.874363999999999,4.132656051990299,0.15159689962149894
4.87676,4.129490468258627,0.15163612733122972
4.879148,4.1301893163929275,0.1515694611165204
4.881543999999999,4.129165603034532,0.15153574249375934
4.883943999999999,4.12613978892972,0.15156128116339468
4.886331999999999,4.128980507437297,0.15142144334070062
4.888711999999999,4.125395614825044,0.15149934706327048
4.891115999999999,4.121531182959071,0.151603656879098
4.893499999999999,4.120739787026154,0.15161316609022313
4.895879999999999,4.125954693332486,0.15144689429853286
4.898283999999999,4.127165398145984,0.15139783672227877
4.900671999999999,4.129586807772981,0.15130028418746141
4.903052,4.130937282213341,0.15123811630533496
4.905447999999999,4.134801714079314,0.15113499727629534
4.907832,4.142670347438122,0.15091558935966545
4.910211999999999,4.157336678969097,0.15051035668528986
4.912615999999999,4.172142780126934,0.15009134575786498
4.915003999999999,4.1936068098300785,0.1495079332195039
4.917383999999999,4.219214810652916,0.14880973571351075
4.91978,4.239747674796283,0.14826635150435416
4.922164,4.259721460432209,0.1477839326546484
4.924544,4.280486642001053,0.14729159403698217
4.926939999999999,4.299109953196619,0.14687089172186443
4.929324,4.32052676107152,0.1463929867156988
4.931719999999999,4.3440854393196995,0.14584823677163838
4.934112,4.364571081634822,0.14539315196095068
4.9365,4.386686737644024,0.14485182252876783
4.93888,4.406008896973892,0.1443658964322904
4.941283999999999,4.424539660370841,0.14389635436935225
4.943668,4.438135056715177,0.1435572917885986
4.946048,4.4568055897389875,0.14307973696254464
4.948451999999999,4.475336353135938,0.14262031318551813
4.950839999999999,4.496940152465942,0.14207716377151905
4.953215999999999,4.5174730166093084,0.14157193565242648
4.955623999999999,4.5341414488867,0.14115975766421587
4.958007999999999,4.546805679671259,0.1408543357320213
4.960383999999999,4.562403176762014,0.14048227261559149
4.96278,4.573065306800155,0.14023673990574964
4.965167999999999,4.577581364972187,0.1401542390164329
4.967548,4.5825167320248,0.14003529453858188
4.969952,4.584938141651797,0.13995004468171704
4.972335999999999,4.591363752771628,0.1397682374581013
4.974716,4.594995867212124,0.13964077008630876
4.97712,4.593180757920811,0.13961479324743958
4.979508,4.593227979749054,0.1395516670286433
4.981884,4.594346136763936,0.1394580946105113
4.984279999999999,4.596907316017794,0.1393630976097377
4.986664,4.6065457326975405,0.13909410010171516
4.989059999999999,4.611900408630732,0.13894367032001667
4.991464,4.619536724564062,0.1387201331435889
4.993852,4.619164637511725,0.13869181548175052
4.996232,4.615579744899472,0.1387552842101246
4.998623999999999,4.610132521167662,0.13885519454896897
5.001008,4.604033671129794,0.13894983104417194
5.003391999999999,4.599657382584623,0.13901986560440588
5.005788,4.598354129972507,0.13901022248744951
5.008167999999999,4.591184344748001,0.1391358570227401
5.010547999999999,4.5852252643369935,0.13921897777081246
5.012959999999999,4.581128515045543,0.13926573634493297
5.015347999999999,4.578754327246788,0.13928665967661508
5.017723999999999,4.577311305007812,0.13928883249300925
5.02012,4.568791045342947,0.1394687511799672
5.022503999999999,4.564135217544055,0.13956306949319985
5.024883999999999,4.563064282357418,0.1395939255252379
5.02728,4.557197749745027,0.1397308852754153
5.029664,4.552402152319275,0.1398365508740513
5.032044,4.547094698214326,0.13992425168383524
5.034439999999999,4.537503503362822,0.14012906846357095
5.036824,4.530985344444374,0.1402581692617032
5.039203999999999,4.52726068220526,0.14033058116480632
5.041619999999999,4.537550725191065,0.14007322662536134
5.044004,4.551193343363646,0.13971559257070737
5.046383999999999,4.564835961536226,0.13935884370654206
5.048787999999999,4.580480680455223,0.13895931781788445
