Time,Force,Position
3.973692,0.0871597773333733,0.0
3.976036000000001,0.10251387640738191,0.0
3.97838,0.11493470917519535,0.0
3.980724,0.127495311569869,0.0
3.9830640000000006,0.140987079524321,0.0
3.985408,0.15061441561279948,0.0
3.9877439999999993,0.16331478763433335,0.0
3.990079999999999,0.17722586446936597,0.0
3.992424,0.19355835093139603,0.0
3.994768000000001,0.2120327077667032,0.0
3.997107999999999,0.23050706460201037,0.0
3.999452,0.24697932069090064,0.0
4.001792,0.2602026299829005,0.0
4.004132,0.27249477371512204,0.0
4.006475999999999,0.27784944964831465,0.0
4.00882,0.27733759296911703,0.0
4.01116,0.2794794633423941,0.0
4.013508,0.28082993778275306,0.0
4.015852000000001,0.2827394907305529,0.0
4.018191999999999,0.2878618492382682,0.0
4.0205280000000005,0.29019071106664857,0.0
4.022867999999999,0.2915884073352507,0.0
4.025207999999999,0.29470866509654925,0.0
4.027552,0.29689775729806944,0.0
4.029892,0.3002975543130884,0.0
4.032235999999999,0.30756178319408084,0.0
4.03458,0.31175297614201786,0.0
4.03692,0.3156646298362345,0.0
4.039263999999999,0.3152925427838971,0.0
4.041604,0.3078432183056706,0.0
4.043948,0.2994627282676657,0.0
4.0463000000000005,0.2921531734162993,0.0
4.048640000000001,0.2865661800576294,0.0
4.050984,0.28046733001976176,0.0
4.053324,0.27744151591494953,0.0
4.05566,0.27669734181027456,0.0
4.058007999999999,0.2725080447202067,0.0
4.060352,0.2712520139363341,0.0
4.0627,0.26664340796568564,0.0
4.065044,0.2609638668083986,0.0
4.067387999999999,0.25407362083761287,0.0
4.069732,0.24303940374713323,0.0
4.072068,0.23335566109701256,0.0
4.074415999999999,0.22418377512608956,0.0
4.076756,0.21287001878188952,0.0
4.079108,0.20262719762432801,0.0
4.0814520000000005,0.1923843764667665,0.0
4.083796,0.1781373538163713,0.0
4.086136,0.16468172709889417,0.0
4.088480000000001,0.15909473374022426,0.0
4.090824,0.15523030187425077,0.0
4.093176,0.15537007150111098,0.0
4.095511999999999,0.1504347044484989,0.0
4.097852,0.1469423596348629,0.0
4.100199999999999,0.14345001482122688,0.0
4.102536000000001,0.13753626038059338,0.0
4.10488,0.13334506743265637,0.0
4.107224,0.12808293929808073,0.0
4.109567999999999,0.1280357174698376,0.0
4.111908,0.1309217619477896,0.0
4.114248,0.13380780642574164,0.0
4.116604000000001,0.1408378220233876,0.0
4.118943999999999,0.15266343504678534,0.0
4.121288,0.16691045769718055,0.0
4.123628,0.1810177107207156,0.0
4.125976,0.1909809926245567,0.0
4.12832,0.19694007303556407,0.0
4.130660000000001,0.20718289419312563,0.0
4.133008,0.219427816097104,0.0
4.1353480000000005,0.22887924132174742,0.0
4.137692,0.23954137135988954,0.0
4.140032,0.24727023509183654,0.0
4.142372,0.26128494031675453,0.0
4.144715999999999,0.2737168536758362,0.0
4.14706,0.28293596147500233,0.0
4.1494,0.2933657740876673,0.0
4.15174,0.3040751259540525,0.0
4.154083999999999,0.31385331226065954,0.0
4.156428,0.31748542670115576,0.0
4.158776,0.3192552100220954,0.0
4.161111999999999,0.3233066333431722,0.0
4.163460000000001,0.3262871214776105,0.0
4.165808,0.3234010769996585,0.0
4.168148,0.31823339252156924,0.0
4.170491999999999,0.31227431211056184,0.0
4.172832,0.312321533938805,0.0
4.175179999999999,0.3222394898722722,0.0
4.177516000000001,0.3297360361787419,0.0
4.179864,0.3383035176718502,0.0
4.1822,0.3455205247245995,0.0
4.184543999999999,0.3513870573369898,0.0
4.186888,0.3561354329344985,0.0
4.1892320000000005,0.35855494670362675,0.0
4.191571999999999,0.36358096569698656,0.0
4.193908,0.37349512991471523,0.0
4.196256,0.38722650417017423,0.0
4.198599999999999,0.4020741395826457,0.0
4.200951999999999,0.4195282802193488,0.0
4.203291999999999,0.4448038323866159,0.0
4.205636,0.46761075309864236,0.0
4.207984,0.49260487015431986,0.0
4.210319999999999,0.5199259531805085,0.006395222767113342
4.212667999999999,0.5475719014307916,0.013377261839442251
4.215016,0.5776845852784459,0.020577573157067958
4.217352,0.6147800628955031,0.027608217916176292
4.219695999999999,0.6520606361097945,0.03478785410159803
4.222035999999999,0.6823092978685705,0.0426540073797217
4.224372000000001,0.7195407533967495,0.05039998580218229
4.226711999999999,0.7573293915745,0.05842370101359698
4.229063999999999,0.8016815146410726,0.06645562055745037
4.231408,0.8490122299842143,0.07460399433987583
4.233751999999999,0.901370860178585,0.08274153140496496
4.236096,0.9579660092912667,0.09086935426918152
4.238443999999999,1.0200083821357582,0.0987015607393034
4.240779999999999,1.0827023812863077,0.10653298150525076
4.2431280000000005,1.142043805250081,0.11456498132908233
4.245472,1.2024561644004932,0.12264598398031656
4.247816,1.2628685235509052,0.13074328558498133
4.250159999999999,1.3208594730743197,0.1389147947695507
4.252504,1.3847169552101248,0.14699291158839922
4.254852,1.4456411710397348,0.155246141725903
4.2571840000000005,1.5056342213095664,0.1572231889981705
4.259528,1.5696314730722314,0.15859552360231582
4.261868,1.6336287248348966,0.15981006966070704
4.264208,1.6960431847317257,0.16110122797857268
4.266548,1.758178105374834,0.1623274265287281
4.2688880000000005,1.8256677019511351,0.16282778120876057
4.271248,1.8925056722213784,0.16336757933090199
4.273579999999999,1.963767152865036,0.16347345418155565
4.275919999999999,2.032142589030742,0.1636026948035374
4.278264,2.102427578144247,0.1634899652093099
4.280607999999999,2.170850236138196,0.16345928502425233
4.282947999999999,2.2429050085726403,0.16321445708538315
4.285292,2.311235118767972,0.16324539325286477
4.287635999999999,2.3806361641499425,0.16322610969224266
4.289975999999999,2.4539016413978865,0.16297522799460085
4.29232,2.5311713201386636,0.16255392117064074
4.294663999999999,2.6095119340660795,0.16208712341812126
4.297015999999999,2.6901341879936327,0.16149081513641889
4.299351999999999,2.771967146734684,0.16089424248587986
4.3017,2.8591547814089293,0.16002001656976889
4.304043999999999,2.9509056960834483,0.15891634445809366
4.306388,3.044146854825187,0.15776251752845097
4.308728,3.1380868617012263,0.15652693451361982
4.311071999999999,3.22499685297962,0.15549664876925692
4.313424,3.3140033886609164,0.15424463563191912
4.315759999999999,3.403616224677897,0.15291354344050764
4.3181080000000005,3.486897893231533,0.15170967913439432
4.320452,3.5584011705900136,0.15078220403170964
4.322796,3.62930004347068,0.14977967156810645
4.3251360000000005,3.6909344825818065,0.1489904314218727
4.32748,3.754665466095836,0.147989669635721
4.32982,3.8079213110268264,0.1472773988275207
4.332156,3.854566449240752,0.14667855304811672
4.334503999999999,3.896742751110889,0.14613071270099098
4.336848,3.93486952551782,0.14558674678322267
4.339188,3.9635920965283487,0.14524630921613865
4.341531999999999,3.9895683926877856,0.14491200175681293
4.343876,4.010004917316796,0.14465605911413595
4.346223999999999,4.023039339295823,0.1445265874451523
4.348559999999999,4.031325385677342,0.14446237227525058
4.350908,4.0359339916479895,0.14442155378590152
4.353256,4.03593399164799,0.14442155378590152
4.355592,4.034118882356677,0.14439353517677506
4.3579360000000005,4.038869153812055,0.14414043326407103
4.360275999999999,4.037752892655042,0.1440462118386445
4.36262,4.029047537392942,0.14413512720154542
4.364967999999999,4.023834526944479,0.14409440503187515
4.367308,4.026629919481684,0.14383162909070568
4.369655999999999,4.027051124220134,0.14359387291006828
4.372,4.033199091944113,0.14321501974071074
4.37434,4.02840539037623,0.14313430067404875
4.376688,4.023611688808348,0.14305400597465132
4.379023999999999,4.022310332054102,0.14283946442154566
4.381384000000001,4.021428284180436,0.14258441969620655
4.383723999999999,4.019615070746991,0.1423510745538773
4.386072,4.022225367686962,0.14196057061093606
4.388404,4.02139054164154,0.14163003311758943
4.390748,4.01911269335714,0.14130054050667654
4.393103999999999,4.014972513953185,0.1410133574346017
4.395436,4.009109773056534,0.1407579849527542
4.397779999999999,3.9963095643608533,0.14070592616996147
4.400119999999999,3.9835093556651717,0.14065207998479637
4.40246,3.967915650290156,0.14066602667134967
4.404795999999999,3.946874721183331,0.14079687921206088
4.407136,3.924390769837529,0.14093517879166362
4.409488,3.9043282281187257,0.140973467234754
4.411828,3.8794700889741693,0.14113907582857751
4.414172000000001,3.8516786835234185,0.14137616785874277
4.416511999999999,3.8226765732591685,0.14166665318632193
4.418851999999999,3.7900895703826665,0.1420305692004163
4.421187999999999,3.767652840865108,0.1420853190417288
4.423532,3.7504310176538826,0.14196749717370918
4.425879999999999,3.7322780288828783,0.1418694061766002
4.428224,3.709189673059262,0.14191677713736095
4.430564,3.6870324827954235,0.14193909537828933
4.432907999999999,3.662873191785169,0.14201511425194852
4.43526,3.6445804333873046,0.14192269650842873
4.437595999999999,3.6329456035347487,0.1416574380866059
4.43994,3.626106371107945,0.14126666503550536
4.44228,3.618335973121362,0.14089597276572388
4.444623999999999,3.6176428125606686,0.14030911538922242
4.446968,3.6149475512535587,0.13977937502629637
4.449311999999999,3.6170478873722005,0.1391260830345768
4.45166,3.6177977490504833,0.1385309776180177
4.453996,3.6210615681543805,0.1378930176964618
4.456348,3.6248372439374754,0.13727613674564051
4.458688,3.6324773515865436,0.13655207577150583
4.461031999999999,3.6373239625562777,0.13589202562938307
4.463376,3.6443124438992873,0.13515437307257241
4.465719999999999,3.652371860428937,0.13437457966144897
4.468064,3.65693893214495,0.13374612726849613
4.4704,3.659364133487686,0.13319680453318763
4.472752,3.6632323570693974,0.13264814710373718
4.475099999999999,3.6737585091964178,0.1319267922162777
4.47744,3.6852158268832165,0.13118888437347667
4.479784,3.6981161668089917,0.13045317503426965
4.482124000000001,3.7035199604282965,0.12996886537657887
4.484468,3.7006358118082137,0.12974417824996268
4.486808,3.6974721239344106,0.12954888527431885
4.48916,3.693889127180027,0.12939575910776246
4.491503999999999,3.686813785612007,0.12937870050541364
4.493848,3.6814610055366837,0.12933354498338664
4.496192000000001,3.6710330887818885,0.12943736124936445
4.49854,3.6652609998259846,0.12943500338201874
4.500876,3.6624221771762753,0.12935388695166575
4.503216,3.6583726497130677,0.12932244118674163
4.505559999999999,3.6526931085557806,0.12938300908843692
4.5079080000000005,3.652460791130304,0.12933252842523205
4.510244,3.6535317263169422,0.12929792666261938
4.512587999999999,3.6551145181827787,0.12928535571679217
4.5149360000000005,3.6577682452352533,0.1292385808586606
4.51728,3.658140332287591,0.12927481795677626
4.519624,3.65772102340701,0.1293171721082499
4.521967999999999,3.6568824056458493,0.12940079134219107
4.524316000000001,3.653901917511411,0.12955167640772186
4.526652,3.647848393443917,0.12979132344343658
4.528995999999999,3.6440765093765606,0.12995334955980392
4.531343999999999,3.646450697175314,0.12993367816002802
4.533683999999999,3.6469625538545123,0.12995584083100048
4.536023999999999,3.650407676839905,0.12990039139875714
4.538368,3.656925835758354,0.12975361490842421
4.540711999999999,3.6643751602365806,0.1295867088491567
4.543051999999999,3.672755650274585,0.12939601032266643
4.545396,3.678342643633255,0.12926956667596107
4.547736,3.678714730685592,0.129306088422198
4.55008,3.681088918484346,0.12928621446445962
4.55242,3.684813580723459,0.12920243078679425
4.5547640000000005,3.684394271842879,0.12924524143115823
4.5571,3.6834631062831007,0.129265660813945
4.559436,3.6833233366562403,0.1292797564157386
4.561780000000001,3.6831835670293804,0.12929374523839549
4.564124,3.685837294081855,0.12924702201410143
4.566464,3.6892824170672482,0.12919456031431345
4.568808000000001,3.6914242874405256,0.12912710985744275
4.571152,3.69556825856022,0.12900629130070795
4.573492,3.7059980711728846,0.12870022071613132
4.575832,3.7224341860247994,0.12824110911648173
4.578172,3.7388703008767146,0.12779274496453796
4.580515999999999,3.7574482861019067,0.1272813180067685
4.582856,3.7750951057673205,0.1267907284194158
4.5852,3.791670990246096,0.12633869747805052
4.587543999999999,3.8074554787919537,0.12589420844467653
4.589884,3.8243109025244504,0.1254170195831576
4.592228,3.8411663262569458,0.12493592035622195
4.594576,3.860303389989579,0.12437221468937193
4.596919999999999,3.8797199929759336,0.12378802838763941
4.599264,3.898205430402509,0.1232262380607319
4.601608000000001,3.918181111896304,0.12259030836686786
4.603952,3.9389481893230167,0.12195967221220863
4.606292,3.960925971563228,0.12129231331209588
4.608628,3.9816930489899405,0.1206714317169712
4.610975999999999,4.003810600857012,0.12000225025275499
4.61332,4.027278627164442,0.11928783393427046
4.61566,4.0496757182852345,0.11860562360766892
4.618003999999999,4.072492118286608,0.1178950577792611
4.620348,4.087579654556033,0.1173455001004756
4.622691999999999,4.0989425285863454,0.11687086933607871
4.625028,4.108443071497102,0.11643246830092108
4.6273800000000005,4.117152218474939,0.11600066422616476
4.629728,4.1254892784004396,0.1155354213953481
4.632068,4.130520984967408,0.11509297695957268
4.634411999999999,4.1370429356015945,0.11458964825182663
4.636756,4.14491536067614,0.11403827346448578
4.639096,4.156419900191182,0.1133747818434413
4.641439999999999,4.169554453400303,0.11264281031466238
4.643784,4.182177149930227,0.11189560752652801
4.646132,4.193496593848034,0.11112819730364884
4.648467999999999,4.204443950713505,0.11032961210163686
4.650812,4.209012918287387,0.10961129273046766
4.653164,4.20855397101004,0.10892628164089135
4.655495999999999,4.207071310374298,0.1081946646345135
4.657836,4.205216562686219,0.1074354578496731
4.66018,4.197914591266329,0.10674144321588994
4.662528,4.192614720592856,0.10600982325142269
4.664864,4.184102044359468,0.1053511557396445
4.6672080000000005,4.181735439992192,0.104565885529645
4.669560000000001,4.177226965251637,0.10382729180018442
4.671896,4.16885405864511,0.10314661773774632
4.674232,4.1614123175983595,0.10245446710303943
4.676575999999999,4.156903842857806,0.10171500683186446
4.678924,4.153046994423309,0.10097948985073793
4.681267999999999,4.1442547789362,0.10032641015021301
4.683612,4.132389527516035,0.09973253599023923
4.685967999999999,4.114238434602901,0.09926814427997374
4.688316,4.092734766502989,0.09888367169907383
4.690659999999999,4.071742955082276,0.09851960468953662
4.693004,4.0524737051542585,0.09813939067425906
4.695344,4.031294902278443,0.09785032512652961
4.697676,4.015051466455239,0.09747570914521042
4.70002,4.001042448803929,0.09710982573078823
4.7023600000000005,3.988476453391595,0.09675379907891614
4.704708,3.971626717232706,0.09648881476960808
4.707051999999999,3.959153269618989,0.09618776113119398
4.709396,3.9416046853258,0.09597888713563117
4.711739999999999,3.924987266592389,0.09575750319643725
4.714084,3.906088207858841,0.0955920588009864
4.716431999999999,3.8893310194985697,0.09537799854415684
4.718776,3.8762984933774116,0.0951172856062161
4.721119999999999,3.861263866509837,0.09488968932051157
4.723459999999999,3.8427368948286262,0.09475403734607431
4.725804,3.827422728707331,0.09454680491799057
4.728152,3.8192783478105414,0.09427578891921218
4.730492,3.812856528406449,0.09399397111669815
4.73284,3.812161471987886,0.0936338430440502
4.735184,3.8110471066887426,0.09330722543394081
4.737536,3.8039264391503487,0.09308184719445517
4.739876000000001,3.7971778586642926,0.09289455282260203
4.74222,3.7956441844845683,0.09260381944721115
4.74456,3.7924804966107653,0.09238481461113397
4.746896,3.7933210102297954,0.09209991902704917
4.749243999999999,3.7952324590354642,0.09179389719990821
4.751588,3.7987266997069695,0.0914884491519931
4.753931999999999,3.798076969258781,0.09126069295286249
4.756276,3.8052958721693995,0.09091246801341435
4.7586200000000005,3.8145168758264347,0.09053225169543101
4.760959999999999,3.8215960091101935,0.09019600906381468
4.763296,3.82918699907315,0.08988819116798788
4.765639999999999,3.836917758662966,0.08956924155549058
4.767987999999999,3.8463710797454786,0.08924335246458012
4.77032,3.857966271201269,0.08887390076360321
4.772663999999999,3.869793780082536,0.08855985081920473
4.775012,3.8757547563514123,0.08832996545732989
4.777348,3.883717833366706,0.08807140196744745
4.779688,3.891680910381999,0.08781733752114647
4.782031999999999,3.905510520009683,0.08748675311260078
4.7843800000000005,3.928139928555952,0.08703769739630139
4.786716,3.947556531542306,0.08664795121138844
4.789059999999999,3.964831264155383,0.08630770596732566
4.7914080000000006,3.988391838261431,0.08586382766218285
4.793752,4.005526801247647,0.08554152526430024
4.796096,4.021962916099563,0.08527894928107646
4.798436000000001,4.042915089123509,0.08498714862423057
4.80078,4.069594025132987,0.08463153224695849
4.80312,4.0918494507690495,0.08437206700962975
4.805464000000001,4.114476963457449,0.08415187515168172
4.807812,4.143343095810577,0.08389742262180085
4.810148,4.172860854469763,0.08365846932479591
4.812492000000001,4.205544196860622,0.08343516605882134
4.814836,4.239670561490456,0.08323185757483945
4.817176,4.273889473918906,0.08308653262144222
4.819512,4.310110487093775,0.08291978320570788
4.821856,4.352989428813952,0.08269060278699834
4.8242080000000005,4.397031853519384,0.08250474256930723
4.826556,4.440235660463655,0.0823833373661662
4.828899999999999,4.482228762594428,0.08229613623363577
4.831244,4.523802555844619,0.08224638771274914
4.833592,4.573384752080479,0.08210279726697674
4.835932,4.624409970555312,0.08197806948474293
4.8382760000000005,4.67138376570907,0.08196634008536335
4.840615999999999,4.727297129408274,0.08185651497751881
4.842972,4.785352363480755,0.08171586676378675
4.845312,4.842616201620318,0.08157834514507371
4.847656000000001,4.902813306066076,0.08142289171156533
4.85,4.9650125112582515,0.08124421926816329
4.852335999999999,5.030424522010341,0.08102609219348195
4.854684000000001,5.093462344963678,0.08080584508387469
4.857028,5.158781807917151,0.0805525484020229
4.8593720000000005,5.222518479004789,0.08029794640140532
4.861711999999999,5.286674458973006,0.08002285823378603
4.864056,5.352600222262163,0.07969363454813219
4.866391999999999,5.414661553685347,0.07939935543776966
4.868732,5.470996122123002,0.07915015081280889
4.871079999999999,5.52602743794854,0.07888211867640085
4.8734280000000005,5.581897371535238,0.07856603651382137
4.875772,5.633902873255964,0.0782791802143591
4.878116,5.684325583110854,0.07799223502829745
4.880459999999999,5.730092465166852,0.07773892980159597
4.8828,5.773345389797235,0.0774856768777061
4.885135999999999,5.814643435509446,0.07719735414070719
4.887484000000001,5.850214718236126,0.07695244763087747
4.889835999999999,5.884063439470109,0.0767127456950382
4.892175999999999,5.911254232158783,0.07651394038836945
4.894515999999999,5.931926865929008,0.07635203392618058
4.896868,5.95008554227362,0.07618916103828609
4.899212,5.958932563020449,0.07607383627367438
4.901552000000001,5.963263525595246,0.07597422540669004
4.903896,5.962147264438233,0.07589503693846095
4.906243999999999,5.959587981042245,0.0758020085784729
4.908580000000001,5.94929983391431,0.07576055787485596
4.910924,5.934355858987484,0.0757409814110173
4.91328,5.916897926635041,0.07571972586757848
4.915623999999999,5.900930238349819,0.07566256843821405
4.917968,5.8783046215192885,0.0756448941953381
4.920311999999999,5.851814572822784,0.07565213125298542
4.922663999999999,5.8270943074472195,0.07560757272791176
4.924999999999999,5.795716113526346,0.07560255612602909
4.927344,5.7598218614334415,0.07561176195148947
4.929696,5.719271781541646,0.07564559445037117
4.932036,5.681143111276846,0.07563513962773248
4.934379999999999,5.641571418773072,0.07560882538345064
4.936724,5.597483668097265,0.07559626823762884
4.939067999999999,5.55954198928757,0.07552401470070227
4.941407999999999,5.514802612305706,0.07550233526381889
4.9437560000000005,5.468340673831145,0.07548120816151037
4.9461,5.42467223203592,0.07544697148209124
4.948444,5.382866121360251,0.07540186413208858
4.950787999999999,5.344133046617637,0.07532257733594745
4.953132,5.298462504075995,0.0753014514245773
4.955484,5.255073601534491,0.07524721763450483
