Time,Force,Position
9.571811999999998,0.26080352391610284,0.0
9.574199999999998,0.26764844391651466,0.0
9.576584,0.27407405503634585,0.0
9.578979999999998,0.2784975654097602,0.0
9.581367999999998,0.274121276864589,0.0
9.583748,0.26988475794627803,0.0
9.586144,0.2617838071619936,0.0
9.588532,0.25568495712412603,0.0
9.590916,0.24837540227275967,0.0
9.593311999999996,0.24199701298117166,0.0
9.5957,0.23147465256988975,0.0
9.59808,0.21443413324015956,0.0
9.600476,0.2003268802166245,0.0
9.602864,0.19129476387256172,0.0
9.605244,0.18426474827491582,0.0
9.607647999999998,0.1748133230502724,0.0
9.610036,0.16242863151943376,0.0
9.61242,0.15004393998859517,0.0
9.614819999999998,0.14231507625664824,0.0
9.617207999999998,0.13602923476367726,0.0
9.619588,0.12573919177787257,0.0
9.621983999999998,0.11703194065790411,0.0
9.624371999999996,0.10753329360501754,0.0
9.626756,0.09789487692527074,0.0
9.629151999999998,0.09104995692485894,0.0
9.631539999999998,0.0826724074235015,0.0
9.63392,0.07615718904170068,0.0
9.636316,0.067639869913483,0.0
9.638704,0.061124651531682186,0.0
9.641084,0.053678267590103045,0.0
9.64348,0.04823398439494076,0.0
9.645868,0.04651436343889175,0.0
9.648252,0.04386357692306443,0.0
9.650648,0.04014185522059858,0.0
9.65304,0.034418032771715866,0.0
9.65542,0.030044684763192112,0.0
9.657816,0.027673437501085207,0.0
9.660204,0.02799830272517954,0.0
9.662584,0.022833558783737672,0.0
9.664984,0.016086022976459582,0.0
9.667368,0.011340587915598346,0.0
9.669767999999998,0.006874692108457531,0.0
9.672164,0.004410897047733568,0.0
9.674551999999998,0.0030180371736481353,0.0
9.676932,0.002696112486201233,0.0
9.679327999999998,0.0027384979199277146,0.0
9.681715999999998,0.005853919286709578,0.0
9.6841,0.010040275840129972,0.0
9.686495999999998,0.014226632393550365,0.0
9.688883999999998,0.02041508969338761,0.0
9.691268,0.023530511060169474,0.0
9.693668,0.023572896493895955,0.0
9.696056,0.02357289649389596,0.0
9.698435999999996,0.02357289649389596,0.0
9.700836,0.02357289649389596,0.0
9.703224,0.02357289649389596,0.0
9.705607999999998,0.02357289649389596,0.0
9.708008,0.02087678400769472,0.0
9.710396,0.02087678400769472,0.0
9.71278,0.02087678400769472,0.0
9.715176,0.02105893906828141,0.0
9.717568,0.021380863755728317,0.0
9.719948,0.02384465881645228,0.0
9.722352,0.027519158690674984,0.0
9.724736,0.03240436337839643,0.0
9.72712,0.04018044893858657,0.0
9.729516,0.043672793752222584,0.0
9.7319,0.050238174498913976,0.0
9.734279999999998,0.05680355524560537,0.0
9.736684,0.05950450412632327,0.0
9.739072,0.06634942412673508,0.0
9.741452,0.07920064636639745,0.0
9.743855999999996,0.0922340236666465,0.0
9.746244,0.10233413466070039,0.0
9.748624,0.11429657677431092,0.0
9.751027999999998,0.12639878851478167,0.0
9.753415999999998,0.13850100025525242,0.0
9.755796,0.14860111124930628,0.0
9.758191999999998,0.16228611485561326,0.0
9.76058,0.17811298883519727,0.0
9.76296,0.19161583738091753,0.0
9.765356,0.2019058803667222,0.0
9.767744,0.21205615372566666,0.0
9.770124,0.22271828376380878,0.0
9.772527999999998,0.23296110492137034,0.0
9.774915999999996,0.24027065977273668,0.0
9.777296,0.24706835794490536,0.0
9.779692,0.2455781138776862,0.0
9.782076,0.2452985746239658,0.0
9.78446,0.25074579835577554,0.0
9.786856,0.25633279171444545,0.0
9.78924,0.25712418764736356,0.0
9.791619999999998,0.2576360443265613,0.0
9.79402,0.26215210249859267,0.0
9.796408,0.26187256324487224,0.0
9.798787999999998,0.26266395917779034,0.0
9.801184,0.26238441992406997,0.0
9.803572,0.26210488067034954,0.0
9.805951999999998,0.25838021843123615,0.0
9.808348,0.2520943769382652,0.0
9.810736,0.2500922761918484,0.0
9.813119999999998,0.25274600324432306,0.0
9.815516,0.2508364502965233,0.0
9.817899999999998,0.246505487721726,0.0
9.820296,0.2414756770126277,0.0
9.822692,0.23746957966192478,0.0
9.82508,0.24007418902828714,0.0
9.82746,0.24891741805937728,0.0
9.829856,0.2574338860085039,0.0
9.83224,0.2629698658231922,0.0
9.834623999999998,0.26710814936927835,0.0
9.83702,0.27599480851287317,0.0
9.839408,0.28576541138800327,0.0
9.841787999999998,0.2972113539275865,0.0
9.844183999999998,0.31126380169140144,0.0
9.846571999999998,0.3225680787462553,0.0
9.848968,0.3346165299057841,0.0
9.851364,0.3546261622227372,0.0
9.853748,0.3743090334577267,0.0
9.856127999999998,0.39771656693182944,0.0
9.858532,0.41772430339091327,0.0
9.86092,0.4394546013426935,0.0
9.8633,0.46518910078730746,0.0
9.865696,0.49120313948564187,0.0
9.868088,0.5200578966915543,0.0
9.870468,0.5497512716586281,0.0
9.872864,0.5745565014013329,0.0
9.875256,0.5932628811061701,0.0
9.877636,0.6110853170794721,0.0
9.880032,0.6241593774552654,0.0
9.88242,0.6375601989130225,0.0
9.884804,0.6479352062659673,0.0
9.8872,0.6577058091410973,0.0
9.889588,0.6637989716053572,0.0
9.891968,0.6725005351517177,0.0
9.894372,0.6818083990337626,0.0
9.89676,0.6974493262370215,0.0
9.89914,0.7060602378426344,0.0
9.90154,0.7159290760899892,0.0
9.903924,0.7194195250457558,0.0
9.906308,0.7263097710165416,0.0
9.908704,0.7298946636287947,0.0
9.911092,0.7320365340020718,0.0
9.913476,0.7356686484425682,0.0
9.915872,0.7372986621366475,0.0
9.91826,0.7350642439647533,0.0
9.920644,0.7339007609794977,0.0
9.923047999999998,0.7426080120994661,0.008048298672307492
9.925432,0.7502443280327962,0.016278721083230176
9.927816,0.7646783421382948,0.024104932757186164
9.930219999999998,0.7820456225499886,0.03151950589539704
9.932607999999998,0.8007633774020412,0.03873740040364679
9.934988,0.8234853337469277,0.045487534902814576
9.937383999999998,0.8451363549051757,0.05243759380417995
9.939771999999998,0.8646455056901464,0.05933797137305999
9.942152,0.8882986275948112,0.0658780069290311
9.944547999999998,0.9031519505808904,0.07263087322781
9.946936,0.9202869135671069,0.0792153189238809
9.949316,0.9374218765533234,0.08568453810017901
9.951715999999998,0.9587008106592338,0.09204280672757816
9.954103999999996,0.9779776440187273,0.09835618250154005
9.956484,0.9941814414451653,0.1049637955622981
9.95888,1.0083831381251867,0.11176980454760047
9.961268,1.022584834805208,0.11845020394341826
9.963648,1.0350639699925328,0.12515595389176706
9.966051999999998,1.0507559107397733,0.13169029001575322
9.968439999999998,1.0643059811137368,0.13834630553970823
9.97082,1.0701271877557532,0.13710847914444904
9.973219999999998,1.079021430330825,0.13548459846846622
9.975604,1.0839114714130633,0.1343902549267577
9.977984,1.0855887069353858,0.13375837607414579
9.980387999999998,1.0860552376442094,0.133323175851495
9.982775999999998,1.0805154661137826,0.1335181761179533
9.985156,1.0811217664494668,0.13305426584023802
9.987552,1.0814485275314303,0.1326882243953441
9.98994,1.0785624830534786,0.13268252496335914
9.992324,1.076607604135305,0.13261097173240602
9.994719999999996,1.0703689844705768,0.13305747974801765
9.997108,1.0604057025667357,0.13383878931914373
9.999488,1.0495112551031163,0.13467291391198785
10.001891999999998,1.0384770380126367,0.13555193135826923
10.004279999999998,1.0335888927882677,0.1357595120256717
10.00666,1.0308426179371761,0.13571551014290495
10.009055999999998,1.0242319112201108,0.13605516133944318
10.011444,1.0182728308091034,0.13642656859600538
10.013828,1.0100321103979586,0.1371226501080049
10.016223999999998,1.0008602244270355,0.13796320632759823
10.018611999999996,0.9943420655085873,0.1386048834973393
10.020992,0.9847508706570836,0.13962092351502586
10.023391999999998,0.977301546178857,0.14034120482956777
10.025776,0.9690608257677125,0.1411178866509358
10.02816,0.9617512709163462,0.1417873418121262
10.030563999999998,0.9561642775576762,0.14235590951462107
10.032951999999998,0.9464333130793126,0.14338346335909194
10.035336,0.9368421182278089,0.14436282970322678
10.037727999999998,0.9281820889360837,0.1452377622100613
10.040115999999998,0.9231069522566113,0.14582653529538028
10.042496,0.9220360170699727,0.14597167562979102
10.044892,0.9242704352418669,0.14591715706211184
10.047283999999998,0.924362983040484,0.1461690873306072
10.049664,0.9215222645329058,0.14680402982869376
10.052067999999998,0.912675243786077,0.148253921690064
10.054455999999998,0.905690554158805,0.1494366805946531
10.056839999999998,0.9061551890097594,0.14982008522613877
10.059236,0.9067595934875742,0.1501463832450695
10.061623999999998,0.9084349331520274,0.15031942083292557
10.064007999999998,0.9121123735628974,0.15022630431321893
10.066404,0.9162091228543482,0.14997016504617453
10.068791999999998,0.9245896128923532,0.14913027757914707
10.071172,0.932970102930358,0.1483341436563127
10.073567999999998,0.9401398881548642,0.14768945452877966
10.075959999999998,0.9433054718865368,0.14752641749182988
10.07834,0.9446087244986526,0.14755922244094494
10.080735999999998,0.9439098763643516,0.14787285569115383
10.083123999999998,0.9413486971104938,0.14842654163041313
10.085508,0.9367854171102195,0.14928235858912323
10.087903999999998,0.9306393452441087,0.15020782748902528
10.090291999999998,0.92384164707194,0.1510896335284881
10.092672,0.9185341929669905,0.15157981588752523
10.095067999999998,0.9192330411012914,0.1512911251929023
10.097455999999998,0.9257984218479829,0.15030290954279402
10.099836,0.9352970689008694,0.14887694402148488
10.102239999999998,0.9447957159537559,0.14756320494362227
10.104627999999998,0.9488471392748328,0.1468160106032865
10.107008,0.9530383322227699,0.14601796621293855
10.109412,0.9560188203572082,0.14540106220453708
10.1118,0.9589993084916465,0.14478415819613563
10.114179999999998,0.9587669910661691,0.14459714795596673
10.116575999999998,0.9533197673343594,0.14506498241779192
10.118963999999998,0.9469413780427713,0.1456013601140802
10.121344,0.945777895057516,0.14550186686280678
10.123739999999998,0.9507604839383712,0.144694515233427
10.126127999999998,0.9606784398718382,0.14337893176782912
10.128508,0.9715275613650838,0.14189465616411678
10.130903999999996,0.9851701795376642,0.14010445170017397
10.133292,0.9989525673371048,0.13818242622526067
10.135687999999998,1.0127349551365457,0.136282720201586
10.138084,1.0250270988687673,0.13468448396793056
10.140467999999998,1.035317141854572,0.13340950381070887
10.142848,1.0396008826011258,0.13285928185008694
10.145243999999998,1.0410911266683451,0.13257499572099518
10.147631999999998,1.0447232411088412,0.13205093503929627
10.150012,1.0452823196162822,0.13185243727915322
10.152407999999998,1.0457016284968628,0.13170070440095608
10.154795999999996,1.0439790670041664,0.1318044103558944
10.157176,1.0437467495786892,0.1316220743853147
10.159579999999998,1.0425832665934336,0.1315188233148196
10.161967999999998,1.0424907187948165,0.13127523933845214
10.164348,1.043469106182838,0.13087545093405673
10.166747999999998,1.0412346880109438,0.13093234935416548
10.169131999999998,1.0340649027864377,0.13157789835486455
10.171516,1.0200974193897627,0.12509613757440471
10.173911999999998,1.0024052737539746,0.11886521362276653
10.176299999999998,0.9868549984914637,0.11252215350814909
10.178696,0.9693026224825358,0.10624496956471163
10.181092,0.9537523472200249,0.0999019094500942
10.18348,0.9399246334502103,0.101162210330241
10.185859999999998,0.9294494948671715,0.10190902674504337
10.188256,0.9159013203510774,0.0954978143634829
10.190644,0.9052864121411783,0.09638158212898301
10.193023999999998,0.8933210294909204,0.08982674818985321
10.19542,0.8790740068405252,0.08351168880333049
10.197807999999998,0.8672483938171273,0.08456833823320538
10.200188,0.8543518456070911,0.07806381022789656
10.202588,0.8474615996363055,0.0785611737061675
10.204975999999998,0.8424336847850764,0.07884674222842848
10.207356,0.8394078706802642,0.07890581861279714
10.209751999999998,0.839315322881647,0.07866130503567935
10.212135999999996,0.8409453365757263,0.0783067384104501
10.214536,0.8467193213894997,0.07742589386356527
10.216932,0.8562179684423862,0.07619201589160092
10.21932,0.8743766447869981,0.08201678026972892
10.221699999999998,0.8922557818778896,0.08794341104119353
10.224096,0.9110660845285593,0.09371324802568944
10.226488,0.9329494231122845,0.09933673874833451
10.228872,0.9548327616960096,0.10487033949052417
10.231268,0.9717807332271227,0.10308402656550114
10.233652,0.98537612957146,0.10179101587973066
10.236036,1.0037671233415493,0.1075930370656363
10.238432,1.0221581171116383,0.10585276401944521
10.240816,1.0420393549489466,0.11151786476818287
10.243195999999998,1.0631312975997536,0.11709213943905401
10.245596,1.0805911258100644,0.11540498202596577
10.247979999999998,1.1019153858863489,0.12110240411206914
10.25036,1.118164509283161,0.11968702692177387
10.252764,1.130269661560279,0.11874194740629301
10.255152,1.1431662097703155,0.11783307007666548
10.257535999999998,1.1560627579803517,0.11700035109708921
10.259932,1.1721721117503037,0.1159284200475393
10.26232,1.1852084295872003,0.11511201847515698
10.264699999999998,1.1965221859314004,0.11439809402060686
10.267096,1.199967308916793,0.11427075172858223
10.269484,1.2075564030218797,0.1138181277057378
10.271864,1.2091391948877157,0.11379719627404468
10.274264,1.2071370941412989,0.11394354253589555
10.276652,1.2039242885813835,0.11422317928496983
10.279048,1.2037845189545233,0.11426657979173792
10.281444,1.2069973245144388,0.11397660093345038
10.283832,1.2086273382085182,0.11371542840114861
10.286212,1.2074638552232626,0.11360740239607815
10.288608,1.2050896674245082,0.11363562314096803
10.290996,1.2007133788793367,0.11380883593693694
10.293376,1.20062083108072,0.1136051182397866
10.295776,1.19680362104299,0.1136109489339856
10.29816,1.1929864110052597,0.1136233097617672
10.300544,1.1921024672737246,0.11342609297696657
10.302948,1.189495962049493,0.1132958465575827
10.305336,1.183956190519066,0.11336601489281523
10.30772,1.1717584904433307,0.11382931484271684
10.310116,1.1637047614872893,0.11395591026486118
10.312504,1.1553714932775276,0.11416693952722202
10.314884,1.1468984554409056,0.11446794791718033
10.317284,1.1322793457381728,0.11530121622549194
10.319672,1.1236665382746907,0.11566628036788436
10.322052,1.118359084169741,0.11592786948712437
10.324452,1.1091871981988184,0.11652810861317045
10.32684,1.101086247414534,0.11700108620907675
10.32922,1.0917745918167507,0.117592515655404
10.331619999999996,1.0829747928981652,0.11824764778225351
10.334008,1.0723126628600228,0.1190983868886067
10.336388,1.0643042598743557,0.1197956678093766
10.338784,1.058297957635105,0.12031399367148905
10.341172,1.0481476842761603,0.12123659256882462
10.343556,1.042932777969828,0.12172932056897562
10.345952,1.0409306772234113,0.12189429786356407
10.34834,1.038788806850134,0.1221009100851265
10.350724,1.0372985627829148,0.1223378259759487
10.35312,1.03245574352892,0.12297733529221974
10.355507999999997,1.0301268817005396,0.12353881708827713
10.357884,1.0253766102451616,0.12441237530350224
10.360287999999995,1.0219768132301428,0.12506461771288369
10.362672,1.0255144840141526,0.12512953676624328
10.365052,1.032264960358078,0.12483981005650006
10.367455999999995,1.0368735663287265,0.12478918989072615
10.369843999999995,1.03868867562004,0.12493043974824553
10.372224,1.0477207919641027,0.12437381098268073
10.374616,1.0587550090545825,0.12370273123858982
10.377004,1.0679268950255056,0.12315291181835519
10.379396,1.0783094858099274,0.12248346903020915
10.381799999999998,1.0990746673787708,0.12118503028034198
10.384187999999998,1.1193279922684167,0.11988059971945077
10.386567999999995,1.138510381971424,0.11870095824400444
10.388963999999998,1.1599744116745683,0.11723164462477022
10.391347999999995,1.1762235350713803,0.11623132336299245
10.393728,1.1883286873484986,0.11557469001917273
10.396131999999998,1.1997822133195588,0.11489523757861371
10.398515999999995,1.2116550481711996,0.11411701217147113
10.400899999999996,1.232886760448867,0.11260206630682869
10.403295999999996,1.2521163719801172,0.11117018547160976
10.405683999999995,1.2726964579517264,0.10956700587180929
10.408064,1.2929970046696153,0.1081068709272176
10.410467999999998,1.3106438243350296,0.10686226337857524
10.412855999999998,1.32987343586628,0.10563512660540941
10.415235999999997,1.3503137522110293,0.10430167238092022
10.41764,1.3748980396754722,0.10271677182860825
10.420023999999998,1.3973404567666383,0.10139301189971309
10.422403999999997,1.4157786723649708,0.10033602729401245
10.424808,1.4331459527766646,0.09931144267290622
10.427191999999998,1.4432962261356088,0.09870098171009448
10.429571999999997,1.4447864702028281,0.09852494538486586
10.431976,1.4427843694564113,0.09863443305003529
10.434364,1.4375694631500788,0.09897793702176014
10.436743999999996,1.4320750175900256,0.0993942991959897
10.439148,1.4297933775898886,0.09958524422632645
10.441532,1.431515939082585,0.09954119478310192
10.443911999999996,1.4321675653886428,0.09957442133091082
10.446319999999996,1.429606386134785,0.09984215389215989
10.448704,1.4199679694550382,0.10051850661150584
10.451083999999998,1.4167551638951226,0.10073596664189402
10.453484,1.4115402575887903,0.10106159433108368
10.455868,1.402321149789624,0.10162573227401625
10.458247999999998,1.3898892364305424,0.10242212563631672
10.460643999999998,1.3760143008324845,0.10316531480448363
10.463027999999998,1.364141465980844,0.10375538627280488
10.465407999999996,1.3491955951961478,0.1044875776371149
10.467812,1.3328992499710925,0.10535113984876705
10.470199999999998,1.3153921999325389,0.106359664342511
10.472579999999995,1.3020291210136785,0.1071157983493818
10.474975999999998,1.2980249195208449,0.10732387383243312
10.477363999999998,1.2930895524682327,0.10758494740345349
10.479743999999997,1.2927174654158953,0.10747917306207429
10.482139999999998,1.2977000542967507,0.10699779680971468
10.484527999999996,1.3060352183643815,0.10628138697803288
10.486908,1.3154413176186512,0.10552452294376222
10.489311999999998,1.3239162513131422,0.10482817861438228
10.491699999999998,1.3342535161271902,0.10406541901702021
10.494079999999997,1.3445907809412379,0.10326548370653087
10.496475999999998,1.355998980941924,0.10236403223821514
10.498863999999998,1.3609815698227794,0.10191146032061504
10.501244,1.370759756129386,0.10127022052155878
10.503647999999998,1.3857528487423256,0.10030944876296453
10.506031999999998,1.4047501428480984,0.09913500214806155
10.508415999999997,1.4245388328867898,0.09798982055660321
10.51082,1.439252386246009,0.09713463367455354
10.513208,1.4568992059114234,0.09618045227050769
10.515587999999996,1.4731030033378614,0.09516637427417403
10.517992,1.4913089015107164,0.09401127872215542
10.52038,1.5073729293102944,0.09302620826675731
10.522759999999998,1.5205036908036775,0.09223330436288622
10.525163999999997,1.5427137904693662,0.09105679514194714
10.527548,1.5625024805080572,0.09009477576317894
10.529927999999998,1.5821514009198885,0.08921263147158558
10.532324,1.597516580585165,0.08857068767087625
10.534712,1.606595918757471,0.08820792590427923
10.537091999999998,1.61367315618336,0.08792443371972013
10.539496,1.6168859617432756,0.08776189165959829
10.541884,1.6251739039826634,0.08739234410370601
10.544259999999998,1.6374660477148852,0.08688105613876222
10.54666,1.6509688962606053,0.08626462269620974
10.549048,1.6568826507012389,0.08587744201056732
10.551427999999998,1.660514765141735,0.08563246898393184
10.553824,1.6592115125296192,0.08556230504735547
10.556207999999998,1.656837324730865,0.08554441068822419
10.558587999999997,1.657536172865166,0.08539797415341588
10.560987999999998,1.65050615726752,0.08550086094380357
10.563371999999998,1.6461298687223485,0.08556151968691492
10.565767999999998,1.6432438242443965,0.08547787385165707
10.568164,1.6414287149530828,0.08534166699009048
10.570548,1.6333277641687984,0.08549991438096895
10.572931999999998,1.6161474752122083,0.08600420909980448
10.575328,1.6003176606959768,0.08638766777608273
10.577711999999998,1.5806234143137718,0.08688942599285547
10.580095999999998,1.5612087071852876,0.08734299119529071
10.5825,1.5460777408033572,0.0876051162893551
10.584888,1.5300156088616483,0.08790550346735068
10.587267999999998,1.5210307143458288,0.08789757684435644
10.589664,1.506970683150537,0.08809878328607255
10.592052,1.487835515275773,0.0885055795033889
10.594435999999998,1.4727045488938426,0.0887408280103968
