Time,Force,Position
9.949208,0.17990636285965975,0.0
9.951588,0.18633197397949094,0.0
9.953988,0.19704132584587625,0.0
9.956372,0.20309484991336993,0.0
9.958756,0.20686673398072636,0.0
9.961152,0.20756558211502737,0.0
9.96354,0.20398068950277434,0.0
9.965936,0.19625182577082734,0.0
9.968332,0.1895938972255189,0.0
9.97072,0.1803913805265512,0.0
9.9731,0.17266251679460423,0.0
9.975496,0.16453093528227508,0.0
9.977884,0.1554681882101676,0.0
9.980264,0.14440334039164332,0.0
9.98266,0.13212778775962025,0.0
9.985048,0.12064363106051529,0.0
9.987432,0.11009063992118866,0.0
9.989828,0.09874625284894391,0.0
9.992216,0.08726209614983896,0.0
9.994596,0.0756381698238738,0.0
9.996992,0.06615611387118568,0.0
9.99938,0.054671957172080725,0.0
10.001764,0.04104593009969871,0.0
10.00416,0.02928223414687333,0.0
10.006548,0.019520638940464807,0.0
10.008932,0.010829978920694814,0.0
10.011328,0.005352124460840414,0.0
10.013716,0.0029473059340413953,0.0
10.016112,0.00040271778038216695,0.0
10.018512,0.00040271778038216695,0.0
10.0209,0.0,0.0
10.02328,0.0,0.0
10.02568,0.0,0.0
10.028064,0.0,0.0
10.030448,0.0,0.0
10.032844,0.0,0.0
10.035232,0.0,0.0
10.037616,0.0,0.0
10.040016,0.0,0.0
10.0424,0.0,0.0
10.04478,0.0,0.0
10.047172,0.0,0.0
10.04956,0.0,0.0
10.051936,0.0,0.0
10.05434,0.0,0.0
10.056728,0.0,0.0
10.059108,0.0,0.0
10.061512,0.0019855096462183873,0.0
10.0639,0.003971019292436774,0.0
10.06628,0.007027464125293692,0.0
10.068676,0.01222577933142767,0.0
10.071064,0.01742409453756165,0.0
10.073444,0.022622409743695632,0.0
10.075848,0.028891660136468142,0.0
10.078236,0.03623184571587918,0.0
10.080616,0.04278063536237211,0.0
10.08302,0.049329425008865044,0.0
10.085404,0.05480727946871944,0.0
10.087784,0.0584228028090172,0.0
10.09018,0.06017599502975832,0.0
10.092568,0.06017599502975832,0.0
10.094948,0.0607184824370007,0.0
10.097344,0.06126096984424308,0.0
10.099732,0.06126096984424308,0.0
10.102128,0.06126096984424308,0.0
10.104524,0.06126096984424308,0.0
10.106912,0.061260969844243084,0.0
10.109292,0.059275460198024696,0.0
10.1117,0.05728995055180631,0.0
10.114088,0.05423350571894939,0.0
10.116468,0.049035190512815414,0.0
10.118864,0.043836875306681435,0.0
10.121248,0.04104337862734647,0.0
10.123628,0.03932081713465004,0.0
10.126032,0.0374584860150934,0.0
10.12842,0.03452521970889822,0.0
10.1308,0.03252311896248137,0.0
10.133196,0.031591953402703044,0.0
10.135584,0.03452521970889823,0.0
10.137964,0.03838965157487172,0.0
10.140364,0.04521798047508506,0.0
10.142748,0.04936195159477898,0.0
10.145128,0.05751012420730659,0.0
10.147536,0.06727171941371511,0.0
10.14992,0.07689354499326342,0.0
10.152304,0.08530466575931299,0.0
10.154708,0.09371578652536257,0.0
10.157096,0.10091620247791339,0.0
10.159476,0.10904778399024255,0.0
10.161872,0.1170395958757115,0.0
10.16426,0.12074766701462633,0.0
10.16664,0.12524713408645927,0.0
10.169044,0.12585153856427397,0.0
10.171428,0.12310336785531292,0.0
10.173808,0.11762551339545853,0.0
10.176212,0.11403872492533623,0.0
10.1786,0.10949203602526016,0.0
10.18098,0.10494534712518407,0.0
10.183376,0.09839655747869115,0.0
10.185764,0.09277893339197653,0.0
10.188144,0.08595060449176319,0.0
10.19054,0.0840372598282249,0.0
10.192928,0.07821226147046999,0.0
10.195308,0.07313143721739002,0.0
10.197708,0.07214736225576081,0.0
10.200096,0.07819330289177756,0.0
10.202476,0.0839124824458307,0.0
10.20488,0.09573051203775147,0.0
10.207268,0.1120173779734605,0.0
10.209644,0.13091074913340112,0.0
10.212044,0.15948786294346246,0.0
10.214428,0.18866938123133853,0.0
10.216808,0.22045740474344616,0.0
10.219208,0.2596475309055372,0.009008705150385602
10.221592,0.3066878034683677,0.017601459710156704
10.223972,0.3548156023180352,0.02655993099006413
10.22638,0.4091635338743629,0.03510949508161762
10.228764,0.46835238882681635,0.04357031863498664
10.231148,0.5305198360558387,0.05213518421440051
10.233548,0.5930121485089556,0.06102775880491724
10.235936,0.6611840021193593,0.06955914854299661
10.238316,0.7291892470905967,0.0780956875437363
10.24072,0.7995686798605884,0.08667663755829644
10.243108,0.8688771774439417,0.09541639282366321
10.245484,0.9351126390942393,0.10427236385893926
10.247888,0.9959008770127276,0.11320505211728017
10.250272,1.0592502941850732,0.12205480776481203
10.252652,1.1200857539318043,0.13078952932121302
10.25506,1.1743105069614703,0.13967378190243068
10.257444,1.2256492155131842,0.14867118868211543
10.259824,1.2714481525344712,0.15770658358747117
10.262228,1.3197157210109989,0.16640404151084234
10.264616,1.3740840353832637,0.17447701762896883
10.266996,1.4201190815457667,0.17372793565378225
10.269392,1.4613132043121437,0.17326804650741492
10.27178,1.5036727059216457,0.17223014208428758
10.27416,1.5411912841350222,0.17145321654237913
10.276556,1.5733570822730747,0.17072802608518722
10.278944,1.6036152233211973,0.16981483324532562
10.281324,1.6338280383989456,0.1685139956223567
10.283724,1.6563592115729904,0.16771151759448993
10.286112,1.677494584336302,0.16678919732657227
10.288492,1.6943008903826855,0.1659303403622172
10.290888,1.7105027919512545,0.16488176581593753
10.293276,1.7258207497882883,0.16371697549974853
10.29566,1.7378333542667894,0.16267682555712853
10.298064,1.7484029365063145,0.16169343611594425
10.300448,1.7545962302006683,0.1609760676651187
10.302832,1.7617206894548005,0.16017514381970413
10.305228,1.7703353927761518,0.15916741565567313
10.307612,1.7809521968439201,0.1580042996448513
10.309992,1.7834208282991608,0.157553756378591
10.312388,1.7726661504624015,0.1582539189147047
10.314776,1.7632619470660014,0.15880610173799986
10.317156,1.7526470388561022,0.15948504232309021
10.319552,1.7397504906460661,0.16037628146480434
10.32194,1.7253636983688108,0.16145339856269117
10.324336,1.7125596979573916,0.16245354066843398
10.326732,1.6978933664264155,0.16357586070475227
10.32912,1.684158200455218,0.16460860214098294
10.3315,1.6737756096707965,0.165323140536531
10.333896,1.6616704573936785,0.1661143150863262
10.336284,1.6546404417960323,0.16649128381937414
10.338664,1.6478899654521069,0.1667970309738619
10.34106,1.640348093175263,0.1671316597938576
10.343448,1.63881252313767,0.167015496990457
10.345832,1.6367650964208793,0.16686049361110847
10.348228,1.6365800008236453,0.16658695676012067
10.350616,1.6408184155998258,0.1659331950403138
10.352996,1.6449170607491455,0.16532156246470367
10.355392,1.6491554755253255,0.16469805891077255
10.35778,1.662101141421474,0.16337457340221218
10.360176,1.6830552103032903,0.16141311277544115
10.362572,1.7037297399313858,0.1594818657961905
10.36496,1.724683808813202,0.1574964379894432
10.36734,1.7434960073217407,0.15565175919559643
10.369736,1.76244797545714,0.15376913075271187
10.372124,1.778326907659484,0.15211900104289774
10.374508,1.7922037391154113,0.15057355360021277
10.376904,1.8059408009444782,0.14909977284385578
10.379288,1.8181876187063255,0.14783627647211217
10.381672,1.8317376890802888,0.14659219377294486
10.384068,1.8432856587078355,0.1455502369118578
10.386456,1.8532036146413025,0.144714619621733
10.388836,1.8639129665076877,0.14385012066610017
10.391232,1.8744825487472128,0.14306873033582643
10.39362,1.8847725917330176,0.14235235269087398
10.396016,1.8953421739725425,0.14157566364093363
10.398412,1.8996259147190968,0.1412603673006774
10.4008,1.9028387202790125,0.14102530211054018
10.40318,1.902326863599815,0.14098582507315563
10.405576,1.896180791733704,0.1413803667896126
10.407964,1.8872412231882583,0.1419071154492867
10.410344,1.8843079568820633,0.14206642913344683
10.41274,1.8809553816952878,0.14230820171583847
10.415128,1.8789532809488707,0.14242672000329692
10.417512,1.872155582776702,0.142818836524804
10.419908,1.8695018557242271,0.1429321094422213
10.422292,1.8725748916572824,0.14273221270034325
10.424672,1.873645826843921,0.14265614304061308
10.427072,1.8749963012842796,0.14252209509864164
10.42946,1.876486545351499,0.14236106064231757
10.431856,1.8746242142319425,0.14245465336757304
10.434252,1.875043523112523,0.1423679707718144
10.436636,1.876393997552882,0.14223530877967214
10.43902,1.8709467738210719,0.14248845130279716
10.441416,1.8673618812088186,0.14264416376817204
10.4438,1.8627060534099271,0.14287595497304778
10.446184,1.8603318656111727,0.14293106588632434
10.448584,1.8571662818795005,0.14300629803639628
10.450972,1.8525104540806088,0.1432615096221468
10.453352,1.8499964966549944,0.1433548630443676
10.455748,1.8499964966549947,0.1433548630443676
10.458136,1.8430590288559656,0.14378839292246418
10.460516,1.8361215610569368,0.14422483129961863
10.462912,1.8338399210567995,0.14440744030747038
10.465304,1.8414290151618866,0.14399915407309255
10.467684,1.845945073333918,0.1437952208456161
10.47008,1.8506009011328093,0.14357825028177756
10.472468,1.8532546281852842,0.14347074949873356
10.474852,1.853766484864482,0.14351048919879372
10.477248,1.8505536793045665,0.14373875840485353
10.479636,1.8505536793045665,0.14373875840485353
10.482032,1.8485515785581497,0.1438630488266853
10.484428,1.8457580818788146,0.1440037818243942
10.486816,1.8488311178118702,0.14380155991126822
10.4892,1.849390196319311,0.14368541243487887
10.491596,1.852742771506087,0.14343027534547123
10.493984,1.8570265122526408,0.1431328236335453
10.496364,1.8634521233724721,0.1426889704420256
10.498764,1.8772345111719126,0.14175986443342076
10.501152,1.8883631719188787,0.1409348594946803
10.503532,1.8960467096804516,0.140235455535457
10.505932,1.9069430530019402,0.13930822066340956
10.50832,1.9162566044575926,0.13840207034322075
10.5107,1.9238475944205486,0.137601067710907
10.5131,1.9243613469576157,0.13722163016537828
10.515484,1.9248750994946828,0.13683830918494608
10.517868,1.920034176098557,0.13680487300460853
10.520268,1.9201286197550433,0.13650396134654122
10.522652,1.925298200091002,0.13591179917316273
10.525036,1.9351236082258518,0.1351015652640163
10.527432,1.9409448148678685,0.13450960962765074
10.52982,1.9499788270698002,0.133714440065052
10.532204,1.9568709688984554,0.1330506585491126
10.5346,1.9576170388609997,0.1327549363851619
10.536988,1.9588749655027413,0.13249862806126136
10.539372,1.9582705610249265,0.13233308858827753
10.541768,1.955664055800695,0.13228297956277982
10.544156,1.951846845762965,0.13233044060591412
10.54654,1.9450963694190393,0.1325172448675034
10.548936,1.9419307856873669,0.13256982595510397
10.551324,1.9384856627019738,0.132680986855279
10.553704,1.9338298349030822,0.13288500277392118
10.556096,1.932898669343304,0.1329254643789055
10.558484,1.9281030719175523,0.13315252753458554
10.560876,1.92316770486494,0.13341852942508528
10.563272,1.9213053737453833,0.1335011802467947
10.565656,1.9190709555734893,0.13351864332891653
10.568036,1.9169763070284556,0.13350509813978703
10.570436,1.9119483921772262,0.1336363850873803
10.572824,1.906129081393079,0.1337741459673241
10.575204,1.9053849072884037,0.1336385946338075
10.577608,1.9042214243031486,0.13358280900292963
10.579992,1.907993308370505,0.1332922995273302
10.582372,1.9160489331844157,0.13273211497975376
10.584768,1.9243840972520465,0.1321188488871106
10.587152,1.9319278653867595,0.13151476541571094
10.589548,1.9385404679616938,0.13093728238665092
10.591948,1.9452928401634886,0.13033407343236061
10.594336,1.9488324068053677,0.12992904054636092
10.596716,1.9487870808349939,0.12965603226267972
10.59912,1.9547480571038707,0.12907322308407215
10.601504,1.962850903746024,0.12837207624837876
10.603884,1.971093520015038,0.1276687070419564
10.606288,1.9818500937096664,0.12690277406107356
10.608672,1.9999634440839045,0.12575393797852585
10.611052,2.0128618881518094,0.12487998310616112
10.613456,2.0306956992723277,0.1237780520035751
10.615844,2.042383438526734,0.12298203361941928
10.618224,2.0519293074078635,0.12230005245216899
10.620624,2.0585419099827984,0.12175132835549728
10.623008,2.0619417069978176,0.12139388654981431
10.625388,2.0604061369602245,0.12126821692210514
10.627784,2.05421473912374,0.12132255859097026
10.630172,2.0489545068470334,0.12133847925171551
10.632552,2.042763109010549,0.1213894540126999
10.634956,2.0384340422936207,0.12136850128346625
10.63734,2.041042443375722,0.12103236745158351
10.63972,2.0436508444578223,0.12069734173822487
10.642116,2.0484011159132005,0.12023920161104638
10.644504,2.055665344794193,0.11972565323565804
10.646884,2.0572028106896556,0.1194488593288328
10.649292,2.0538049095325057,0.11938858659349696
10.651676,2.04719420281544,0.11950173227068081
10.654056,2.0400716394191774,0.11957020738900347
10.65646,2.024800903410387,0.12001011867329946
10.658844,2.0135343688944296,0.1202823861273598
10.661224,1.9979840936319186,0.12078106524473606
10.66362,1.990581990981935,0.12089547061342751
10.666008,1.9874636290785057,0.12078231181051621
10.668388,1.990351569414327,0.12041102835897227
10.670784,1.9967318545637842,0.11983244629602961
10.673172,2.005393779713379,0.11910107360840025
10.675568,2.017920136728947,0.1182242073213358
10.677964,2.0336592993044302,0.11722530978840928
10.680352,2.0511210233726107,0.11619346349997117
10.682732,2.0699332218811497,0.11509633480575225
10.685128,2.0818079525906596,0.11428736921868923
10.687512,2.0924719784866714,0.11354647135111069
10.689892,2.1048585658753787,0.11278586210671253
10.692296,2.114731195838472,0.1120548674083587
10.694684,2.1283284880406788,0.11122087929963533
10.697064,2.14457950729536,0.11030959911605995
10.69946,2.160178900243984,0.10936098442331914
10.701848,2.1725654876326916,0.10855403489518545
10.704228,2.1870939453946763,0.10761684844979666
10.706624,2.2029728775970203,0.10660442985545206
10.709008,2.2240667161056966,0.10536467421399075
10.711404,2.241296122748399,0.10430489953236412
10.7138,2.2553127238311865,0.10340689905479682
10.716188,2.2613209219283066,0.10280893850119892
10.718568,2.265838875958207,0.10233794261767075
10.720972,2.2752921970407196,0.1017170889506258
10.72336,2.2815327125633167,0.10123532872982029
10.72574,2.281347616966083,0.10102290560576693
10.728136,2.281302290995709,0.10079111050626878
10.730524,2.277904389838559,0.10070836234124621
10.732904,2.278231150920523,0.10054075375625071
10.735308,2.283912587935679,0.10017019096674107
10.737692,2.288011233084999,0.09980415602977544
10.740076,2.2959743101002927,0.0993405382095886
10.742472,2.300072955249613,0.09897678748557472
10.744856,2.305661844466152,0.09851598989251002
10.747236,2.315906561481582,0.09796372722854947
10.749632,2.332157580736264,0.09723755656650857
10.75202,2.352273031856919,0.09642978584623822
10.754416,2.369035907790798,0.09576549045013891
10.756812,2.3813752733512623,0.09527972608096738
10.7592,2.3914329989115894,0.0948844698718261
10.76158,2.4032132859646134,0.09447176661867025
10.763976,2.418997774510471,0.09393415193717722
10.766364,2.4349220326831884,0.09338491394520254
10.768744,2.4406960174969616,0.09313389413918889
10.77114,2.4475409374973736,0.0928421358083652
10.773528,2.456527727871062,0.09246658415173062
10.775908,2.4644435830581126,0.09213332245184336
10.778316,2.4712885030585245,0.09183312985422737
10.7807,2.4734775952600447,0.09162886151861561
10.78308,2.4703120115283728,0.09162317681728965
10.78548,2.4667271189161197,0.09167770115193144
10.787868,2.4623508303709487,0.09172713910113087
10.790248,2.4619787433186113,0.0916658628731346
10.792644,2.459325016266136,0.09169828476797401
10.795032,2.455879893280744,0.09172577838922974
10.797412,2.449501503989156,0.09181790179445029
10.799808,2.437116812458317,0.09206114077071521
10.802192,2.4271535305544756,0.09219544917872574
10.804592,2.418680492717854,0.09223950756248422
10.806988,2.413280490814287,0.09219876304761566
10.809372,2.4092309633510793,0.09208556899987373
10.811756,2.405181435887872,0.09197189613206219
10.814152,2.399269577305107,0.09188793055449632
10.81654,2.4033682224544277,0.09155640327113818
10.81892,2.410028046857605,0.09110783350619464
10.821316,2.4169674105145034,0.09062371818809016
10.823704,2.422184212678705,0.09014705476361405
10.826088,2.43126544670888,0.08959113564113591
10.828484,2.4422090118586115,0.08899348325771361
10.830872,2.4554342170084813,0.08830894425917177
10.833252,2.4678680262254318,0.08761613959238955
10.835648,2.478951361002024,0.08700308099998269
10.838036,2.4858907246589226,0.086508651994361
10.840432,2.4948321890622376,0.0859660415555925
10.842828,2.4988382864129406,0.08553551743077109
10.845216,2.5027046141367832,0.08512442610154446
10.847596,2.511506308913238,0.08459858489463595
10.849992,2.518957529249334,0.08414940051424309
10.852384,2.527200145518348,0.0837091776858301
10.854764,2.5345115962275835,0.08328685817477424
10.85716,2.536096283951289,0.08296536595836396
10.859552,2.5375412020481343,0.08266278960678268
10.861928,2.5377754153314807,0.0824083677924737
10.864332,2.5362870671221307,0.08216850097118543
10.866716,2.530375208539366,0.08207070438962208
10.869096,2.523392414769963,0.08200256123671609
10.8715,2.5192031176798952,0.08189582689680991
10.873884,2.5134310287239914,0.08177739597673388
10.876264,2.508869644581586,0.08160977627045272
10.878668,2.501235224506125,0.08151389298829076
10.881052,2.494951278871023,0.08135014930612752
10.883428,2.488807102862781,0.08116793989961396
10.885824,2.4861552716681756,0.08085842555275134
10.888208,2.4805701741673754,0.08060138825633681
10.8906,2.478989278159409,0.08025860649827725
10.893004,2.4796900221515794,0.07984138575961373
10.895392,2.4768058735314966,0.07945187779373326
10.897768,2.476994760844469,0.07899834680487083
10.900176,2.4742503818512467,0.07859369548825451
10.90256,2.467641570992051,0.07824578555040165
10.90494,2.4630348608792714,0.07784973357324186
10.907344,2.457124898154376,0.07739884206860924
10.909728,2.4480493516978084,0.07690587038313465
10.912108,2.4328749552033737,0.07642489773766921
10.914508,2.414395205350406,0.07591800996148701
10.916896,2.390747771019349,0.07540463659577967
10.919272,2.3603498603443667,0.07486085276198769
10.921668,2.324784265191295,0.07429839807866293
10.924052,2.2860530863065507,0.0736634338219561
10.926448,2.2412230573839387,0.07302099022242772
10.928844,2.1889437039831,0.07244157562231
10.931232,2.1305655005443938,0.07184155170190294
10.933612,2.0664605341201576,0.07128792779762538
10.936008,2.003333955083943,0.07048225488663822
10.938392,1.934899921942779,0.0696229342574316
10.940772,1.856223067644053,0.06879961967102784
10.943164,1.7761031911063516,0.06779352306040685
10.945552,1.6829469967317532,0.06414601640707607
10.947948,1.5866252186254823,0.060479899234936095
10.950344,1.4897915838400144,0.05677484674749516
10.952728,1.3901644523752108,0.05308665842337131
10.955108,1.2876040546042125,0.049453309626720295
10.9575,1.1896994846321054,0.04581773577065892
10.959888,1.093610023951312,0.04225105509312147
10.96228,1.000546377375331,0.038685261788161264
10.964676,0.9153041423299138,0.035131846197229775
10.96706,0.8356016788149234,0.03163998036775481
10.969456,0.7597164253376634,0.02820364890399292
10.971848,0.6856462811517169,0.024876523767423303
10.974236,0.6215394188696115,0.021532948822125676
10.976612,0.5653937377449304,0.018181996489135856
10.979008,0.5138566625908978,0.014870119200785679
10.981392,0.4654851711685376,0.011596120975618917
10.983788,0.41585575310443545,0.008552333446524032
10.986184,0.3684607532122274,0.005609666787207332
10.988572,0.3231604018650531,0.0027054330656917174
10.990952,0.27945943348391367,0.0
10.993356,0.2457217470066153,0.0
10.995744,0.2175072409595453,0.0
10.99812,0.19660228976384164,0.0
11.00052,0.18621969897941992,0.0
11.002904,0.17793175674003212,0.0
11.005284,0.1681535704334251,0.0
11.007688,0.15823561449995796,0.0
11.010076,0.15059929856662801,0.0
11.012456,0.1401694859539631,0.0
11.01486,0.1289482774083801,0.0
11.017248,0.11893777367629582,0.0
11.019628,0.10815246511149192,0.0
11.022032,0.09536505580027116,0.0
11.024416,0.0816464809292721,0.0
11.026796,0.06927838049863197,0.0
11.0292,0.05798121525463038,0.0
11.031588,0.048825920383905846,0.0
11.033964,0.04153295663273796,0.0
11.036368,0.04010652549396041,0.0
11.038756,0.04010652549396042,0.0
11.041136,0.04010652549396042,0.0
11.04354,0.039611259914961186,0.0
11.045928,0.03604295840290658,0.0
11.048308,0.02632858502474121,0.0
