Time,Force,Position
15.45102,0.07452414271235908,0.0
15.453415999999995,0.07882350498081857,0.0
15.455803999999995,0.08298309762241787,0.0
15.458184,0.08807385582379548,0.0
15.460579999999997,0.09195390921167435,0.0
15.462967999999996,0.09190668738343119,0.0
15.465363999999996,0.09185946555518804,0.0
15.467764,0.08993429108548287,0.0
15.470152,0.08586724624250064,0.0
15.472531999999998,0.08287113658615694,0.0
15.474939999999997,0.07680199099675786,0.0
15.477327999999996,0.07073284540735877,0.0
15.479708,0.06666580056437654,0.0
15.482104,0.06339015165431244,0.0
15.484492,0.06011450274424833,0.0
15.486871999999998,0.05390558752798904,0.0
15.489275999999997,0.044623636378674364,0.0
15.49166,0.03576099410994031,0.0
15.494039999999998,0.02890045258762313,0.0
15.49644,0.023110846251944473,0.0
15.498824,0.01746100954312602,0.0
15.501207999999998,0.013224490624815045,0.0
15.503604,0.009064897983215758,0.0
15.505992,0.003974139781838147,0.0
15.508371999999998,9.40863939592789e-05,0.0
15.510768,7.84648720539031e-05,0.0
15.513156,6.28433501485273e-05,0.0
15.515535999999996,6.28433501485273e-05,0.0
15.517936,6.28433501485273e-05,0.0
15.520324,6.28433501485273e-05,0.0
15.522703999999996,6.28433501485273e-05,0.0
15.525104,6.28433501485273e-05,0.0
15.527487999999998,6.28433501485273e-05,0.0
15.529871999999996,6.28433501485273e-05,0.0
15.532267999999998,6.28433501485273e-05,0.0
15.534651999999998,6.28433501485273e-05,0.0
15.537035999999995,6.284335014852731e-05,0.0
15.539431999999998,6.284335014852731e-05,0.0
15.541819999999998,6.284335014852731e-05,0.0
15.544199999999996,6.284335014852731e-05,0.0
15.546595999999996,6.284335014852731e-05,0.0
15.548983999999995,0.0,0.0
15.551379999999998,0.0,0.0
15.553776,0.0,0.0
15.556164,0.0,0.0
15.558543999999998,0.0,0.0
15.560944,0.0,0.0
15.563332,0.0,0.0
15.565711999999998,0.0,0.0
15.568108,0.0,0.0
15.570496,0.0,0.0
15.572879999999998,0.0,0.0
15.575276,0.0,0.0
15.577664,0.0,0.0
15.580043999999996,0.0,0.0
15.582439999999998,0.0,0.0
15.584827999999998,0.0,0.0
15.587211999999996,0.0,0.0
15.589607999999998,0.0,0.0
15.591995999999998,0.0,0.0
15.594379999999996,0.0,0.0
15.596775999999998,0.0,0.0
15.599163999999998,0.0,0.0
15.601547999999998,0.0,0.0
15.603939999999998,0.0,0.0
15.606323999999995,0.0,0.0
15.608719999999998,0.0,0.0
15.611116,0.0,0.0
15.613504,0.0,0.0
15.615883999999998,0.0,0.0
15.618284,0.0,0.0
15.620667999999998,0.0,0.0
15.623047999999995,0.0,0.0
15.625443999999998,0.0,0.0
15.627831999999998,0.0,0.0
15.630215999999995,0.0,0.0
15.632611999999998,0.0,0.0
15.634999999999998,0.0,0.0
15.637396,0.0,0.0
15.639791999999996,0.0,0.0
15.642176,0.0,0.0
15.644559999999998,0.0,0.0
15.646956,0.0,0.0
15.64934,0.0,0.0
15.651719999999996,0.0,0.0
15.654124,0.0,0.0
15.656512,0.0,0.0
15.658891999999998,0.0,0.0
15.661288,0.0,0.0
15.663676,0.0,0.0
15.666055999999998,0.0,0.0
15.66846,0.0,0.0
15.670848,0.0008542392830666375,0.0
15.673227999999998,0.0008542392830666374,0.0
15.675631999999997,0.0008542392830666374,0.0
15.678016,0.0008542392830666375,0.0
15.6804,0.0008542392830666375,0.0
15.682796,0.0008542392830666375,0.0
15.685184,0.0008542392830666375,0.0
15.687563999999998,0.0008542392830666375,0.0
15.689967999999997,0.0008542392830666375,0.0
15.692355999999997,0.0008542392830666375,0.0
15.694736,0.0008542392830666375,0.0
15.697131999999996,0.0008542392830666375,0.0
15.69952,0.0008542392830666375,0.0
15.701899999999998,0.0008542392830666375,0.0
15.704299999999996,0.0008542392830666375,0.0
15.706688,0.0008542392830666376,0.0
15.709067999999998,0.0008542392830666376,0.0
15.711464,0.0008542392830666376,0.0
15.713852,0.0008542392830666376,0.0
15.716231999999998,0.0008542392830666376,0.0
15.718632,0.0,0.0
15.72102,0.0,0.0
15.723399999999998,0.0,0.0
15.7258,0.0,0.0
15.728188,0.0,0.0
15.73058,0.0,0.0
15.732983999999998,0.0,0.0
15.735367999999998,0.0,0.0
15.737747999999996,0.0,0.0
15.740151999999998,0.0,0.0
15.742539999999998,0.0,0.0
15.744915999999996,0.0,0.0
15.747311999999996,0.0,0.0
15.749695999999997,0.0,0.0
15.752076,0.0,0.0
15.754472,0.0,0.0
15.75686,0.0,0.0
15.759244,0.0,0.0
15.761639999999996,0.007459258426524213,0.0
15.764024,0.02208640621968532,0.0
15.766407999999998,0.044952378566121866,0.0
15.768804,0.07750019770480984,0.0
15.771192,0.12173196438216613,0.009583132567422487
15.773587999999997,0.18030140565066544,0.018244892840613605
15.775983999999998,0.24999571595039216,0.026698627499137404
15.778371999999996,0.32988372972156804,0.035070433734150114
15.780752,0.4247610443899449,0.04305857022762156
15.783155999999998,0.5268987962235757,0.05120964512996374
15.785539999999996,0.637367920409099,0.059426386906577366
15.78792,0.7552372513867366,0.06774599880379661
15.790319999999998,0.8837195947164038,0.07595826136481706
15.792707999999998,1.0218837848383224,0.08411812829468156
15.795088,1.166656785819437,0.0923820347657542
15.797483999999995,1.323533043219801,0.10045395317303049
15.799871999999995,1.4882760381211027,0.10846584549714655
15.802252,1.6613050794039226,0.11637427402991501
15.804647999999997,1.8373127129633118,0.12432879935145132
15.807035999999997,2.019791283612906,0.132164689133779
15.809416,2.194391286955396,0.14004678240963545
15.811812,2.364756667237444,0.14783087151551208
15.8142,2.525532748525857,0.15568795777695857
15.816595999999995,2.6746248822756016,0.16361646786433742
15.818991999999998,2.8131040036733173,0.16191824292472767
15.821375999999995,2.932449853054137,0.1613007730958324
15.823759999999996,3.039088041537894,0.16091882842861846
15.826155999999996,3.135672296177063,0.1606027365921285
15.828539999999997,3.2156844580531936,0.1606981443339337
15.830924,3.2916489883239857,0.16049362481634488
15.833327999999998,3.3612842469893027,0.1601504110701925
15.835715999999998,3.4264525651687,0.15960541359137628
15.838095999999997,3.4808681013692078,0.1591830491699995
15.840491999999998,3.5265329563372427,0.15878576857337331
15.842879999999996,3.5674513315656387,0.15823064656730296
15.84526,3.5975697029869003,0.15787422025432787
15.847655999999995,3.6234062295194773,0.15748852092800888
15.850043999999995,3.6451932285888473,0.1571240668689481
15.852424,3.666096283926682,0.156710674610141
15.854827999999998,3.6798295540400106,0.1564863195185367
15.857215999999998,3.6959370119520925,0.1562262144924745
15.859596,3.7121370176627924,0.15603634288906248
15.861999999999998,3.7340637863590223,0.15568273970595475
15.864383999999998,3.758364742854006,0.15528818674740114
15.866767999999997,3.7831775560281877,0.15491776226835507
15.869163999999998,3.8183729599867915,0.15425382055937084
15.871547999999995,3.8565941780502078,0.15355744847075536
15.873931999999996,3.894396087233042,0.15290272262174015
15.876327999999996,3.9362947457073285,0.15218100697498746
15.878715999999995,3.9736301241813394,0.15165585702102444
15.881096,4.006402222655076,0.15131217811879225
15.883491999999997,4.040105486688592,0.15096648417808073
15.885879999999997,4.074739916281885,0.1505965996524116
15.888275999999998,4.109746432927516,0.1502614783364025
15.890672,4.143542244759648,0.14998385140701884
15.893055999999998,4.176034803979665,0.1496995168483362
15.895435999999997,4.204662931333708,0.1495295476224966
15.897835999999998,4.230777101262136,0.1494116103041186
15.900219999999996,4.255727788205308,0.1492754116317321
15.902603999999997,4.284170819962118,0.1490065526553594
15.904999999999998,4.314663174293586,0.14862277438910032
15.907387999999996,4.341058779333605,0.14829852325904214
15.909768,4.362938326201592,0.14807698652793552
15.912167999999998,4.38537695157702,0.14780506277086122
15.914555999999996,4.4050220802731115,0.14759653014432225
15.916936,4.418940445983674,0.14753415618586255
15.919331999999995,4.432207185388179,0.14746859382136435
15.921719999999995,4.446544859979322,0.14736939778486466
15.924115999999998,4.45822880751799,0.14732130747547634
15.926512,4.471914855803075,0.14721750097978226
15.9289,4.490303953715294,0.1469420126871033
15.931279999999996,4.501615814201625,0.1468627556431887
15.93368,4.511716969874457,0.14682846296843918
15.936063999999998,4.52251697368159,0.14673433284350212
15.938443999999995,4.535458847862,0.14657719445959486
15.940843999999998,4.552265153908385,0.14633166290831878
15.943227999999998,4.570282164768266,0.1460422726988787
15.945607999999996,4.586436844508593,0.145794501344125
15.948003999999996,4.602451754622059,0.14556052154411142
15.950391999999995,4.614742002496411,0.14540755735573482
15.952775999999997,4.62302804887793,0.1453590588981737
15.955171999999996,4.635597836006002,0.14518917004895976
15.957559999999996,4.6503094935073515,0.1449599861796846
15.959955999999998,4.6653006902624234,0.1447107628957679
15.962352,4.682573527017631,0.1443890430916869
15.964735999999998,4.697332406347223,0.14409718115518486
15.967119999999998,4.7107880330647,0.14379784331633566
15.969516,4.7246629686627575,0.14346668139566351
15.971904,4.7370948820218395,0.14313664814437901
15.974287999999998,4.749574017209165,0.14274719166488029
15.976684,4.761401526090432,0.14235957103471866
15.979067999999998,4.777932084598834,0.14181599380284984
15.981451999999996,4.795441030495256,0.14119295589639028
15.983847999999998,4.810296249339205,0.14061721734245075
15.986235999999998,4.818912848518425,0.14014614449982032
15.988615999999997,4.821011288779198,0.13980392555877524
15.991024,4.818453901241079,0.13955105618785169
15.993412,4.813662095531066,0.13930651405202146
15.995791999999998,4.807706806835797,0.13904130871339565
15.998188,4.803101992580887,0.13872282054100749
16.000576,4.794912285713722,0.1384654979869064
16.002955999999998,4.779924880674391,0.13836092266382077
16.005352,4.7605611870898885,0.13832513300642857
16.00774,4.739335162385828,0.13832444328056426
16.010119999999997,4.713732849136597,0.13839400501586693
16.012515999999998,4.690132636633784,0.13841685413109986
16.014903999999998,4.667603359317609,0.13840603712339622
16.0173,4.642699894202679,0.1384127458731527
16.019696,4.61793619871461,0.13840858420463298
16.022084,4.591030632853263,0.13846221875286477
16.024468,4.561191800685722,0.13857951942449614
16.026864,4.528419702211985,0.13875976881931504
16.029252,4.495507834111388,0.13894546479036546
16.031632,4.461013174144954,0.13914573248134982
16.034031999999996,4.430382946044494,0.13926242292045432
16.036416,4.398961322011116,0.13939416620510026
16.0388,4.369821337977876,0.13945765480043998
16.041196,4.343335080997111,0.13947530178281456
16.043584,4.316429515135764,0.13952853040870722
16.045963999999998,4.285519747781583,0.1396873096985547
16.04836,4.259824886733736,0.13969741476718514
16.050748,4.236132126432305,0.13965981847956804
16.053127999999997,4.216303797996848,0.13952699207693955
16.055524,4.193542203255196,0.13946942677462687
16.057911999999998,4.174365501125795,0.13934333667906068
16.060295999999997,4.156399503809895,0.13916859661995767
16.062692,4.137222801680495,0.13903725037156067
16.06508,4.118418186603432,0.1389357808699609
16.067476,4.098402866712871,0.13888227450380242
16.069871999999997,4.079970338688146,0.13881289600302538
16.072259999999996,4.0611185017828415,0.13878450006468881
16.07464,4.043709687116513,0.13875380940664517
16.077039999999997,4.026161102823323,0.13873353408220845
16.079427999999997,4.007773900768973,0.13879776088650467
16.081812,3.9900383250206803,0.13886390641367455
16.084207999999997,3.9757478722577804,0.13887453836108646
16.086595999999997,3.9678358087864685,0.1387476054861008
16.088976,3.962717241994492,0.13855820767004776
16.091372,3.957598675202515,0.13836825481505374
16.09376,3.9580671017692084,0.1380538097971001
16.09614,3.9558345794551832,0.13786007417896176
16.098536,3.9541139138203563,0.13768448347709908
16.100924,3.9507632344914496,0.13759596106907154
16.103303999999998,3.954210253334712,0.13733714254427573
16.1057,3.9573777329242534,0.13710517672125389
16.108088,3.9598463643794934,0.13693973867885817
16.110471999999998,3.9608247517675146,0.13684658989459705
16.112872,3.964456866208011,0.1367056526035937
16.11526,3.9726050388205385,0.13647500937956
16.117644,3.981824146619705,0.13621279148639442
16.12004,3.9959786214714823,0.13582507281710068
16.122428,4.010133096323261,0.1354373541478069
16.124812,4.026801528600653,0.13502206193306088
16.127208,4.048545097557519,0.1344645897975289
16.129599999999996,4.069357500954605,0.13393119035476075
16.13198,4.093103170657887,0.1333333977792955
16.134379999999997,4.108980207002362,0.1329352606999349
16.136767999999996,4.117780005920947,0.13272267921468844
16.139152,4.126300265585812,0.13253418356145227
16.141551999999997,4.134680755623816,0.13236211335336995
16.143939999999997,4.1450633464082385,0.13213856633303922
16.14632,4.159589908312355,0.13180319862349696
16.148715999999997,4.17397670058961,0.13147891223132632
16.151103999999997,4.188875349546063,0.13118483203188452
16.153484,4.203634228875655,0.13090271687775643
16.155879999999996,4.223468244884721,0.13050012312614293
16.158268,4.248517167200119,0.12995975207692345
16.160648,4.269841427276403,0.12949159085141823
16.163051999999997,4.29037429141977,0.12903544676929182
16.165439999999997,4.308345976309278,0.12867517058187086
16.167824,4.322173690079093,0.12842508143996278
16.170219999999997,4.335070238289129,0.12819147418580518
16.172604,4.341029318700136,0.12811626036677187
16.174988,4.3479195646709226,0.12802615914656332
16.177383999999996,4.357323768067324,0.12791012100370608
16.179768,4.363794705157528,0.127858475993546
16.182152,4.3781342756065404,0.1276391832294264
16.184548,4.4024843497876365,0.12719815443775292
16.186932,4.432840726207984,0.12663217690284725
16.189331999999997,4.461474541135635,0.1260925706823507
16.191723999999997,4.491039521623064,0.12554335039362982
16.194111999999997,4.518462631737215,0.1250586101321961
16.196496,4.5481673818515045,0.1245118131654513
16.198891999999997,4.571353973047346,0.12407558835436261
16.201279999999997,4.600826405736157,0.12350556280364787
16.20366,4.622430205066161,0.12309273985813317
16.206055999999997,4.637748162903196,0.12282333677269829
16.208443999999997,4.659863818912398,0.12243375604681145
16.210824,4.68090853973496,0.1220716969578956
16.213223999999997,4.7053058357443005,0.12162263305646752
16.215608,4.731705232500057,0.12113275054134094
16.217992,4.761177665188869,0.12058081821650653
16.220387999999996,4.7980068745572915,0.11985869554553213
16.222776,4.834044687992795,0.11915597725865891
16.225171999999997,4.864775047323349,0.11851762676917962
16.227567999999998,4.894714010720984,0.11788152154501108
16.229955999999998,4.917715506319591,0.11738317670695328
16.232335999999997,4.928704397439697,0.11711646277540086
16.234735999999998,4.934897691134051,0.11693325126724367
16.237123999999998,4.940020049641766,0.11677381078581414
16.239507999999997,4.9415575155372276,0.11665832530834294
16.241903999999998,4.943514290313271,0.11651226911143603
16.244291999999998,4.943096877290559,0.11637550329868301
16.246671999999997,4.9457525002009035,0.11617717370455499
16.249071999999998,4.941610424939078,0.11609288957886572
16.251459999999998,4.9398897593042514,0.11594063685529152
16.253839999999997,4.941940977736781,0.1156749784642511
16.256235999999998,4.935471936504446,0.11553846823333924
16.258619999999997,4.930353369712469,0.11535773551140353
16.261003999999996,4.921510140681379,0.11522857330303406
16.263408,4.911084119784452,0.11510420618045215
16.265791999999998,4.898655998141109,0.11501489998966895
16.268171999999996,4.8823634446317925,0.11498434632753829
16.270567999999997,4.862066689629642,0.11502340769925926
16.272955999999997,4.8456343664934645,0.1150021307941627
16.275336,4.831343913730564,0.11493434277496742
16.277739999999998,4.8196146402215225,0.11479029393323127
16.280127999999998,4.816313078578728,0.11447348436190646
16.282507999999996,4.8082159195101815,0.1142284421732895
16.284912,4.800258530068496,0.1139723297987403
16.287295999999998,4.793372075813449,0.11369161952494163
16.289675999999996,4.781270715252069,0.1135171889733584
16.292075999999998,4.76875004581011,0.1133734015849416
16.294463999999998,4.758091707487706,0.11320288677402282
16.296843999999997,4.746222664351803,0.11306594330495906
16.299239999999998,4.736867578641514,0.11291072767410022
16.301627999999997,4.729235054423923,0.11273989107253912
16.304008,4.725466962072306,0.11250708323569938
16.306403999999997,4.720627934534049,0.11229748381123256
16.308791999999997,4.718861942928848,0.11202923603277344
16.311187999999998,4.720168987256703,0.11170419838478034
16.313584,4.723617901957835,0.11133621765389776
16.315972,4.725995881472328,0.11098887672026386
16.318351999999997,4.7338683065468725,0.11052152475308472
16.320748,4.744953537181334,0.10999645871771502
16.323135999999998,4.756830163748713,0.10947578331068984
16.325515999999997,4.767356315875734,0.10899727858392423
16.327911999999998,4.774949201696559,0.10856559450821045
16.330299999999998,4.789619324943273,0.10801400542710424
16.332683999999997,4.8064313185632646,0.10742205971172553
16.335079999999998,4.8251056433028126,0.1068101796524111
16.337467999999998,4.848855104721833,0.10610817712904669
16.339847999999996,4.872604566140853,0.1054037802932569
16.342243999999997,4.8924895956939,0.10475601678469416
16.344635999999998,4.912514394873806,0.10409183184724279
16.347012,4.93016500625496,0.10343530565536146
16.349415999999998,4.94381141614328,0.10284504559253566
16.351803999999998,4.959320157151154,0.10223790208300758
16.354187999999997,4.975760063718808,0.10162356483260548
16.356583999999998,4.991920431032741,0.10103413219954623
16.358967999999997,5.002865892040343,0.10053695613746647
16.361351999999997,5.00994692118197,0.10009259899402681
16.363747999999998,5.018098885510236,0.0996258167567722
16.366135999999997,5.02075640427845,0.09927178711072278
16.368532,5.014055045620635,0.09907743492767436
16.370928,5.0034892550968495,0.09893281632162129
16.373316,4.993994399759701,0.09876776868815897
16.375695999999998,4.985942566661529,0.09861191137744339
16.378096,4.97560909356322,0.09850455501475275
16.380484,4.96513585083805,0.09840603045672966
16.382863999999998,4.953871212179963,0.09830640667336282
16.38526,4.942746343148736,0.09819620811084173
16.387648,4.932832178931007,0.09805690142251948
16.390027999999997,4.926130820273195,0.09786059412457675
16.392424,4.924644367921714,0.09758103753896655
16.394811999999998,4.921667671503014,0.09734743632113717
16.397191999999997,4.9219037806442305,0.0970579866504283
16.399592,4.921208724225667,0.0967792778473372
16.40198,4.917440631874049,0.09654543958637969
16.404359999999997,4.91502301396279,0.09627593439397741
16.406764,4.91954286385056,0.09591950652460995
16.409152,4.929509937470139,0.09552408304764731
16.411531999999998,4.942410277395914,0.09509690860943786
16.413928,4.954239682135049,0.09468219060230891
16.416316,4.972215158740297,0.09417421634530172
16.418695999999997,4.9932636712786005,0.09362226458222556
16.421091999999998,5.0151035797498205,0.09307427843838033
16.423479999999998,5.037362797101622,0.09250259053371393
16.425863999999997,5.058690848893645,0.0919389935148658
16.428268,5.079227504752748,0.09137843825755859
16.430652,5.10148672210455,0.09081636117748407
16.433031999999997,5.1228147738965735,0.09026694938414366
16.435432,5.145865387181293,0.08971643987424083
16.437815999999998,5.168496691585431,0.08919871270529739
16.440199999999997,5.188566816735712,0.08874853264688144
16.442595999999998,5.213572308938604,0.08824559551084
16.444983999999998,5.23573708263392,0.08782072853085748
16.447376,5.2580416259560945,0.08739154256990203
16.449775999999996,5.28635247151752,0.08689668572685767
16.45216,5.312381677078808,0.08644776006248517
16.454544,5.336548551520539,0.08602223322467667
16.45694,5.354197267043822,0.08564526554545428
16.459324,5.370495508126747,0.08530425584985402
16.461707999999998,5.391868885889144,0.08490444263836097
16.464104,5.411240162905123,0.08452749572094652
16.466492,5.428190030294106,0.08419847726956554
16.468871999999998,5.448352703243003,0.08383089834423942
16.471268,5.467164901751542,0.08349686754333945
16.473656,5.490912467312694,0.08311962707707198
16.476052,5.512238623246848,0.0827872162549384
