Time,Force,Position
16.603503999999997,0.03834496833485579,0.0
16.605891999999997,0.04411895314862908,0.0
16.608272,0.050684333895320476,0.0
16.610667999999997,0.05352505240289858,0.0
16.613055999999997,0.059019497962951445,0.0
16.615436,0.06637627464256095,0.0
16.617832,0.07559538244172709,0.0
16.62022,0.08988962692036546,0.0
16.6226,0.1024613099063074,0.0
16.624996,0.11568461919830726,0.0
16.627384,0.13037627481572248,0.0
16.629763999999998,0.1410384048538646,0.0
16.63216,0.15330865084428236,0.0
16.634548,0.162899845695786,0.0
16.636931999999998,0.17370174536078836,0.0
16.639328,0.182387098738953,0.0
16.641716,0.19107245211711765,0.0
16.644095999999998,0.196938984729508,0.0
16.646496,0.20080341659548157,0.0
16.64888,0.20080341659548154,0.0
16.651263999999998,0.20066364696862135,0.0
16.65366,0.19703153252812514,0.0
16.656048,0.1924682525278506,0.0
16.658427999999997,0.190698469206911,0.0
16.660823999999998,0.185855649952916,0.0
16.663211999999998,0.17821933401958606,0.0
16.665592,0.17058301808625614,0.0
16.667991999999998,0.16108437103336953,0.0
16.670379999999998,0.15545015584645647,0.0
16.67276,0.14995571028640362,0.0
16.675155999999998,0.1452526606592689,0.0
16.677543999999997,0.14311079028599183,0.0
16.679927999999997,0.14325055991285204,0.0
16.682323999999998,0.14511289103240868,0.0
16.684711999999998,0.1468354525251051,0.0
16.687092,0.1547040858839123,0.0
16.689487999999997,0.16164155368294114,0.0
16.691875999999997,0.1679273951759121,0.0
16.694256,0.178357207788577,0.0
16.696672,0.18585375409504673,0.0
16.699056,0.18934609890868273,0.0
16.701439999999998,0.19833288928237158,0.0
16.703836,0.21160342040261462,0.0
16.706224,0.22180091558980222,0.0
16.708603999999998,0.22827374853787655,0.0
16.711,0.23646914297864732,0.0
16.713388,0.24359360223277957,0.0
16.715771999999998,0.24522361592685893,0.0
16.718168,0.24298919775496483,0.0
16.720556,0.23954407476957196,0.0
16.722935999999997,0.2360989517841791,0.0
16.725331999999998,0.23330545510484416,0.0
16.727719999999998,0.22529705211917678,0.0
16.730103999999997,0.21742841876036959,0.0
16.732499999999998,0.2104909509613407,0.0
16.734887999999998,0.20034067760239624,0.0
16.737267999999997,0.1909818001763699,0.0
16.739667999999998,0.18562712424317726,0.0
16.742055999999998,0.1792015131233461,0.0
16.744435999999997,0.17664033386948838,0.0
16.746831999999998,0.17636079461576795,0.0
16.749219999999998,0.17379961536191024,0.0
16.7516,0.1660235298017201,0.0
16.753995999999997,0.16346235054786246,0.0
16.756383999999997,0.16583653834661677,0.0
16.758764,0.16849026539909148,0.0
16.761163999999997,0.17035259651864812,0.0
16.763551999999997,0.17756960357139737,0.0
16.765932,0.18064263950445278,0.0
16.768331999999997,0.18278450987772982,0.0
16.770716,0.18092217875817315,0.0
16.7731,0.1789200780117563,0.0
16.775495999999997,0.18092217875817315,0.0
16.777887999999997,0.17677820763847926,0.0
16.780268,0.17063213577236852,0.0
16.782663999999997,0.16422842239434118,0.0
16.785051999999997,0.157964478643174,0.0
16.787436,0.14955866451872976,0.0
16.789831999999997,0.14141049190620214,0.0
16.792223999999997,0.13340208892053473,0.0
16.794604,0.12711624742756375,0.0
16.797003999999998,0.11563739737006412,0.0
16.799387999999997,0.10616064805898134,0.0
16.801772,0.09361086281484321,0.0
16.804167999999997,0.07999014238406654,0.0
16.806555999999997,0.06622965232642965,0.0
16.80894,0.05340032782857107,0.0
16.811339999999998,0.03950006814407397,0.0
16.813727999999998,0.03067494513904909,0.0
16.816111999999997,0.022920757320662753,0.0
16.818507999999998,0.018239605435331797,0.0
16.820895999999998,0.012767057617082734,0.0
16.823279999999997,0.006363344239055347,0.0
16.825675999999998,0.007434279425693877,0.0
16.828063999999998,0.009715919425831148,0.0
16.830444,0.013186366497663362,0.0
16.832843999999998,0.016796583196355786,0.0
16.835231999999998,0.01733376396199283,0.0
16.837608,0.017076122450076205,0.0
16.840007999999997,0.015747545751521055,0.0
16.842395999999997,0.01255663793340926,0.0
16.84478,0.01255663793340926,0.0
16.847175999999997,0.01255663793340926,0.0
16.849563999999997,0.01255663793340926,0.0
16.851948,0.01255663793340926,0.0
16.854343999999998,0.01255663793340926,0.0
16.856731999999997,0.014485827394040675,0.0
16.859116,0.02339781062407487,0.0
16.861511999999998,0.0334260550111215,0.0
16.863903999999998,0.049366157980932406,0.0
16.866283999999997,0.07149765878722797,0.0
16.868679999999998,0.09567658631031427,0.0
16.871067999999998,0.12204271017705155,0.0
16.873451999999997,0.14712558331560763,0.0
16.875864,0.1771891494771496,0.0
16.878252,0.2114420127287594,0.0
16.880632,0.25146696493627324,0.009618932290669811
16.883028,0.3008961205401873,0.018650157362452346
16.885416,0.3579850203060014,0.02717602514319698
16.8878,0.4204739219753821,0.03543401832855031
16.890196,0.4846381633092161,0.04379383837328686
16.892584,0.5555528809869755,0.051730257047762636
16.894963999999998,0.6321471398220221,0.059416107150903986
16.897364,0.7117672127618807,0.0670293562012759
16.899752,0.794692639060272,0.07450867243054297
16.902131999999998,0.8784094612915815,0.08196436839363758
16.904528,0.9621991948086763,0.08927809107780187
16.906916,1.0371438034368117,0.09670098359596987
16.909299999999998,1.113114021281212,0.10395119487610037
16.911696,1.1822412149830694,0.11125451899337659
16.914084,1.246387715661941,0.11844163042120565
16.916463999999998,1.310628659997299,0.12546650107562085
16.918864,1.3745447391085623,0.13239593019443874
16.921248,1.4374843266896737,0.13929575114507392
16.923631999999998,1.4925099549416039,0.14633908346080934
16.926028,1.537479753491076,0.15370909273024447
16.928416,1.5746753623382275,0.15157472303547773
16.930795999999997,1.606470969281812,0.14997013158730677
16.933207999999997,1.629141912082717,0.14902274841733962
16.935592,1.6482751840996117,0.14822504053303254
16.937976,1.6635912460787767,0.14751335624786996
16.940372,1.6712256661542373,0.14728731079584848
16.942756,1.6722493795126325,0.14737556467605828
16.945135999999998,1.6721096098857724,0.14741045138526035
16.947532,1.6689440261541,0.14750961976677077
16.949915999999998,1.6700621831689817,0.14725021873977037
16.952295999999997,1.666105203504391,0.14736312967921764
16.954696,1.666012655705774,0.14722227878261626
16.957084,1.666711503840075,0.14706529210311
16.959467999999998,1.6674103519743761,0.14690616823535932
16.961864,1.6647566249219012,0.1470337027597022
16.964256,1.6578191571228724,0.1475028845315742
16.966631999999997,1.64715702708473,0.14818670446312815
16.969047999999997,1.6380776889124242,0.14881481910694314
16.971432,1.6325832433523713,0.14927487846904852
16.973816,1.636028366337764,0.1491234793600487
16.976228,1.6434776908159905,0.14869426505431452
16.978616,1.6470625834282437,0.1485069932907467
16.980995999999998,1.6517184112271353,0.14822127369192417
16.983392,1.6506474760404966,0.14831395017771987
16.98578,1.6560021519736892,0.1478621093542401
16.988159999999997,1.6613568279068818,0.14740128204939762
16.990555999999998,1.6667115038400744,0.14693117018989468
16.992943999999998,1.6704833879074308,0.1465214527454887
16.995324,1.674906898280845,0.14612784636013085
16.997719999999997,1.6681092001086766,0.14659819565900364
17.000107999999997,1.6674575738026187,0.14658819690340796
17.002492,1.6628017460037272,0.1468756389042024
17.004887999999998,1.6532105511522235,0.14751268427649508
17.007275999999997,1.6446902914873585,0.1480626464170094
17.009656,1.6384516718226307,0.14840618570297984
17.012051999999997,1.636636562531317,0.14834270473142042
17.014439999999997,1.6358923884266425,0.148184607993003
17.01682,1.6318428609634346,0.14816249650971727
17.019219999999997,1.6280728727539475,0.1480690434499242
17.021604,1.621369618238265,0.14816707185352748
17.023988,1.6105223926028895,0.14858193242158999
17.026384,1.6026084332737085,0.1488127794197777
17.028772,1.5965568050640842,0.14892995302587048
17.031152,1.5966512487205704,0.14856910089849343
17.033551999999997,1.5926017212573624,0.14853132116056506
17.035936,1.5899026682345136,0.14834020093062772
17.03832,1.5893454855849423,0.14797657292883812
17.040716,1.5875775981218716,0.14773042623786667
17.043104,1.5831559836063265,0.14761141318627008
17.045488,1.588093246516808,0.14675599672744233
17.047884,1.590097243121094,0.14611857700261321
17.050272,1.5941033404717968,0.14532830852343892
17.052652,1.603184574501972,0.14417361316393454
17.055063999999998,1.615059305211482,0.14289459480837716
17.057451999999998,1.624652395920855,0.1417974726362791
17.059832,1.6327552425630087,0.14091371439240166
17.062227999999998,1.6456536866309142,0.1397798194028554
17.064615999999997,1.659343526631738,0.1386069133763692
17.066996,1.671962431445923,0.13752989284299982
17.069391999999997,1.6825792355136913,0.13658686021662075
17.071779999999997,1.6973400107011534,0.13535355715624794
17.07416,1.7133114907021143,0.13402673082652844
17.076559999999997,1.7289108836507379,0.13265088271160774
17.078947999999997,1.7431598021590025,0.13145718443689255
17.081328,1.7571291814135463,0.1303239615850392
17.083724,1.7725415829070665,0.129220911821492
17.086112,1.7899560851470036,0.1280600181683135
17.088496,1.8133768896261913,0.12662518005306622
17.090908,1.8363783852247977,0.12522237711471323
17.093291999999998,1.8523026433975156,0.1242224570210004
17.095671999999997,1.8662248008238165,0.12332005705379451
17.098072,1.8792157926903388,0.1224513628878066
17.100459999999998,1.8863402519444707,0.12189146288795902
17.102839999999997,1.890531444892408,0.12149199346704154
17.105235999999998,1.9000773137735378,0.12076266888592543
17.107623999999998,1.9051071244826363,0.12018541028542805
17.110004,1.904130632952484,0.11993496979170608
17.11242,1.9050164725418883,0.11960780644817921
17.114804,1.9060420817581532,0.11925294864388905
17.117188,1.9079988565341957,0.11885740298661768
17.119584,1.9059514298174052,0.11867251691169231
17.121972,1.9019019023541976,0.11859064275918653
17.124352,1.897153526756689,0.11864670960711599
17.126748,1.8945470215324576,0.11857122123954378
17.129136,1.8923598251888065,0.11841404765839504
17.131515999999998,1.8884500673524591,0.11829951231125749
17.133912,1.8773233024633624,0.11856237894041122
17.1363,1.8583279042154583,0.11916578257289374
17.138679999999997,1.8436162467141084,0.1195256024031326
17.14108,1.8349108914520091,0.11960577389158146
17.143463999999998,1.8280678673094664,0.11962043788647585
17.145847999999997,1.8233667135402007,0.11951040162350322
17.148244,1.8203881212636317,0.11935817490734774
17.150631999999998,1.8168976723078651,0.11915743130880635
17.153011999999997,1.808332086672626,0.1192129684741082
17.155427999999997,1.8087060695828328,0.11884765430618782
17.157812,1.8133637932395938,0.11824020598271702
17.160192,1.8198838480159114,0.11758565992110397
17.162608,1.8274748379788675,0.1168818685817513
17.164991999999998,1.835485136822404,0.11610471443942143
17.167371999999997,1.8472200979050541,0.1152023662114604
17.16978,1.8594669156669017,0.1143383331404534
17.172164,1.8698514023091926,0.11352244473043238
17.174547999999998,1.872367255592676,0.11304084137492429
17.176952,1.8705993681296058,0.112793267710113
17.17934,1.8679003151067572,0.11257859826378587
17.18172,1.8722784995097976,0.11201194150276723
17.184116,1.8785190150323947,0.11135788373776256
17.186504,1.8846197609281314,0.11075396729098265
17.188888,1.8876474708908129,0.11031162899836766
17.191284,1.8926772815999113,0.10978367642061305
17.193672,1.89770709230901,0.10926709825486235
17.196051999999998,1.9050185430182456,0.10860991129315005
17.198448,1.91163114559318,0.108078886826602
17.20084,1.9219684104072279,0.10742084200653294
17.203219999999998,1.924017732981888,0.10718012815722101
17.205616,1.9208521492502155,0.10719668469987767
17.208004,1.9136823640257097,0.10738398935514525
17.210388,1.9043707084279262,0.1076806222705796
17.212784,1.8965020750691188,0.10798649550894841
17.215172,1.8870506498444752,0.10828997594998026
17.217551999999998,1.8772271375674945,0.10852280427591866
17.219952,1.870476661223569,0.1086218515676382
17.22234,1.8694529478651738,0.10852430603492846
17.224719999999998,1.8736441408131108,0.1081669572529027
17.227116,1.8783471904402456,0.10785559904029268
17.229504,1.8819793048807416,0.10761321732515826
17.231887999999998,1.886402815254156,0.10736500391188564
17.234284,1.8860307282018183,0.10728981242191628
17.236672,1.8876607418958982,0.10712963813156702
17.239051999999997,1.885566093350864,0.10708660336676303
17.241456,1.881189804805693,0.10717938847624263
17.243844,1.8756028114470231,0.10734981919850058
17.246228,1.871226522901852,0.10744260430798018
17.248624,1.8652674424908446,0.10753677776974951
17.251012,1.8645232683861694,0.10738707047987041
17.253391999999998,1.8687144613341065,0.10704134989958579
17.255788,1.8722540279759858,0.10666521065369229
17.258176,1.8765849905507828,0.1062823674962293
17.260572,1.8750494205131898,0.10613204692110915
17.262967999999997,1.872303145662098,0.10606607034871479
17.265352,1.870208497117064,0.10602294208138696
17.267736,1.8661117478256135,0.10606816231442281
17.270131999999997,1.8612236026012445,0.10611518256457286
17.272516,1.8531226518169597,0.10633526142337359
17.274896,1.8446496139803377,0.1064796352646321
17.277296,1.833383079464381,0.10670995528993775
17.279684,1.8205337530825876,0.10695366755806045
17.282064,1.8095467578203512,0.1071470845399205
17.284464,1.7986995321849748,0.10730140474835488
17.286848,1.789574868042295,0.10742419971638364
17.289232,1.7836630094595307,0.10736762854605178
17.291628,1.778961855690265,0.10722376538648853
17.294016,1.7756111763613587,0.10696762319674852
17.296412,1.771329331472674,0.10673849277641727
17.298807999999998,1.767047486583989,0.10650960118529591
17.301195999999997,1.759832375389109,0.10638730905400394
17.30358,1.7552709912467037,0.10620986267721172
17.305975999999998,1.7509891463580187,0.10598010421191756
17.308363999999997,1.7527136037085844,0.10550429968491878
17.310744,1.756440161805567,0.10494743510078959
17.313139999999997,1.7635192950893257,0.10422180848375684
17.315527999999997,1.7727402987463612,0.10339512640137827
17.317908,1.7838236335229531,0.10253180961305877
17.320307999999997,1.7970488386728223,0.10155262387755849
17.322695999999997,1.810925670128749,0.10059752655987456
17.325076,1.8215896960247604,0.09976827137902353
17.327479999999998,1.835186988226967,0.09883053379723158
17.329867999999998,1.8517175467353684,0.09779363476265122
17.332248,1.866897630803411,0.09687420945607067
17.334643999999997,1.882077714871454,0.09595478414949014
17.337028,1.8920428926331647,0.09526902712820233
17.339412,1.9007973655813761,0.09467056209614591
17.341807999999997,1.9092722992758673,0.09413870066197522
17.344196,1.9193300248361946,0.0936123240551941
17.346576,1.9231019089035515,0.09335623396127198
17.348979999999997,1.9270135625977678,0.09307102027746764
17.351367999999997,1.9292026547992882,0.09281061560669396
17.353748,1.9303208118141695,0.09260052577595332
17.356147999999997,1.929856176963215,0.09239061661726722
17.358535999999997,1.9315334124855377,0.0920897768843858
17.360916,1.929718303194224,0.09198236320905094
17.363315999999998,1.9306966905822454,0.0918160846383504
17.365703999999997,1.9290213509177925,0.09168603872952681
17.368088,1.9290685727460353,0.09154220624045131
17.370483999999998,1.9281846290145002,0.0914167866960924
17.372875999999998,1.9345176923357144,0.09103912425473003
17.375255999999997,1.9404314467763482,0.09073683457385671
17.377651999999998,1.9435517045376467,0.09049324352259043
17.380039999999997,1.9470912711795256,0.09018123138083238
17.382423999999997,1.9518415426349034,0.08980876051484031
17.384819999999998,1.9598046196501973,0.08930379426347783
17.387207999999998,1.9668365311057123,0.08881445847071362
17.389591999999997,1.9709351762550325,0.08840292125861772
17.391992,1.974102655844574,0.08801217481574823
17.394379999999998,1.9806227106208916,0.08745415990870038
17.396763999999997,1.989936262076544,0.08684371201284691
17.39916,2.0000412094651145,0.08623543972813802
17.401548,2.0112170920403236,0.08558122529506354
17.403927999999997,2.0179694642421184,0.08511477744554877
17.406328,2.0173650597643036,0.0849337215899808
17.408716,2.015038093793792,0.08476721790986044
17.411099999999998,2.0039113289046955,0.08486118488293169
17.413496,1.9925050247618785,0.08500603019156923
17.415884,1.9825889646862804,0.08501780289722247
17.418263999999997,1.9757459405437376,0.08492115369863616
17.420664,1.9656901108412796,0.08494647337234502
17.423052,1.955122424459624,0.0849164479732833
17.425431999999997,1.945485903637746,0.08486718744168092
17.427832,1.9344989083755098,0.08490618132633983
17.43022,1.9213700427399967,0.08502463342850498
17.432603999999998,1.9105228171046202,0.08502876738437408
17.435,1.898884195536326,0.08502760475020413
17.437388,1.8891079050875885,0.0849943189676569
17.439771999999998,1.8784004490790722,0.08497898158840499
17.442168,1.8686241586303347,0.08494472342271572
17.444551999999998,1.8569855370620403,0.08493986600116647
17.446935999999997,1.8424136491875507,0.08501541828279201
17.449332,1.827701991686201,0.08511322535115769
17.451719999999998,1.8189966364241017,0.08503806363378183
17.454099999999997,1.813643856348778,0.0848112230689918
17.456495999999998,1.8092222418332329,0.08456336252010864
17.458883999999998,1.8117380951167168,0.08409704828468793
17.461267999999997,1.816907675452675,0.08359923124184448
17.463663999999998,1.8157914142956626,0.08334877620988075
17.466051999999998,1.810531182018956,0.08325139310339726
17.468432,1.8023376834360547,0.0832405286799292
17.470831999999998,1.7949355807860716,0.08323196247925765
17.473219999999998,1.7883248740690063,0.08322845969455012
17.475603999999997,1.7818539369788013,0.08320127583076298
17.477999999999998,1.7773851006350132,0.08310877388824632
17.480387999999998,1.7674218187311717,0.08326734659563122
17.482768,1.7581101631333884,0.08346513110392909
17.485163999999997,1.7480071116026872,0.0836567028926196
17.487551999999997,1.7388352256317643,0.08383032627801479
17.489948,1.7315256707803977,0.08395818552956723
17.492344,1.7243558855558916,0.08405613322164687
17.494732,1.7222612370108576,0.08398083888702239
17.497111999999998,1.720306358092684,0.08387897465630867
17.499508,1.716628917681814,0.08378689648264492
17.501896,1.7149535780173608,0.0836329477443815
17.504275999999997,1.7134180079797678,0.08345155177753834
17.50668,1.7075986971956205,0.08344460205816567
17.509068,1.6992654289858586,0.08343758925159526
17.511447999999998,1.6949363622689309,0.08330865608484773
17.513844,1.6956824322314752,0.08301437725329625
17.516227999999998,1.6993617685002145,0.08263357973872931
17.518611999999997,1.6988971336492598,0.08240256182934433
17.521008,1.6976411028653873,0.08216457928443671
17.523391999999998,1.6971764680144326,0.08193356137505171
17.525775999999997,1.693918336484143,0.08175732275179624
17.52818,1.6937332408869088,0.0814663210337351
17.530568,1.6956900156629515,0.08108108355128218
17.532947999999998,1.7004402871183295,0.0806421192924779
17.535344,1.7073324289469844,0.08012050798726794
17.537732,1.7112913044694444,0.07968500000723877
17.540115999999998,1.7148308711113234,0.07933030064736594
17.542512,1.7172995025665643,0.07902761746660905
17.5449,1.722701400328,0.0786591454175001
17.547279999999997,1.7287549243954938,0.07833020320295386
17.549675999999998,1.7334579740226286,0.07809485740780983
17.552068,1.740814750702238,0.07784233447567951
17.554447999999997,1.75338643368818,0.0774184137459842
17.556843999999998,1.7659581166741218,0.07699216221881267
17.559236,1.779460965219842,0.07656521746036557
17.561615999999997,1.7898907778325073,0.07624055540076513
17.564011999999998,1.8043247919380057,0.07583023781520228
17.566404,1.8219716116034201,0.07529621092840466
17.568783999999997,1.839618431268834,0.07476750211994124
17.571188,1.8615489916808021,0.07411430992296661
17.573576,1.885993509518385,0.07346473686349474
17.575955999999998,1.9124401281023846,0.07277907306732699
17.57836,1.9387469770595247,0.07213036562135018
17.580748,1.9591872934042738,0.07159375156215345
