Time,Force,Position
22.438296,0.04249996259401127,0.0
22.440692,0.04782784904307344,0.0
22.44308,0.054086901051913924,0.0
22.44546,0.059554557127836305,0.0
22.447876,0.06302011245734182,0.0
22.450264,0.06755660297348587,0.0
22.452644,0.07316402867626845,0.0
22.45504,0.0807735551254679,0.0
22.457428,0.08638098082825048,0.0
22.459808,0.08998630578461621,0.0
22.462204,0.0899863057846162,0.0
22.464592,0.0899863057846162,0.0
22.466972,0.08749913784313215,0.0
22.469368,0.08408080434186979,0.0
22.471756,0.08159363640038574,0.0
22.47414,0.07603343252584631,0.0
22.476536,0.07047322865130687,0.0
22.47892,0.06570442070968555,0.0
22.481304,0.0606560735143438,0.0
22.4837,0.05560772631900205,0.0
22.486088,0.04748634319060493,0.0
22.488484,0.04215845674154277,0.0
22.49088,0.035899404732702284,0.0
22.493268,0.030431748656779917,0.0
22.495648,0.02696619332727439,0.0
22.498044,0.022429702811130336,0.0
22.500432,0.01682227710834775,0.0
22.502812,0.009212750659148316,0.0
22.505212,0.0036053249563657327,0.0
22.5076,0.0,0.0
22.50998,0.0,0.0
22.512376,0.0,0.0
22.514764,0.0,0.0
22.517148,0.0,0.0
22.519544,0.0,0.0
22.521932,0.0,0.0
22.524312,0.0,0.0
22.526712,0.0,0.0
22.5291,0.0,0.0
22.53148,0.0,0.0
22.533876,0.0,0.0
22.536264,0.0,0.0
22.538644,0.0,0.0
22.541044,0.0,0.0
22.543432,0.0,0.0
22.545812,0.0,0.0
22.548212,0.0,0.0
22.5506,0.0,0.0
22.552996,0.0,0.0
22.555392,0.0,0.0
22.55778,0.0,0.0
22.560164,0.0,0.0
22.56256,0.0,0.0
22.564948,0.0018355416354261511,0.0
22.567332,0.003671083270852302,0.0
22.569728,0.003671083270852302,0.0
22.57212,0.003671083270852302,0.0
22.5745,0.0036710832708523023,0.0
22.5769,0.0036710832708523023,0.0
22.579284,0.0036710832708523023,0.0
22.581668,0.0036710832708523023,0.0
22.584064,0.0036710832708523023,0.0
22.586452,0.0036710832708523023,0.0
22.588832,0.0036710832708523023,0.0
22.591228,0.0036710832708523023,0.0
22.593612,0.0036710832708523023,0.0
22.595992,0.0036710832708523023,0.0
22.598396,0.0036710832708523023,0.0
22.600784,0.0036710832708523027,0.0
22.603164,0.0036710832708523027,0.0
22.60556,0.0036710832708523027,0.0
22.607948,0.0036710832708523027,0.0
22.610328,0.0036710832708523027,0.0
22.612724,0.0018355416354261514,0.0
22.615112,0.0,0.0
22.617492,0.0,0.0
22.619888,0.0,0.0
22.622276,0.0,0.0
22.624656,0.0,0.0
22.627052,0.0,0.0
22.62944,0.0,0.0
22.63182,0.0,0.0
22.634216,0.0,0.0
22.636604,0.0005322890233103511,0.0
22.638984,0.0019957436063990225,0.0
22.64138,0.004390363749266014,0.0
22.643768,0.009858019825188389,0.0
22.646152,0.01439451034133244,0.0
22.648548,0.017720296043977752,0.0
22.650936,0.022349334358738863,0.0
22.653316,0.025860215658618298,0.0
22.655728,0.03477109886206428,0.0
22.658116,0.04968638844689159,0.0
22.660496,0.07069863221171728,0.0
22.662892,0.0980401475820186,0.0
22.66528,0.13645931015530421,0.0
22.66766,0.1865605244093889,0.009011687659745818
22.670076,0.25099751739674736,0.017947627918455458
22.672464,0.32706934023666173,0.027227016624367342
22.674844,0.4195715903548838,0.03636680629580056
22.677248,0.5312977644307485,0.0452429819963072
22.679632,0.6590822787325834,0.054024832062563796
22.682016,0.805346542887386,0.06257305051291231
22.684412,0.9659733752595929,0.07106014497076815
22.6868,1.138189711513982,0.07954369635585566
22.689184,1.3182708894114399,0.0881483346958052
22.69158,1.5042148082055493,0.09684763285277906
22.693968,1.7030987053221995,0.10551655747622997
22.696352,1.917623529642109,0.1140515659206962
22.698748,2.146206489299441,0.12244526171542215
22.701136,2.392200159480971,0.1306931966989462
22.703516,2.644710092723081,0.13889339200687917
22.705916,2.898243739323587,0.14711679866964894
22.708304,3.153407399618171,0.15531043261437635
22.710684,3.4117385395023,0.1633972566823188
22.71308,3.6617383070345357,0.171479518710835
22.715468,3.9031290588190277,0.17047614405207268
22.717852,4.1296721751910495,0.16953731331783
22.720248,4.345698618725396,0.1681776229747432
22.722636,4.544830000130481,0.16689624501795405
22.72502,4.721479326047633,0.16586929779229545
22.727424,4.881977763940198,0.16489588716301645
22.729812,5.020830868248121,0.16418750406781488
22.732196,5.14441702826299,0.16351864425126067
22.734592,5.255482518835899,0.1628533275074748
22.73698,5.359334794071798,0.16205123807985597
22.73936,5.458627581023161,0.1610871906118478
22.741756,5.549356678197157,0.16010490345890593
22.744144,5.628960906339925,0.15921837875708736
22.746524,5.6910618761598775,0.1585250896131098
22.748932,5.736078896537595,0.1579848693483679
22.751316,5.768388256018249,0.15749973620744268
22.7537,5.797301610199622,0.15688520718016072
22.756096,5.821049175760775,0.15622187995186726
22.75848,5.834927903074571,0.155644445077336
22.76086,5.849412930724052,0.1549880088964318
22.763256,5.862734475388276,0.15432708702157616
22.765644,5.8783376600526385,0.15360879821967413
22.768024,5.893521535836418,0.15292356292024067
22.770424,5.905864693112623,0.1523320325822092
22.772808,5.919091794120362,0.15176768228048493
22.775188,5.929245859195041,0.15126856216879211
22.777588,5.942472960202781,0.15069846520860902
22.779976,5.957282853076358,0.15011663307942122
22.782372,5.969439018897459,0.14957116246765872
22.784768,5.978569370613747,0.14904443277390841
22.787156,5.984813677852085,0.14853299034182058
22.789536,5.986030070239191,0.14808218151233743
22.791936,5.981287382215289,0.14770640313156477
22.79432,5.978174707885467,0.14726625656256428
22.7967,5.975201803182505,0.14681564836759564
22.799104,5.970506336986847,0.1463858128821143
22.801492,5.960456194857995,0.14608434888611832
22.803872,5.944539520116753,0.14589700264243868
22.806272,5.926480975002235,0.14576021423117658
22.808656,5.901764501342407,0.14574405412842184
22.81104,5.871413812495668,0.14587434005664515
22.813436,5.838781483648789,0.14606030503623915
22.815824,5.802656809988275,0.14634282579234947
22.818204,5.771327733753514,0.14653496339914626
22.8206,5.741581449384589,0.14671631886786143
22.822988,5.713417956881499,0.14688778925400806
22.825368,5.687069573669724,0.14707416575991875
22.827768,5.659790024898172,0.14727367183280116
22.830156,5.638237239112148,0.1473657454777915
22.832536,5.620129576311518,0.14741154108834642
22.834932,5.59974027351075,0.14751604643708208
22.83732,5.57986282738918,0.14763511644754565
22.8397,5.563570273879863,0.14770061176492702
22.8421,5.547649807422884,0.14778844943979497
22.844484,5.533451902458601,0.14785295774511673
22.846864,5.5245614515992685,0.14784024989462766
22.849264,5.51846449741927,0.14777952390725926
22.851648,5.517535227717361,0.1476513525147396
22.854032,5.522332721000982,0.14741806887686026
22.856428,5.531506502829773,0.14712293798839254
22.85882,5.546407047644095,0.1467200991357116
22.8612,5.560608744324115,0.14636398776060192
22.8636,5.578535103243249,0.145940504914532
22.865988,5.596693779587861,0.1455542022056467
22.868388,5.616435247798309,0.14515500704460443
22.870784,5.641484170113708,0.1446823696532287
22.873172,5.6649503005632695,0.14422530867697123
22.875556,5.686926186945612,0.14382127701601752
22.877952,5.707831138141315,0.143450101480414
22.88034,5.72752538452352,0.14311678573441736
22.882724,5.749733588331339,0.14275714690496868
22.88512,5.774875058445353,0.14234260909040225
22.887508,5.798154197439811,0.14195888223191036
22.889892,5.823575206807547,0.1415282471313883
22.892292,5.851649943227758,0.1410689807464044
22.894684,5.876931182968633,0.14065881035951835
22.89706,5.901932883455788,0.14026960810233227
22.899456,5.924001317636747,0.13993465321724538
22.901844,5.94243763737721,0.13970145904631978
22.904228,5.961665353050592,0.13946566351581335
22.906624,5.980893068723972,0.13923387121958178
22.909008,6.003333589957271,0.13893300954103066
22.911388,6.028986916750483,0.13856977851691196
22.913788,6.052917682050998,0.13822733219170116
22.916172,6.076196821045456,0.13788214960263234
22.918552,6.093888966681244,0.13762157835918234
22.920948,6.109299472316895,0.137413222486044
22.923336,6.126991617952683,0.1371504111135026
22.925732,6.140679562095638,0.13696064397397092
22.928124,6.157720081425368,0.13669858800346438
22.930512,6.171455247396565,0.136464997444109
22.932892,6.182536686315288,0.13626417504576344
22.935296,6.196691161167067,0.13600658703291044
22.937684,6.2108456360188455,0.13575229037124079
22.940064,6.221974296765811,0.13551140868306255
22.94246,6.233522266393359,0.13524559571086495
22.944848,6.244698148968567,0.1349597803775022
22.947228,6.2612287074769695,0.13457062113211316
22.949632,6.2778064878136135,0.1341344678028334
22.95202,6.292801476284422,0.1337094472457462
22.954404,6.305142737702757,0.13331561766746092
22.9568,6.317763538374811,0.13290945241864782
22.959184,6.324517806434475,0.1325959237800017
22.961564,6.33048067856122,0.13228593893949056
22.963968,6.337514485874605,0.1319565421223639
22.966356,6.347621329121044,0.13157380260908388
22.968736,6.361080747554259,0.13112053479738459
22.971136,6.374679935614335,0.1306616920493888
22.973524,6.388418893301272,0.13019052896613192
22.975904,6.396151548748958,0.12981978739844335
22.9783,6.406537931249118,0.12942074896436082
22.980688,6.420928515242114,0.12895965574632806
22.983068,6.435458868861967,0.12849558161940297
22.985464,6.448266660989124,0.12804952817219167
22.987852,6.457442338675785,0.12768584020209975
22.990232,6.4661987074818645,0.1273470835160271
22.992628,6.477748572967281,0.12697685355050203
22.995016,6.4830125969597265,0.1267171612243088
22.997412,6.490511039124065,0.12645646457080276
22.999816,6.497869711661544,0.12620418589805635
23.002204,6.503877909758664,0.12598595219446834
23.004584,6.507744237482506,0.12580740064780427
23.00698,6.515335227445462,0.12558427319233484
23.009368,6.525999253341474,0.12531296296951655
23.011748,6.535732113677708,0.12505399140082424
23.014144,6.544673578081022,0.12479945516460444
23.016532,6.553894581738057,0.12453123429489739
23.018912,6.56418652058173,0.1242470213355393
23.021308,6.579972904985457,0.12386535692234887
23.023692,6.596830224575822,0.12346319043082774
23.026072,6.613967083419905,0.12304832639050822
23.028468,6.628310445584654,0.12266871300727561
23.030856,6.638789375883433,0.12233902177456549
23.033252,6.649408075809069,0.12200262544851227
23.035648,6.662448185361706,0.12161272522363802
23.038036,6.678189243795059,0.12115946642654936
23.040416,6.688203539242881,0.12077575142121989
23.042812,6.700918783571419,0.12032537032655606
23.0452,6.709397508981648,0.11990232968842046
23.04758,6.7150827377125415,0.11950788360859618
23.049976,6.724260311257071,0.11904445744284141
23.052364,6.728642287375847,0.11863624723837603
23.054748,6.727437270135955,0.11828864380345024
23.057144,6.723159216963007,0.11798777304413886
23.059532,6.717949998230281,0.11769675418734657
23.061912,6.712321470616975,0.11742891750935736
23.064312,6.700267331883837,0.11726776713098341
23.0667,6.684348761284726,0.11715440452386319
23.06908,6.666939946618395,0.11707991756105551
23.071476,6.6516730023253405,0.116969678139269
23.073864,6.633193252472374,0.11691154504034702
23.076244,6.613363028179047,0.11688582527704573
23.078644,6.595255365378415,0.1168479305432188
23.081032,6.58008096888398,0.11677135076156776
23.083428,6.567420529815157,0.11668043001509242
23.085824,6.549265645186281,0.11668206208869705
23.088212,6.534695653169658,0.11665293676275071
23.090592,6.51863541708582,0.11666291088330455
23.092992,6.506299843241091,0.11663428514000512
23.09538,6.497968470889199,0.11655220159679426
23.09776,6.489357559283586,0.11648477568196355
23.100156,6.486752949917223,0.11633781511036032
23.102544,6.489083707603473,0.1161277877267243
23.104924,6.495418666782555,0.11586607620673639
23.107328,6.504547122640974,0.11557746743050411
23.109716,6.512092786633556,0.11529157507588304
23.112096,6.528066162492386,0.11487712407933787
23.114492,6.542037437604799,0.1144851998492079
23.11688,6.550142180104823,0.11416457009236264
23.11926,6.5533115555522325,0.11390583149691176
23.121656,6.560624902119339,0.11358638801235667
23.124044,6.5672866223803865,0.1132596035620525
23.126424,6.572225781148737,0.11294345439709087
23.12882,6.570087702491198,0.11272484676689111
23.131208,6.565947523087242,0.11253341776166842
23.133592,6.564600840362621,0.11231279450858013
23.135988,6.561391826518444,0.11211121393559258
23.138376,6.5609763093536015,0.11188157753317485
23.140772,6.560001713681319,0.11168349270694962
23.143168,6.5608894491285925,0.11146831911946195
23.145556,6.562848119762505,0.1112377653431503
23.147936,6.565598186329335,0.11100725080045226
23.150336,6.568068713642446,0.11079275050268313
23.152724,6.564812477970025,0.11063848084363749
23.155104,6.560485307110967,0.11050076382941848
23.1575,6.560953733677661,0.11031300416349894
23.159888,6.559000750617356,0.11017263879929026
23.162268,6.564497092035278,0.10996548646736298
23.164664,6.578933001998647,0.10965526024156673
23.167052,6.600306379761043,0.10926569373368551
23.169432,6.617675556030606,0.10892489021632575
23.171832,6.63397379711353,0.10859707889659724
23.174216,6.6549278659953455,0.10822972296287534
23.176596,6.6777442659967186,0.10784095053210138
23.179,6.698977874132255,0.10745317462567869
23.181388,6.717697524842177,0.10707405932901483
23.183768,6.739210672231434,0.1066710821702952
23.186168,6.755928222194939,0.10631708202851438
23.188556,6.769200649173051,0.10598054158591604
23.190936,6.774604442792356,0.10573333164292008
23.193336,6.7749330997321895,0.10555054512840671
23.19572,6.772328490365827,0.10540066118422325
23.198104,6.766138988387212,0.10527643357081609
23.2005,6.763534379020848,0.10512584728848742
23.202888,6.75920720816179,0.10498448445242764
23.205284,6.749013504690341,0.1049076879217692
23.20768,6.738028405285974,0.10483137688234237
23.210068,6.721875621403517,0.10478105220368276
23.212452,6.6947811682291976,0.10485668995506389
23.214856,6.663542743935185,0.10498411303559799
23.21724,6.63351502445467,0.10508886696483205
23.21962,6.609353837586546,0.10512944460188753
23.22202,6.5796056573597514,0.10521661528985177
23.224408,6.555072383439292,0.10523316834424128
23.226788,6.531470275078607,0.10524167463439957
23.229188,6.512943303397397,0.10518747382341409
23.231576,6.492321683171153,0.1051183594071339
23.233956,6.4770547388781,0.1049734329822315
23.236356,6.46700270089138,0.10476037779677413
23.238744,6.46402790033055,0.104463786234228
23.241128,6.462263804583219,0.10414286023598829
23.24352,6.461989952903106,0.10378465138021102
23.245908,6.46357843234255,0.10340928184940162
23.248288,6.4617217887966,0.10304920223023276
23.250688,6.458142583757955,0.10269544441164724
23.253076,6.459638515398783,0.10228059498106296
23.255456,6.458480719987135,0.10188007413348185
23.257852,6.457974550881545,0.10148557664393947
23.26024,6.465756324015342,0.10098209284466975
23.26262,6.474888571589499,0.10044851565372724
23.26502,6.486022919910074,0.09989373702094832
23.267404,6.490499339685339,0.09939984572144298
23.269788,6.495767155393522,0.09890246956734562
23.272184,6.496239373675953,0.09845223603179505
23.274572,6.4969911312121065,0.09798627931698688
23.276956,6.4954612487481205,0.09755957796456563
23.27936,6.491230417403418,0.09719061784984914
23.281748,6.481924449379241,0.0968803280253347
23.284128,6.470616380608648,0.09659207757401976
23.286524,6.458237376651418,0.0963185977320034
23.288912,6.4470690775076855,0.0960220818038707
23.291296,6.433479368736957,0.09576804174025634
23.293692,6.422962695899281,0.09547832518240819
23.29608,6.4150997501140825,0.09517421123609163
23.298464,6.412032401754635,0.09482822508421233
23.30086,6.405240391156075,0.09450935364141244
23.303248,6.402033273169766,0.09417030575506924
23.305632,6.4046926877958485,0.09377950778697794
23.308028,6.404139296862016,0.09343116538167798
23.310416,6.40409776260738,0.0930989826247122
23.3128,6.402845523539245,0.09278835880994127
23.315196,6.409322148203057,0.09241405740162159
23.317584,6.42301577991962,0.09196432897392566
23.319964,6.436429872382461,0.0915268402404868
23.32236,6.45170629596486,0.09107920756880333
23.324748,6.464980618800842,0.0906500189035253
23.327132,6.478534480890545,0.09020243936185593
23.329528,6.494090443726663,0.0897335129261078
23.33192,6.508156162495562,0.08929995267217901
23.3343,6.518217679771628,0.08890469256145744
23.336696,6.528930823353751,0.08851844017012125
23.339084,6.544719103615347,0.08808245650784732
23.341468,6.560507383876943,0.08765168151531813
23.343864,6.575644037832482,0.08721319482432201
23.346252,6.586916259922047,0.08680627150317223
23.348632,6.5996315042505875,0.08640917677646173
23.351032,6.610624187086431,0.08601722809073964
23.35342,6.6129568406305514,0.08569058743635097
23.3558,6.617291594921087,0.08534653255157618
23.358196,6.6191123917860075,0.08500445312984006
23.360584,6.620933188650929,0.08466274474055184
23.362968,6.6228937551427105,0.08431887718566598
23.365368,6.617916853835462,0.08403278447476482
23.367756,6.614942053274632,0.0837291653556345
23.37014,6.611687713460079,0.08344024967579362
23.372536,6.611506409578586,0.0831228100473927
23.374924,6.616260472749701,0.08276759642122933
23.377308,6.621945701480596,0.08240783110479648
23.379712,6.630052339838489,0.08201184031148046
23.3821,6.641232014129436,0.08158680319176183
23.384484,6.653622393233881,0.08114535571746688
23.38688,6.662008570845495,0.08073843536012577
23.389264,6.665319611777635,0.08037464998762114
23.391648,6.6692822790158335,0.08002007591700287
23.394044,6.675898673306507,0.07965905050275475
23.396432,6.6827946068509005,0.0792850778587703
23.398816,6.690621705955072,0.07890708919782105
23.401216,6.702313236925217,0.07850344741947687
23.403604,6.715075703082001,0.07809215713506769
23.405988,6.7306316659181205,0.07766892748274569
23.408392,6.743254362448044,0.07726370231876852
23.41078,6.748939591178939,0.07690944235383568
23.41316,6.755136676589031,0.07657009864551222
23.415564,6.76333586274554,0.07621768396539233
23.417952,6.770603883342271,0.07587040123563114
23.420332,6.7766611991255035,0.07554145666506318
23.422728,6.783370141214793,0.07522507736904957
23.425112,6.795666076662753,0.07489011005365033
23.427492,6.803818040991019,0.07458926716947537
23.429888,6.81490327162548,0.07427355857102205
23.43228,6.825708963006219,0.0739727079153571
23.43466,6.837585589573599,0.07366230809514472
23.437056,6.852535252074034,0.07332789417726923
23.439444,6.865622583454912,0.0730001255531987
23.441824,6.876847583716234,0.07267990052606517
23.44422,6.887932814350696,0.07236696965351953
23.446608,6.897947109798519,0.07206414193605899
23.448988,6.905679765246204,0.07178679340346224
23.451384,6.907126579200919,0.07156094712905527
23.453772,6.907642227595856,0.07133897674565892
23.456156,6.912301847110486,0.0710846227323835
23.458552,6.916821696998256,0.07083482669060197
23.460936,6.920689920579968,0.07057431559788713
23.46332,6.919762546735928,0.07033623192372644
23.465716,6.918043776958969,0.07009465051900647
23.468104,6.914881984943035,0.06983925176108989
23.470488,6.910137401061266,0.06957842436962483
23.472884,6.893939291208436,0.06936603347787292
23.475272,6.881745382848439,0.06912811448794645
23.477652,6.865547272995608,0.06891463271371692
23.480048,6.845344961649943,0.06872478793886752
23.48244,6.823000779931002,0.06855254332725524
23.484836,6.801587763771839,0.06837661587154617
23.487232,6.782037078732233,0.06819421417093098
23.48962,6.7644884944390435,0.06799925726758398
23.492,6.748010845332493,0.06779483506637825
23.4944,6.7335352969723585,0.0675782672877042
23.496784,6.724414424545418,0.06731696284189267
23.499168,6.719717062491891,0.06701214766496763
23.501564,6.713297138945667,0.06670529823693355
23.503952,6.705806280212805,0.06640765116425033
23.506336,6.7040421844654725,0.06608917636639655
23.508732,6.706142520584113,0.06575513447192312
23.51112,6.711315892635811,0.06540052396810804
23.513504,6.718351595807064,0.06504206076008555
23.5159,6.727901256403933,0.0646898366726353
23.518288,6.733446715507968,0.06435900277268673
23.520668,6.74578987278417,0.06399819734471517
23.523068,6.756130929313956,0.06364899847579214
23.525456,6.7675429210303815,0.0632916728180446
23.52784,6.783098883866501,0.06290635435811094
