Time,Force,Position
21.20058,0.1713944159031088,0.0
21.20296,0.17872929484091452,0.0
21.205356,0.18222163965455052,0.0
21.207744,0.18478281890840823,0.0
21.210128,0.18320002704257202,0.0
21.212524,0.1833397966694322,0.0
21.214912,0.18040653036323706,0.0
21.217308,0.17668186812412376,0.0
21.219704,0.16948675881317826,0.0
21.222092,0.1593583831960376,0.0
21.224472,0.14923000757889693,0.0
21.226868,0.13831023602883816,0.0
21.229256,0.1249690548517819,0.0
21.231636,0.11241926960764376,0.0
21.234036,0.10094041955014414,0.0
21.236424,0.08759923837308788,0.0
21.238804,0.07532899238267014,0.0
21.2412,0.06212758083247407,0.0
21.243588,0.04878639965541782,0.0
21.245972,0.036516153665000085,0.0
21.248376,0.028110339540555848,0.0
21.250764,0.02077546060275014,0.0
21.253144,0.015582452038221494,0.0
21.255544,0.010249673846832638,0.0
21.257932,0.006918996401860633,0.0
21.260312,0.0026571533971103066,0.0
21.262716,0.00039741113877683293,0.0
21.265104,0.0,0.0
21.267488,0.0,0.0
21.269884,0.0,0.0
21.272272,0.0,0.0
21.274652,0.0,0.0
21.277048,0.0,0.0
21.279436,0.0,0.0
21.281816,0.0,0.0
21.284212,0.0,0.0
21.2866,0.0,0.0
21.28898,0.0,0.0
21.291384,0.0,0.0
21.293772,0.0,0.0
21.296152,0.0007694981911143125,0.0
21.298548,0.0007694981911143124,0.0
21.300936,0.0007694981911143124,0.0
21.30332,0.0007694981911143125,0.0
21.305716,0.0007694981911143125,0.0
21.308104,0.0007694981911143125,0.0
21.310488,0.0007694981911143125,0.0
21.312884,0.0010271397030309352,0.0
21.315272,0.0011450115880873475,0.0
21.317656,0.00126288347314376,0.0
21.320052,0.0013807553582001729,0.0
21.32244,0.0013807553582001729,0.0
21.32482,0.0013807553582001729,0.0
21.327216,0.0013807553582001729,0.0
21.329604,0.0013807553582001729,0.0
21.331984,0.0013807553582001729,0.0
21.33438,0.0013807553582001729,0.0
21.336768,0.0013807553582001729,0.0
21.339152,0.0013807553582001729,0.0
21.341548,0.0013807553582001729,0.0
21.343932,0.0006112571670858604,0.0
21.346332,0.0006112571670858604,0.0
21.348728,0.0006112571670858604,0.0
21.351116,0.0006112571670858604,0.0
21.353496,0.0006112571670858604,0.0
21.355892,0.0006112571670858604,0.0
21.35828,0.0013807553582001729,0.0
21.36066,0.002963547224036393,0.0
21.363064,0.0038947127838147135,0.0
21.365452,0.005757043903371353,0.0
21.367832,0.007619375022927994,0.0
21.370232,0.012532844333736219,0.0
21.372616,0.016515148084766125,0.0
21.374996,0.02664352370190679,0.0
21.377396,0.03770306487882578,0.0
21.379784,0.047831440495966444,0.0
21.382164,0.05996191685952396,0.0
21.384564,0.07409449396949834,0.0
21.386952,0.08594543107933543,0.0
21.389332,0.10086940412222792,0.0
21.391732,0.11351173716498313,0.0
21.394116,0.1290873365139335,0.0
21.3965,0.14280060474332723,0.0
21.398904,0.15972667853263656,0.0
21.401292,0.17772368750858444,0.0
21.403676,0.19371859573811545,0.0
21.406084,0.20880423614967195,0.0
21.408472,0.2238898765612284,0.0
21.410852,0.23976691290570304,0.0
21.413256,0.25685465406367636,0.0
21.415644,0.2759444959680666,0.0
21.418024,0.28995920119298446,0.0
21.42042,0.30583623753745903,0.0
21.422808,0.31463603645604454,0.0
21.425188,0.3235756050014903,0.0
21.427592,0.33637960541290957,0.0
21.42998,0.34839220989141073,0.0
21.43236,0.3604048143699118,0.0
21.434764,0.3768409292218272,0.0
21.437152,0.3903437777675475,0.0
21.439532,0.40761851038062413,0.0
21.441936,0.41516227851533705,0.0
21.444324,0.42535977370252465,0.0
21.446704,0.43141329777001836,0.0
21.449108,0.4341142466507363,0.0
21.451496,0.43788613071809274,0.0
21.453876,0.4396559140390323,0.0
21.45628,0.43621079105363947,0.0
21.458664,0.4336968336280249,0.0
21.461048,0.4241056387765213,0.0
21.46344,0.4115811776188225,0.0
21.465828,0.40040719090148263,0.0
21.468208,0.38751064269144636,0.0
21.470612,0.3734033896679113,0.0
21.473,0.3559435614576005,0.0
21.475384,0.3346193013813162,0.0
21.47778,0.3112457187303718,0.0
21.480168,0.28510053714189637,0.0
21.482548,0.2568134851801439,0.0
21.484948,0.22838666359153117,0.0
21.487336,0.19951484366479552,0.0
21.489716,0.1854472290380267,0.0
21.492112,0.17575400709855976,0.0
21.4945,0.1783491371755759,0.0
21.49688,0.19495518076177154,0.0
21.49928,0.23046028308151548,0.009208035710222783
21.501668,0.28458490488108734,0.018048548481205302
21.504048,0.36319557877287745,0.026375941546088015
21.506444,0.4590752977041366,0.034521739474001556
21.508832,0.580232464660532,0.04241398853226497
21.511212,0.7189382159101169,0.05025530199524737
21.513608,0.8785451266396669,0.057882210387140975
21.515996,1.054676908304011,0.06543933954296156
21.51838,1.2489635745972287,0.07291004178487503
21.520776,1.458099772160787,0.08036923514665004
21.523164,1.6778017602481317,0.08789439050233512
21.525548,1.9096070047547253,0.09539970658293805
21.527944,2.1523754509238824,0.1029178859444727
21.530332,2.407060162057185,0.11042120699903508
21.532712,2.6730095118485755,0.11790810327651689
21.535116,2.9475954627031213,0.12539421475633508
21.537504,3.2224137309831455,0.13288385542188824
21.539884,3.49900178258411,0.1403715458612198
21.542288,3.7687014840721584,0.14783758277723408
21.544676,4.029046099849919,0.15528379526623015
21.547056,4.272214218386828,0.15351543399590545
21.549452,4.498672370391708,0.15208425391999678
21.551836,4.703624958438809,0.15115141845382116
21.55422,4.888422456968489,0.15039172064693956
21.556616,5.05064345635375,0.14989571280845432
21.559,5.194012618833704,0.14946093760244888
21.561384,5.315828995527634,0.1492443565611553
21.56378,5.42042165315247,0.14915193685602277
21.566168,5.510444318760684,0.14914186402530089
21.568548,5.589993741643731,0.14914197832792764
21.570944,5.6646569151602755,0.14903636531167533
21.573332,5.733874760802883,0.1488876270503711
21.575712,5.796716113011772,0.1487042184084368
21.578104,5.851877719174827,0.14848795773939402
21.580492,5.89842841373227,0.1482531451505838
21.582872,5.937019822990156,0.14799901221233694
21.585268,5.9703056740009615,0.1476901983331902
21.587656,5.996655953070605,0.14738333468026496
21.590036,6.019748100609961,0.14706709651191355
21.59244,6.0396746644176424,0.14677608821449406
21.594824,6.056947501172848,0.14651967953000838
21.597208,6.0775256912865885,0.1462346611109815
21.599604,6.098475968452663,0.1459697526811453
21.601992,6.121381124536914,0.14571330172898422
21.604372,6.145589533233281,0.14546060564727417
21.606768,6.172172129728405,0.14518907807223982
21.609156,6.196053777342809,0.14499605086838752
21.611536,6.222496604211073,0.1447257052545507
21.61394,6.246705012907441,0.14446503076637893
21.616328,6.269889708245414,0.14418282118853118
21.618708,6.285532531306546,0.14398321892916222
21.621104,6.2925625469041915,0.1438901982495435
21.623492,6.296054891717827,0.14380135988130568
21.625876,6.295730026493733,0.1437338543554485
21.628272,6.291960038284246,0.14370706464868405
21.63066,6.289820063768838,0.14362232634567132
21.63304,6.2859575277607345,0.14355733910730564
21.635436,6.288660372499319,0.1433507854807161
21.637824,6.288709490185433,0.14317674208230655
21.64022,6.289177916752125,0.14297694315537102
21.642616,6.293278457759316,0.14268551806494698
21.645004,6.293142479848193,0.14243738165306444
21.647384,6.292354875631014,0.14218495193572817
21.64978,6.291055414734637,0.14192040031479883
21.652168,6.289244097159061,0.14164295005232255
21.654548,6.28571021809079,0.14138354817126647
21.656948,6.2879503238362915,0.140986297281991
21.659336,6.290609738462374,0.14056537327064733
21.66172,6.290335886782262,0.140190914005415
21.664116,6.287268538422811,0.13985724254366771
21.6665,6.286343060436641,0.13947689557953857
21.668884,6.291284115062861,0.13899640244314188
21.67128,6.293152133756024,0.138572925405093
21.673668,6.291807346889273,0.1382159313013238
21.676052,6.293675365582437,0.13779207107524985
21.678456,6.2886059164765715,0.13749102416275563
21.680844,6.280742970691371,0.13723104536602715
21.683224,6.264592082666784,0.1371311868860116
21.68562,6.252165856881308,0.13697642904445706
21.688012,6.242253588521449,0.13679801038011932
21.690392,6.22978014090773,0.1366877817890939
21.692788,6.216328305905991,0.13663737349049682
21.695176,6.205530197956728,0.13655508760476523
21.69756,6.1964546515001615,0.13645433034671733
21.699956,6.190824228028985,0.13631774087406742
21.702344,6.187987301237145,0.13614161526199
21.704724,6.182309655937728,0.13605107140745973
21.707124,6.1763524713845905,0.1359771147707613
21.709512,6.181057416869594,0.13573789865990538
21.711892,6.190697729407209,0.1354197276856051
21.714292,6.202200373064382,0.13507719413942262
21.71668,6.208116023362885,0.1348106372452404
21.71906,6.219106810340861,0.1344564581113299
21.72146,6.232379237318973,0.1340495797305524
21.723848,6.241507693177391,0.1337192966985719
21.726232,6.255571516088422,0.13330802522401572
21.728628,6.271637439745869,0.13286274907589124
21.731016,6.288634528963095,0.13240244755059763
21.733396,6.301487647060626,0.1320190206641836
21.735792,6.31233866441174,0.1316714271730244
21.738184,6.322258516203076,0.1313346540878151
21.740564,6.336462108740967,0.13091378803655523
21.742964,6.347592665345802,0.1305472577130746
21.745352,6.355650186017582,0.13023509766601088
21.747732,6.359051878890471,0.12998561284864418
21.750136,6.361382636576719,0.12975780182964297
21.75252,6.367345508703466,0.1294428066329104
21.754904,6.367953704897018,0.12923096394536376
21.7573,6.35682883586579,0.1292029470114932
21.759684,6.34169976534173,0.1292400359792407
21.762068,6.326291155563946,0.12929268138737263
21.764464,6.314467438398417,0.1293047978355892
21.766852,6.303435117165805,0.1293111741118362
21.769232,6.295847918918586,0.12928553335970466
21.771628,6.2911939869775635,0.1292159568157487
21.774016,6.287191681342598,0.12915088369089692
21.776396,6.284911937200328,0.12907069235115512
21.778792,6.281701027498281,0.1290018698224159
21.78118,6.278629887423094,0.12892464972211037
21.783576,6.275698516974765,0.12883916871620305
21.785976,6.278493909511967,0.12867610321428405
21.788364,6.277424870183196,0.128567568212082
21.790744,6.281430967533897,0.12837751313089135
21.79314,6.290372431937211,0.12811473394533246
21.795524,6.303038558579637,0.12780537210916382
21.797904,6.316496081154981,0.1274936033240424
21.8003,6.330605230036386,0.12719153404031572
21.802688,6.351279759664484,0.12676463676515848
21.805072,6.379822922651386,0.12622134203654334
21.807476,6.410368186384705,0.12564879642389062
21.80986,6.439330658252189,0.1250836862925163
21.812244,6.468432899746531,0.12451463959462955
21.81464,6.492739543815125,0.12401176757471903
21.817028,6.513181756017743,0.123563460601738
21.819408,6.53441536415328,0.12311620921524574
21.821804,6.556068281169398,0.12265112513682158
21.824192,6.572785831132902,0.12225465698833889
21.826588,6.59336781296238,0.12180879880104226
21.828984,6.617814226657831,0.12131382234517912
21.831372,6.638256438860449,0.1208736643131917
21.833752,6.652040722517759,0.12051738978565135
21.836148,6.667827106921485,0.12013133456576672
21.83854,6.682682325765436,0.11976125055156771
21.84092,6.692881716810493,0.11944430955575618
21.843316,6.70336064710927,0.11911391348236813
21.845704,6.712256785542213,0.11878877461745568
21.848088,6.717288492109179,0.11851311754841527
21.850484,6.720178328302867,0.11827408669036768
21.852872,6.718412336697664,0.11808482366729882
21.855252,6.715715179532684,0.11790560845764704
21.857652,6.717161993487398,0.11766594633527627
21.86004,6.717398102628613,0.11745130219998434
21.86242,6.717494442142967,0.1172430420704733
21.864824,6.71987242165746,0.1169931164432821
21.867212,6.719596674119479,0.11676490261045774
21.869592,6.714757646581222,0.11661983905762538
21.871988,6.714714216468717,0.11641949271839215
21.874376,6.712528915982935,0.11625363905565048
21.87676,6.70647918363118,0.11613292134461632
21.879156,6.7075066887053145,0.11591635968985584
21.881544,6.713469560832061,0.11563792311681671
21.883928,6.722505468891862,0.11531910524535285
21.886324,6.727397405831968,0.11505976219147067
21.888712,6.735222609078271,0.11476567295102391
21.891092,6.743839208257491,0.11447216836143939
21.8935,6.7543181385562665,0.11416132951405512
21.895888,6.766799169601461,0.11382579815172736
21.898268,6.783144632512628,0.1134512861786059
21.900664,6.801212656916492,0.11306575432067269
21.903052,6.818209746133717,0.11269638044099962
21.905432,6.828920993857972,0.11241709261532115
21.907828,6.839260154529888,0.11211756468356228
21.910216,6.851880955201943,0.11177815481426531
21.912596,6.864501755873997,0.11144120294395424
21.914992,6.8799160532253865,0.11108005587677236
21.91738,6.9008247961368285,0.11063423874159234
21.91976,6.922013078301992,0.11017874085781132
21.922156,6.94776464046743,0.10965299215002089
21.924544,6.9775204041257,0.10908170111373344
21.92694,7.00206126147764,0.10858214936664495
21.929336,7.02432047882944,0.10812272764979014
21.931724,7.037360588382077,0.10777629364445195
21.934104,7.053333964240907,0.10739817891588391
21.9365,7.0671654697264605,0.1070511697642201
21.938892,7.079274413719317,0.10671526396705941
21.941272,7.091523127339035,0.1063744713554656
21.943668,7.100978344279415,0.10605725038812677
21.946056,7.105498194167184,0.10579453374550397
21.948436,7.114301784801508,0.1054762699356256
21.95084,7.125107476182248,0.10513653917252944
21.953228,7.138846433869185,0.10476567696305143
21.955608,7.154168183421958,0.10439479136640618
21.958004,7.171352264094287,0.10401168285471828
21.960392,7.18546330883356,0.10366473096053483
21.962772,7.19584969133372,0.10334796841219662
21.965172,7.197576044542155,0.10311027011836682
21.96756,7.195577735511476,0.10290199034325989
21.96994,7.183289383494993,0.10281360836966183
21.972336,7.17006986591873,0.10273172794216037
21.974724,7.160063153902385,0.1026078234914415
21.977104,7.149824124460562,0.10245663223330048
21.979504,7.1498751380045436,0.1021865728483391
21.981892,7.147691733376631,0.10191043195032334
21.984272,7.145787868002439,0.10162013332998018
21.986668,7.138808865948775,0.10138418040739543
21.989056,7.127965432029138,0.10118282732262723
21.991436,7.118053163669277,0.10097364242778073
21.993836,7.107629038630222,0.10075006013858519
21.99622,7.089056740978636,0.10061698673343683
21.998616,7.0656888459013,0.1005257661059187
22.001012,7.0467444611973775,0.10037067429023293
22.0034,7.026729141306817,0.1002288481633657
22.005784,7.002849389550283,0.1001203167555609
22.00818,6.981251277793885,0.099976818775028
22.010568,6.958722000477709,0.09983954926518863
22.012948,6.942571112453122,0.09966038218353225
22.015348,6.928142785921231,0.09947354919907017
22.017736,6.92000030088231,0.09920903739784524
22.020116,6.9059912832310015,0.0989993723363015
22.022516,6.891051100019911,0.0987961780047937
22.024904,6.8766227734880205,0.09860611456847256
22.027284,6.856327914343742,0.09846976335294877
22.029684,6.835473976692019,0.09836021195753147
22.032072,6.8156909742269365,0.09823575649574796
22.034456,6.801914274001103,0.09804950645285963
22.036852,6.794004106387659,0.09780868618544324
22.03924,6.787304643587715,0.09754690514813144
22.041624,6.78125680709383,0.09729146984169482
22.04402,6.777630380226942,0.09699281345959519
22.046412,6.780289794853023,0.09661858403121494
22.048792,6.775732202426356,0.09632644139184772
22.051188,6.767869256641157,0.09603814844375082
22.053576,6.762148181229235,0.09572196954399222
22.055956,6.7573582713770906,0.09539978753971963
22.05836,6.754570462271364,0.09505618418056856
22.060748,6.752201962046216,0.09469274022105559
22.063128,6.7470399651417345,0.09434716458353731
22.065524,6.7428091337970315,0.09399589877804403
22.067912,6.745515770251357,0.09357863921009651
22.070292,6.746499845212986,0.09316644239667206
22.072688,6.745481819428198,0.09277282475620093
22.075076,6.743532628083632,0.09238318974657432
22.077456,6.745727407858759,0.09194802836118048
22.079852,6.748573813939945,0.09152205201144228
22.082236,6.7456934570356015,0.09113793412671121
22.084636,6.737086337145727,0.09079737184889869
22.087032,6.727268512442355,0.09047627634814236
22.089416,6.714517421432788,0.09017840604308096
22.0918,6.706422158222111,0.08985063252783038
22.094196,6.69390338463802,0.08958109076352498
22.09658,6.682595315867427,0.08928996010380127
22.09896,6.6758033052688655,0.08897523539627225
22.101356,6.665658719483529,0.08870520228066374
22.103744,6.652161558511416,0.08848044999738824
22.106128,6.640526728658861,0.08824357788599246
22.108524,6.629171438060025,0.08799244518537626
22.110908,6.620749413767384,0.08771633150833215
22.113288,6.610045749474607,0.08747219491554327
22.115688,6.6002732507416075,0.08722343373768258
22.118076,6.59408564462086,0.0869599183476461
22.120456,6.591110844060031,0.08665947156183747
22.122852,6.594793972044508,0.0863163128244153
22.12524,6.595264294469071,0.08601016217210944
22.12762,6.592941120214299,0.08571919379733088
22.130016,6.598207040064613,0.08538006295392056
22.132404,6.6038450469672645,0.0850610593955767
22.134784,6.610553989056555,0.08473019036163267
22.13718,6.622198298198458,0.08435893127533735
22.139568,6.627976074727968,0.08403295394721422
22.141952,6.635755952003898,0.08368936845192403
22.144348,6.645258390772522,0.08334234847507054
22.146736,6.653550124727649,0.08301532695334782
22.149112,6.667987930548885,0.08263183440216519
22.151512,6.684707376370259,0.08221717798816
22.1539,6.699564491072077,0.08181381936055554
22.15628,6.70985832577362,0.08147115005369576
22.158692,6.719081225288525,0.08114047580980001
22.16108,6.731516930363345,0.08077645343134439
22.16346,6.737946333198915,0.08046190882932894
22.165856,6.740371534541651,0.08017996516428544
22.168244,6.738792534391554,0.0799296114746306
22.170624,6.730927692748485,0.07974104841521869
22.17302,6.7242735559189155,0.07953404414399917
22.175408,6.721483850955319,0.07930245533649596
22.177788,6.718833915618582,0.0790661144837499
22.180184,6.721818195468759,0.07876235011647678
22.182572,6.722800374572518,0.07847324363699626
22.184952,6.7217804529298615,0.07819943589628901
22.187348,6.725835667966677,0.07788518098512429
22.18974,6.73217252300363,0.07754470116001323
22.19212,6.738369608413723,0.07721123454535839
22.194516,6.745917168264174,0.07685521171102504
22.196904,6.7494605266217915,0.0765295415348268
22.199284,6.750070618673213,0.07622096661085388
22.201684,6.750261401844056,0.075931498837465
22.204072,6.753525220947954,0.07561632013431548
22.206452,6.7606534719178235,0.07528098007602327
22.208852,6.761915190275304,0.07498084129414309
22.211236,6.762105973446147,0.07468822237899102
22.21362,6.763367691803627,0.0743841419817113
22.216016,6.768493842027081,0.07405796961486198
22.218404,6.778183272250809,0.07367748600905624
22.220784,6.787872702474537,0.07329805596763031
22.22318,6.79462886639207,0.07293745099906083
22.225568,6.795378728070353,0.07261853459220899
22.227952,6.794638345681417,0.07233195049625302
22.230348,6.798833330345092,0.07201639378112655
22.232736,6.808103451688239,0.07166730291004082
22.235116,6.812018897098194,0.07136681904503607
22.237516,6.813792472134873,0.07108702382818759
22.2399,6.8158455864252705,0.07079470304360537
22.242284,6.8148256647826155,0.07052431252318268
22.24468,6.814736908699737,0.07025075290996047
22.247068,6.819583519669471,0.06994963605739321
22.249452,6.830064345826115,0.06959175264910127
22.251864,6.842687042356039,0.06921768105340287
22.254252,6.8526560118334885,0.06884845554791554
22.256632,6.868211974669607,0.06846263601448027
22.259028,6.892987045304892,0.06801723538783669
22.261416,6.920695382246372,0.0675599818610955
22.263796,6.9482639495609915,0.06711205482233044
22.266192,6.972479941688835,0.06669908152622078
22.26858,6.996695933816679,0.06628787672120208
22.270964,7.019980760384744,0.06587838722583231
22.27336,7.047409558072503,0.06544090134721146
22.275748,7.068180427214955,0.06502530222768162
22.278128,7.085878260424351,0.06463242369298328
22.280528,7.096359086580998,0.06428775209736723
22.282916,7.107910847924283,0.0639323280816274
22.285296,7.116249803707654,0.06360126244619654
22.287692,7.123657593931245,0.06327277310114747
22.29008,7.136931916767227,0.06292080606781604
22.29246,7.151416944416708,0.06255608352528715
22.294856,7.162828936133132,0.06221142199051185
