Time,Force,Position
21.99194,0.0,0.0
21.994344,0.0,0.0
21.996728,0.0,0.0
21.999112,0.0,0.0
22.001508,0.0,0.0
22.003892,0.0,0.0
22.006276,0.0,0.0
22.008672,0.0,0.0
22.01106,0.0,0.0
22.01344,0.0,0.0
22.015836,0.0011350050904768187,0.0
22.018224,0.003340945367592168,0.0
22.020604,0.007409216764264157,0.0
22.023,0.012408653720714466,0.0
22.025388,0.013403889184331077,0.0
22.027768,0.015470059834586214,0.0
22.030172,0.017536230484841354,0.0
22.03256,0.020533566694874817,0.0
22.03494,0.024741607718407017,0.0
22.037344,0.027878713555300683,0.0
22.039728,0.031155589019054564,0.0
22.042112,0.03149919817661327,0.0
22.044508,0.03370513845372863,0.0
22.046896,0.03577130910398376,0.0
22.049276,0.04077074606043408,0.0
22.051676,0.045630413390024174,0.0
22.054064,0.052631951092891344,0.0
22.056444,0.060564654355536825,0.0
22.05884,0.06863712724504252,0.0
22.061228,0.076569830507688,0.0
22.063612,0.08029449274680128,0.0
22.066008,0.07908378793330255,0.0
22.068392,0.07501551653663056,0.0
22.070776,0.07001607958018025,0.0
22.073172,0.06902084411656365,0.0
22.075556,0.06695467346630848,0.0
22.077956,0.06488850281605335,0.0
22.080352,0.061891166606019885,0.0
22.08274,0.057683125582487685,0.0
22.08512,0.05454601974559402,0.0
22.087516,0.05126914428184014,0.0
22.089904,0.050925535124281426,0.0
22.092288,0.048719594847166085,0.0
22.094684,0.046653424196910945,0.0
22.097072,0.041653987240460634,0.0
22.099456,0.03679431991087053,0.0
22.101852,0.02979278220800337,0.0
22.10424,0.021860078945357887,0.0
22.106616,0.013787606055852195,0.0
22.109012,0.00585490279320671,0.0
22.111396,0.0009952354636166086,0.0
22.113792,0.0,0.0
22.116188,0.0,0.0
22.118576,0.0,0.0
22.120956,0.0,0.0
22.12336,0.0,0.0
22.125748,0.0,0.0
22.128128,0.0,0.0
22.130532,0.0,0.0
22.13292,0.0,0.0
22.1353,0.0,0.0
22.137696,0.0,0.0
22.140084,0.0,0.0
22.14246,0.0,0.0
22.144856,0.0,0.0
22.147244,0.0,0.0
22.149624,0.0,0.0
22.15202,0.0,0.0
22.154408,0.0,0.0
22.156792,0.0,0.0
22.159188,0.0,0.0
22.161576,0.0,0.0
22.163972,0.0,0.0
22.166368,0.0019736228516380803,0.0
22.168756,0.00197362285163808,0.0
22.171136,0.00197362285163808,0.0
22.173532,0.0019736228516380803,0.0
22.17592,0.0019736228516380803,0.0
22.1783,0.0019736228516380803,0.0
22.180704,0.0019736228516380803,0.0
22.183092,0.0019736228516380803,0.0
22.185472,0.0019736228516380803,0.0
22.187868,0.0019736228516380803,0.0
22.190256,0.0019736228516380803,0.0
22.192636,0.0019736228516380803,0.0
22.195036,0.0019736228516380803,0.0
22.19742,0.0019736228516380803,0.0
22.199804,0.0019736228516380803,0.0
22.2022,0.0019736228516380808,0.0
22.204588,0.0019736228516380808,0.0
22.206968,0.0019736228516380808,0.0
22.209372,0.0019736228516380808,0.0
22.21176,0.0019736228516380808,0.0
22.21414,0.0,0.0
22.21654,0.0,0.0
22.218924,0.0,0.0
22.221308,0.0,0.0
22.223712,0.0,0.0
22.2261,0.0,0.0
22.228484,0.0009026876649995498,0.0
22.23088,0.0036677064495557396,0.0
22.233268,0.005501559674333609,0.0
22.235648,0.00840634808575001,0.0
22.238044,0.0111713668703062,0.0
22.240432,0.01272568084136365,0.0
22.242812,0.01272568084136365,0.0
22.245208,0.01272568084136365,0.0
22.247596,0.01272568084136365,0.0
22.24998,0.01272568084136365,0.0
22.252376,0.01272568084136365,0.0
22.254764,0.01272568084136365,0.0
22.257144,0.01272568084136365,0.0
22.259544,0.01272568084136365,0.0
22.261932,0.01272568084136365,0.0
22.264312,0.01272568084136365,0.0
22.266716,0.01272568084136365,0.0
22.269104,0.012725680841363652,0.0
22.271484,0.012725680841363652,0.0
22.273888,0.012725680841363652,0.0
22.276276,0.011822993176364103,0.0
22.27866,0.00905797439180791,0.0
22.281056,0.007224121167030041,0.0
22.283444,0.00431933275561364,0.0
22.285828,0.0015543139710574496,0.0
22.288224,0.0,0.0
22.290612,0.0,0.0
22.292992,0.0,0.0
22.295392,0.0,0.0
22.29778,0.0,0.0
22.30016,0.0,0.0
22.302556,6.406990383828805e-05,0.0
22.304944,0.003061406113871748,0.0
22.307328,0.0030614061138717476,0.0
22.309724,0.003916871950628146,0.0
22.312112,0.009707704839996568,0.0
22.314492,0.013496436982948137,0.0
22.316896,0.016074464312400966,0.0
22.31928,0.020514822761410437,0.0
22.32166,0.029890548263031932,0.0
22.324064,0.038335108204875096,0.0
22.326452,0.046639898519858065,0.0
22.328832,0.053873753648202495,0.0
22.331228,0.05738294653743364,0.0
22.333616,0.06182330498644311,0.0
22.336,0.07040763455514651,0.0
22.338396,0.0759189281907945,0.0
22.340784,0.0814302218264425,0.0
22.343164,0.08386847952903509,0.0
22.345568,0.08816906835118436,0.0
22.347956,0.09046755642691678,0.0
22.350336,0.0904034865230785,0.0
22.352736,0.08740615031304505,0.0
22.35512,0.08740615031304505,0.0
22.3575,0.08655068447628864,0.0
22.3599,0.08075985158692023,0.0
22.362288,0.07697111944396864,0.0
22.364668,0.07439309211451584,0.0
22.367072,0.06995273366550635,0.0
22.36946,0.06057700816388486,0.0
22.37184,0.05213244822204169,0.0
22.374236,0.043827657907058726,0.0
22.376624,0.036593802778714296,0.0
22.379004,0.03308460988948314,0.0
22.381404,0.02864425144047367,0.0
22.383788,0.02005992187177029,0.0
22.386172,0.01454862823612229,0.0
22.388568,0.00903733460047429,0.0
22.390952,0.006599076897881669,0.0
22.393332,0.0022984880757324086,0.0
22.39574,0.0,0.0
22.398124,0.0,0.0
22.400508,0.0,0.0
22.402904,0.0,0.0
22.405292,0.002066170650255139,0.0
22.407672,0.00534304611400902,0.0
22.410072,0.005343046114009019,0.0
22.41246,0.005686655271567727,0.0
22.41484,0.005686655271567728,0.0
22.417236,0.005686655271567728,0.0
22.419624,0.005686655271567728,0.0
22.422004,0.005686655271567728,0.0
22.424404,0.005686655271567728,0.0
22.426788,0.009615157041379508,0.0
22.429184,0.013543658811191288,0.0
22.43158,0.01882263502136202,0.0
22.433972,0.022239280111976106,0.0
22.436352,0.024864529269672087,0.0
22.438748,0.02486452926967209,0.0
22.441136,0.024864529269672093,0.0
22.443516,0.02576721693467164,0.0
22.445912,0.025767216934671645,0.0
22.448304,0.025767216934671645,0.0
22.450684,0.025767216934671645,0.0
22.453084,0.023701046284416504,0.0
22.455472,0.020424170820662623,0.0
22.457852,0.020424170820662623,0.0
22.460248,0.020080561663103916,0.0
22.462636,0.020080561663103916,0.0
22.465016,0.020080561663103916,0.0
22.46742,0.02008056166310392,0.0
22.469808,0.02008056166310392,0.0
22.472192,0.02008056166310392,0.0
22.474588,0.016152059893292138,0.0
22.476976,0.012223558123480353,0.0
22.479356,0.006944581913309621,0.0
22.481752,0.0035279368226955304,0.0
22.48414,0.0009026876649995499,0.0
22.486524,0.0009026876649995499,0.0
22.488928,0.0009026876649995499,0.0
22.491316,0.0,0.0
22.493696,0.0,0.0
22.496092,0.0,0.0
22.498476,0.0,0.0
22.500856,0.0,0.0
22.50326,0.0,0.0
22.505648,0.0,0.0
22.508032,0.0,0.0
22.510428,0.0,0.0
22.512816,0.0,0.0
22.5152,0.0,0.0
22.517596,0.0,0.0
22.519984,0.0,0.0
22.522364,0.0,0.0
22.52476,0.0,0.0
22.527148,0.0,0.0
22.529532,0.0,0.0
22.531936,0.0,0.0
22.534324,0.0,0.0
22.536704,0.0,0.0
22.5391,0.0,0.0
22.541488,0.0,0.0
22.543872,0.0,0.0
22.546268,0.0,0.0
22.548656,0.0,0.0
22.55104,0.0,0.0
22.553436,0.0,0.0
22.555824,0.0,0.0
22.558204,0.0,0.0
22.5606,0.0,0.0
22.562988,0.0,0.0
22.565372,0.0,0.0
22.567768,0.0,0.0
22.570156,0.0,0.0
22.572536,0.0,0.0
22.574932,0.0,0.0
22.57732,0.0,0.0
22.579704,0.0,0.0
22.5821,0.0,0.0
22.584488,0.0,0.0
22.586872,0.0,0.0
22.589268,0.0,0.0
22.591656,0.0,0.0
22.59404,0.0,0.0
22.596436,0.0,0.0
22.598824,0.0,0.0
22.601208,0.0,0.0
22.603604,0.0,0.0
22.605992,0.0,0.0
22.608376,0.0,0.0
22.610772,0.0,0.0
22.61316,0.0,0.0
22.615544,0.0005759265830359785,0.0
22.617944,0.0005759265830359784,0.0
22.620328,0.0005759265830359784,0.0
22.622708,0.0005759265830359785,0.0
22.625112,0.0005759265830359785,0.0
22.6275,0.0005759265830359785,0.0
22.62988,0.002081122867981029,0.0
22.632284,0.01350237922852404,0.0
22.634672,0.029624789358332557,0.0
22.637052,0.05096020993660427,0.0
22.639444,0.08467842618784534,0.0
22.641832,0.12500545329828247,0.0
22.644228,0.17245314794711333,0.00820815512286315
22.646632,0.2303268634928706,0.01649973112597479
22.64902,0.29941799586847234,0.02481067134706428
22.651396,0.37930723619333795,0.03324342579487745
22.6538,0.4682720229747711,0.04186465428020951
22.656188,0.5663123562127717,0.05063946290119649
22.658568,0.6797140774003106,0.05909117705286793
22.660972,0.8027504235518579,0.06758381805512281
22.66336,0.9352647769649581,0.07604605878890558
22.66574,1.0786885300594036,0.08444189994305876
22.668144,1.2317941299461006,0.09277884984983553
22.670528,1.396071820692268,0.10096074319857255
22.672912,1.565655069685516,0.1092268361247292
22.675304,1.7436169128588996,0.11744635527929476
22.677692,1.9268693620616373,0.12565087252647342
22.680072,2.104068287196881,0.13394236894692022
22.682468,2.2827102345711014,0.14221585234235498
22.684852,2.460840325266124,0.15048406726607144
22.687236,2.6281231903257702,0.1587989529280721
22.689632,2.7894016490040348,0.16718734232538396
22.69202,2.946213167196381,0.1672997566679149
22.6944,3.0925986644918,0.1673287501301974
22.6968,3.2303279242112333,0.16721562536196652
22.699184,3.356235362623006,0.16694994737991373
22.701568,3.4749768075260126,0.16637387595564163
22.703964,3.5866920285471102,0.16551109904172828
22.706352,3.6797405082601378,0.1650299974001062
22.708732,3.764644607076376,0.16442871545897617
22.711128,3.8365615057418307,0.16394640248084275
22.713516,3.8978653920552544,0.16355807750941162
22.715896,3.948928353068987,0.16328404727718684
22.718296,3.9890515406487257,0.16320863188490825
22.720684,4.025032652966639,0.163066421392308
22.723064,4.0539384237165335,0.16297423283375267
22.72546,4.077491414391105,0.1628867930340094
22.727848,4.093037897937877,0.16285848568984687
22.730232,4.104442306222825,0.16278132149798114
22.732628,4.114218596671562,0.16260473326878816
22.735012,4.120596985963149,0.16243260436268578
22.737408,4.125207487791667,0.16216982692811835
22.739808,4.128514737008069,0.16190806400175078
22.742192,4.13331223029169,0.16156684211723274
22.744576,4.1319636517092,0.16143580459568938
22.746976,4.131778556111967,0.16132171211175889
22.749364,4.127821576447376,0.16138122687643003
22.751744,4.121023878275207,0.1615860484279601
22.754148,4.113527331968737,0.1618679338330943
22.756532,4.104400771968189,0.16224346883360302
22.758916,4.102351449393529,0.16238039433655738
22.761312,4.101512831632368,0.16246361351460156
22.7637,4.103375162751925,0.16241240826581718
22.76608,4.106215881259502,0.1622651251139917
22.768476,4.11217685752838,0.16194916472418777
22.770864,4.116974350812,0.16161652765430828
22.773244,4.120748130737226,0.16125456279574377
22.775644,4.132018456968921,0.1606251725350101
22.778032,4.137701789841946,0.16014160211987571
22.780412,4.137658359729441,0.1598203722731581
22.782816,4.1417589007366304,0.15936105662521255
22.7852,4.149164795102353,0.15884675653866964
22.78758,4.1544288190947976,0.15840904371904274
22.789976,4.159413303833523,0.15800214817445116
22.792364,4.169053616371138,0.1574725600691794
22.794748,4.179485324841672,0.15693461576942308
22.797144,4.194061004431901,0.1562634227723225
22.799532,4.211430180701464,0.15552501507888483
22.801916,4.2338744936505,0.15461764010743728
22.80432,4.255667180293476,0.1537043511194698
22.806704,4.27331589581676,0.15294110293453217
22.809088,4.290173215407125,0.1521915759940067
22.811484,4.305819830183992,0.1515003060465537
22.813872,4.318393409027802,0.15090325952158326
22.816252,4.322818815259086,0.1505557827070976
22.818648,4.329246322236786,0.1501530737976514
22.821036,4.335254520333906,0.14978994582546493
22.823416,4.334837107311194,0.1496385154897327
22.82582,4.340937853206931,0.14933033147121338
22.828204,4.353556758021116,0.14886806319429038
22.830584,4.3618919220887475,0.1485467703660001
22.832984,4.369807777275798,0.14826823441592032
22.835372,4.380656898769044,0.14791438850843552
22.837752,4.390155545821931,0.14762137202559053
22.840152,4.399654192874817,0.14733124385011467
22.842536,4.405428177688591,0.14712433273892395
22.844916,4.410643083994922,0.14697028946373292
22.847312,4.413576350301118,0.14689570071505584
22.8497,4.418371947726869,0.14678178036510586
22.85208,4.425541732951376,0.14664373923398963
22.854476,4.435365245228357,0.14645908749070793
22.856864,4.445700614184535,0.14629106862315083
22.859244,4.451892012021021,0.14623804873301047
22.86164,4.460597367283119,0.14614732795114233
22.864032,4.474889715903888,0.14593072714411998
22.866412,4.487831590084299,0.14577483459111884
22.868808,4.503706730570904,0.14554955151206056
22.8712,4.52530863404304,0.1451890415585397
22.87358,4.5455600630748165,0.14489210783674647
22.875996,4.562458916919817,0.14470719790285624
22.878384,4.584804994496627,0.14441792565867623
22.880764,4.60514897132702,0.14418032822695148
22.883164,4.624794100023113,0.14400560228900253
22.885548,4.645230624652124,0.14382290507636425
22.887928,4.666970401893251,0.1436521883511549
22.890328,4.695879964358883,0.14335505147516653
22.892712,4.724649757197656,0.14307387101605962
22.895096,4.754350715596207,0.14277257882717861
22.897492,4.785634465860594,0.1424711174509398
22.89988,4.817989151311619,0.14214692179018124
22.902264,4.848201966389367,0.14188403771541866
22.90466,4.8806964214672535,0.1415589944996507
22.907048,4.920268113971027,0.1410677713974581
22.909428,4.965985878340914,0.1404491158262435
22.911828,5.012355269016856,0.1398436915940646
22.914216,5.059516055625718,0.13923658798643274
22.916612,5.102113562234305,0.13876076223865214
22.919008,5.141777802536697,0.1383489182868115
22.921396,5.178508776532894,0.13799478418749303
22.92378,5.215798829036531,0.13760075767711732
22.926176,5.252577024860971,0.13720420109957843
22.928564,5.292428256618466,0.13674292128236798
22.930948,5.326972034271011,0.13635056334232215
22.933344,5.361935120804136,0.13593014445946452
22.935732,5.395455185098287,0.13551588463886546
22.938112,5.424738730474126,0.13515755031837604
22.940508,5.453510419170768,0.13478847082257261
22.942896,5.4827014167479895,0.13439177827215687
22.945276,5.503511924287208,0.13413368535349474
22.94768,5.52301917921431,0.13387139958185099
22.950068,5.540571555223238,0.13359431878228062
22.952448,5.554259499366192,0.13338937011220878
22.954848,5.566085112389589,0.13321861345104227
22.957236,5.568039991307763,0.13323289987443515
22.959616,5.569250696121262,0.13319970755425295
22.962012,5.570089313882423,0.13314304268532665
22.9644,5.574187959031743,0.1329638360067781
22.966784,5.583269193061917,0.1326475591828239
22.96918,5.595330915226532,0.13222949823735236
22.971568,5.606880780711948,0.13179965583743516
22.973952,5.6100501561593585,0.13149077108256432
22.976348,5.608191616755541,0.1312267858849348
22.978732,5.611827522911776,0.13083723408504266
22.981116,5.611878536455757,0.13049213053004657
22.983512,5.609695131827844,0.13015027914984145
22.9859,5.606999870520735,0.12979363711131275
22.98828,5.600999255855092,0.12946241869829106
22.990676,5.594486784510251,0.1291169334915398
22.993064,5.591326888352187,0.12869057117334656
22.995448,5.584162790701288,0.12833674311212995
22.997844,5.575927757863751,0.12800397281160128
23.000232,5.568112033906794,0.12764164217469443
23.002628,5.553266294352192,0.12735997692047024
23.005024,5.538328006998973,0.12703297231111335
23.007412,5.51952528777978,0.12677024032697834
23.009796,5.495554884082498,0.12656153949546375
23.012192,5.4695823796387995,0.12638718686918834
23.01458,5.432528436276378,0.12642372205053487
23.016964,5.391610061047982,0.12652194876181164
23.01936,5.345756318766974,0.12671241862432508
23.021748,5.306840044284996,0.12677611234345823
23.024128,5.2685753961090755,0.12684682923723226
23.026524,5.228960273492797,0.12695527637122606
23.028912,5.189484920503379,0.12705737767492034
23.031292,5.14879886270046,0.1271960168570317
23.033692,5.107041869710904,0.1273577206504144
23.036076,5.065936503027405,0.12752747446633234
23.038456,5.021897870037711,0.12775004247705976
23.04086,4.978930172234656,0.12794265929522058
23.043248,4.937173179245099,0.1281039985014307
23.045632,4.897278517375099,0.12823804476952352
23.048028,4.85724408587824,0.1283810769766383
23.050416,4.82237733885947,0.12846984169224657
23.0528,4.790164318893173,0.1285245328994289
23.055196,4.759394321165853,0.1285816848574871
23.057584,4.732581303103124,0.1286177099456832
23.059968,4.704417810600035,0.12870144757869909
23.062364,4.6857057433215905,0.12862058012340993
23.064756,4.66829692865526,0.1285524131887519
23.067136,4.656195568093881,0.1284119990760987
23.069536,4.6398104667859466,0.12837894339629508
23.071924,4.624356531037791,0.1283298361238506
23.074304,4.6067607249163585,0.1283354581602255
23.076704,4.590607941033903,0.12834360870744088
23.079092,4.578179819390559,0.12828620255842027
23.081472,4.568265655172831,0.1282018914720286
23.083872,4.561936383567355,0.12806364772739642
23.08626,4.557841530133773,0.12792155922718795
23.088644,4.551325267073194,0.12785706447120265
23.09104,4.546391795878451,0.12778236556675307
23.093428,4.543041116549545,0.12769771555362686
23.095812,4.540342063526697,0.12761943072706444
23.098208,4.538434406436766,0.12753635369765848
23.100596,4.539692333078508,0.1274346494497908
23.10298,4.541462116399448,0.12735054711713978
23.105376,4.544954461213084,0.12724614535429662
23.107764,4.549750058638836,0.127153908346994
23.110148,4.554266116810868,0.1270864178565781
23.112544,4.5634380027817905,0.12694201472869684
23.114932,4.57433245024541,0.12678001547134862
23.117316,4.592676222187256,0.1264973827960969
23.119716,4.616047908980331,0.12617248505652215
23.122104,4.644866819505215,0.1257705451756055
23.124484,4.678201788202131,0.1253091606250645
23.126884,4.710837908764746,0.1249044877972867
23.129272,4.74277518119306,0.12455441472136704
23.131652,4.772291043994377,0.12427803704416295
23.134056,4.804320864221308,0.12398045000523765
23.136444,4.841797908180049,0.12360842470349587
23.138824,4.8776449384447105,0.12329968552126261
23.14122,4.913864055761709,0.12302020329350831
23.143604,4.951805734571405,0.12272456950315008
23.145988,4.990399039687157,0.1224387258560185
23.148384,5.024988143310077,0.12223104284184494
23.150772,5.058506311746358,0.1220430168161536
23.153152,5.092024480182639,0.12185877682071757
23.155548,5.128615684551976,0.12161181736925217
23.157936,5.163996184107814,0.12140529266820649
23.160316,5.198165978850152,0.12124063184522728
23.162712,5.229682046540017,0.12110965745510603
23.1651,5.2590562438566035,0.12103203798390448
23.16748,5.286847649307355,0.12096656897915765
23.169876,5.3119853277056315,0.12093292609524334
23.172264,5.339264876477186,0.12086232591283645
23.174648,5.369897000435515,0.12072077131189836
23.177044,5.401879598834202,0.12053916797397642
23.179432,5.437075002792805,0.1202949053820683
23.181828,5.468965053392877,0.12007135115017271
23.184224,5.498992772873391,0.1198765596877954
23.186612,5.535166564220016,0.11957670682050392
23.188992,5.572318742954662,0.11921793347906139
23.191388,5.608539756129529,0.11887340031244385
23.193776,5.645971474117896,0.11850479912039345
23.19616,5.6876869328528175,0.11805644706495164
23.198556,5.736479629013629,0.11750000122360725
23.20094,5.78448092924152,0.11695063703607388
23.203324,5.830899437603575,0.11641314062692537
23.20572,5.8725223485398805,0.11593431043507674
23.208108,5.909629201304153,0.11550176680916818
23.210492,5.950740255561259,0.11501491643445981
23.212888,5.987614790900053,0.11455765763542643
23.215272,6.018902332880179,0.11416587108009761
23.217656,6.051400579673802,0.1137508533654645
23.22006,6.075238797175704,0.11345235652422692
23.222448,6.0944211868787095,0.11320972808628288
23.224828,6.1123003239696025,0.11295627915088353
23.227228,6.125523633261602,0.11275517741567181
23.229616,6.14102858255374,0.11250907797271391
23.232,6.151226077740927,0.11230690297990041
23.234396,6.155045183636527,0.11216955174482872
23.236784,6.153928922479513,0.1120998708096192
23.239164,6.152720113523883,0.11199044391379465
23.241564,6.146203850463304,0.11192474085257952
23.243952,6.138244565163749,0.11185365491934249
23.246336,6.121253163520131,0.11186319350797419
23.248732,6.101887574077759,0.11187692686198837
23.25112,6.076934991276717,0.11195046307959915
23.2535,6.056033831796752,0.11192024115930756
