Time,Force,Position
22.962696,0.22932509221249742,0.0
22.965092,0.21680063105479863,0.0
22.96748,0.21149317694984915,0.0
22.96986,0.20683734915095753,0.0
22.972264,0.19534578608505318,0.0
22.974648,0.17957048227259467,0.0
22.977028,0.16579727920655304,0.0
22.979428,0.15378467472805193,0.0
22.981816,0.13987170203515006,0.0
22.984196,0.1240963982226916,0.0
22.986592,0.11032319515664994,0.0
22.98898,0.09533928727710957,0.0
22.99136,0.08342841533062458,0.0
22.993756,0.07044660819750104,0.0
22.996144,0.062400168116989514,0.0
22.99854,0.054353728036478005,0.0
23.000936,0.046027748702246074,0.0
23.003324,0.035559898994737084,0.0
23.005708,0.028025315593423274,0.0
23.0081,0.020761086712430824,0.0
23.010488,0.014567793018076909,0.0
23.012872,0.015451736749612076,0.0
23.015268,0.014473349361590601,0.0
23.017656,0.01791847234698346,0.0
23.020036,0.02726816503961077,0.0
23.022432,0.0375490232920164,0.0
23.02482,0.045827780798005174,0.0
23.027204,0.05485989714206796,0.0
23.0296,0.0660719209542519,0.0
23.031988,0.0792860455128527,0.0
23.034372,0.09357110525809204,0.0
23.036768,0.10692499944355305,0.0
23.039156,0.12041866325587428,0.0
23.04154,0.13284139188155697,0.0
23.04394,0.14526412050723966,0.0
23.046328,0.15754707950606214,0.0
23.048708,0.1688988729451063,0.0
23.051104,0.17903996157065172,0.0
23.053492,0.18717894944978028,0.0
23.055872,0.19318525168903083,0.0
23.058268,0.1991915539282814,0.0
23.060656,0.20319575542111507,0.0
23.063052,0.2049183169138115,0.0
23.065448,0.20743227433942601,0.0
23.067832,0.20608179989906708,0.0
23.070212,0.19900456247317796,0.0
23.072608,0.19327779948764784,0.0
23.074996,0.1858284750094213,0.0
23.077376,0.17889100721039242,0.0
23.07978,0.17209330903822376,0.0
23.082168,0.16636654605269363,0.0
23.084548,0.16143117900008164,0.0
23.086944,0.15421417194733233,0.0
23.089332,0.15100136638741676,0.0
23.091712,0.14993043120077823,0.0
23.094108,0.1474164737751637,0.0
23.096496,0.14583368190932744,0.0
23.09888,0.14667229967048867,0.0
23.101276,0.1517946581782041,0.0
23.103664,0.15905888705919655,0.0
23.10606,0.1661833463133288,0.0
23.108456,0.17316803594060082,0.0
23.110848,0.18350530075464863,0.0
23.113228,0.18904696814294464,0.0
23.115624,0.19617142739707688,0.0
23.118008,0.21302685112957295,0.0
23.120392,0.2293231963546282,0.0
23.122788,0.2446883760199051,0.0
23.125176,0.25753959825956746,0.0
23.127556,0.2650361445660372,0.0
23.129952,0.2693198853125913,0.0
23.13234,0.2758852660592827,0.0
23.13472,0.28459251717925116,0.0
23.137116,0.28943533643324615,0.0
23.139504,0.2910653501273255,0.0
23.1419,0.2990737531129929,0.0
23.1443,0.3080133216584386,0.0
23.146684,0.3176045165099422,0.0
23.149068,0.32570546729422667,0.0
23.151464,0.3347375836382895,0.0
23.153852,0.3419073688627956,0.0
23.156236,0.34614388778110655,0.0
23.158632,0.3502406370725573,0.0
23.16102,0.35806204860312135,0.0
23.163404,0.3655113730813479,0.0
23.165804,0.3668146256934637,0.0
23.168192,0.36932858311907824,0.0
23.170572,0.3735651020373893,0.0
23.172968,0.37859301688861835,0.0
23.175352,0.3857628021131245,0.0
23.177736,0.3940035225242692,0.0
23.18014,0.4019647036816934,0.0
23.182528,0.4091344889061996,0.0
23.184908,0.41802683562340215,0.0
23.187304,0.42799011752724325,0.0
23.189692,0.432086866818694,0.0
23.192072,0.4352524505503665,0.0
23.194468,0.4325515016696485,0.0
23.196856,0.427988221669374,0.0
23.199236,0.41620793461635014,0.0
23.20164,0.4085716186830202,0.0
23.204028,0.40400833868274566,0.0
23.206408,0.39637202274941574,0.0
23.208804,0.383940109390334,0.0
23.211192,0.3702974912177535,0.0
23.213572,0.3557237074853947,0.0
23.215968,0.3420810893128143,0.0
23.218352,0.3256449744608988,0.0
23.220732,0.31121096035540025,0.0
23.223136,0.2961253199438438,0.0
23.225524,0.2770354780394536,0.0
23.227908,0.2552919090825887,0.0
23.230304,0.237273002364837,0.0
23.232692,0.21473803747505396,0.0
23.235072,0.1917929484380893,0.0
23.237476,0.1699187945877632,0.0
23.239864,0.14804464073743706,0.0
23.242244,0.13017468837994467,0.0
23.24464,0.1133756712090908,0.0
23.247028,0.1034123893052497,0.0
23.249408,0.09223840258790984,0.0
23.251804,0.07799137993751462,0.0
23.254192,0.06653785396645437,0.0
23.256588,0.05787782467472907,0.0
23.258984,0.05000919131592188,0.0
23.261368,0.04549313314389048,0.0
23.263752,0.037773454145342535,0.0
23.266148,0.032055875893211454,0.0
23.268536,0.02433619689466351,0.0
23.270916,0.018339079388812008,0.0
23.273312,0.016756287522975786,0.0
23.2757,0.015825121963197464,0.0
23.278084,0.01247254677642166,0.0
23.28048,0.018803714239766543,0.0
23.282868,0.03322664775399684,0.0
23.285252,0.05491191429135034,0.0
23.287648,0.07850483791863438,0.0
23.290036,0.10745054162124185,0.0
23.292416,0.13918784614531501,0.0
23.29482,0.17325940551542918,0.0
23.297208,0.2110990572371613,0.0
23.299588,0.26094752172165603,0.008813379123256984
23.301984,0.3215940941554146,0.017647295669703918
23.304372,0.39448179677741313,0.026533479609481186
23.306756,0.48040202552056965,0.035421378168368364
23.309152,0.5820085074373589,0.04402098550181523
23.31154,0.7047865033544348,0.052298579404041104
23.31392,0.8453926228184204,0.06039758987874761
23.31632,0.996237771724229,0.06865161289559027
23.318708,1.165889431564969,0.07664200001933577
23.321092,1.34713978002129,0.08464523850181126
23.323488,1.540026854188036,0.09264287361756254
23.325876,1.7444581062665905,0.10058045401295568
23.328256,1.9523325854726683,0.10852295718963208
23.330652,2.15820306807446,0.1165637902971875
23.33304,2.3667726036991006,0.1245557880053459
23.33542,2.5823249330931435,0.1325363973138202
23.33782,2.8009030765919984,0.14049318506762443
23.340208,3.022694025650771,0.14845537275694737
23.342588,3.250166411724699,0.1562992457860781
23.344988,3.481831886604435,0.16398765695135445
23.347372,3.7078669380129967,0.16279372342447615
23.349772,3.92645645665907,0.16148028173097476
23.352168,4.134434858810983,0.16005852515386523
23.354556,4.3332923885359556,0.1585181458828823
23.35694,4.51408947728854,0.15725038818022216
23.359336,4.674032628389402,0.15629538284725616
23.361724,4.816055108144735,0.1554771834159293
23.364108,4.950399737712103,0.15442428757221668
23.366504,5.065286230038483,0.15363166094418368
23.368892,5.168163909602098,0.15282618295742065
23.371272,5.258194158641789,0.15207084956127237
23.373668,5.336260920889093,0.1514172785407472
23.376052,5.404506066717285,0.15078770483742462
23.378432,5.467585423925258,0.15007256151707665
23.38084,5.518421755087123,0.1494680653624749
23.383224,5.560507405016513,0.1488652102662914
23.385604,5.593283295205991,0.14830271947684592
23.388,5.621125714200723,0.1477085483424445
23.390388,5.639331612373578,0.14723269186823532
23.392768,5.6469226023365335,0.1469356022363354
23.395168,5.651487778194676,0.14666165970429487
23.397552,5.646042450320735,0.14660703795853802
23.399932,5.637524086513738,0.1466228432627523
23.402336,5.620578010840493,0.1468435534628265
23.404724,5.6010707559133905,0.14715255564366145
23.407108,5.580585113598267,0.14753725692890973
23.409504,5.557258752775566,0.14803167689738955
23.411892,5.53044004713923,0.14862516001767678
23.414272,5.502270867062536,0.14927212639965656
23.416668,5.47503285254562,0.14989938133503522
23.419056,5.451147413215479,0.1504323106272916
23.421452,5.42959083571372,0.1508425465480778
23.423848,5.409524502279179,0.15119450194138132
23.426232,5.388154916232521,0.15154180483017196
23.428616,5.3721400061190545,0.15175072232503664
23.431012,5.358127196752005,0.15191242248464615
23.433396,5.3473271929448725,0.15199129977737877
23.435776,5.33652718913774,0.1520688158693875
23.438184,5.325075559024548,0.15214337297366426
23.440568,5.316557195217554,0.1521570224801285
23.442948,5.3060367306641405,0.15221343986454255
23.445348,5.306597705029448,0.15202520143344145
23.447736,5.3128854423802885,0.1517284128552822
23.450116,5.325970877903297,0.15129278161253149
23.452516,5.3449228460386955,0.1507344488147954
23.4549,5.36694785010715,0.15010018447716378
23.45728,5.3932565949221605,0.14935440546754922
23.45968,5.418773943804251,0.14861014973699058
23.462064,5.448435263806035,0.14776664838475598
23.464448,5.476513791941983,0.1469390452671551
23.466844,5.504732089704791,0.14611274656221385
23.469232,5.5265247763477685,0.14544612536864612
23.471616,5.546315362244329,0.14482411982774449
23.474012,5.570249919260582,0.14411095462711482
23.4764,5.59246191478414,0.14343157604612827
23.478796,5.61374274474792,0.1427760288356493
23.481192,5.631810769151784,0.14220128727554004
23.48358,5.650018563182508,0.14162116410596282
23.48596,5.667295191653454,0.14105438706061382
23.488356,5.6836406545646225,0.1405066389789994
23.490744,5.7037107797149025,0.13990070911630412
23.493128,5.719636933745489,0.13939592540729448
23.495524,5.729696555163685,0.1390042567957051
23.497912,5.737754075835464,0.13865426969764783
23.500296,5.746091135760963,0.13829010525153387
23.502692,5.756290526806018,0.13789911844138894
23.50508,5.765139443410715,0.13755170514587572
23.50746,5.7777130222545265,0.1371475639334772
23.50986,5.78707379553842,0.13681487263472542
23.512244,5.795875490314874,0.13651746522599342
23.514628,5.800533213971633,0.1363050115400378
23.517028,5.809195139121226,0.1360138660589138
23.519412,5.817857064270821,0.13572133603436112
23.521796,5.821024543860362,0.13555824173509134
23.5242,5.819628743449627,0.1355088133893894
23.526584,5.8139492022923385,0.13555553696059636
23.528968,5.8112029274412444,0.1355486980424662
23.531364,5.806314782216874,0.13558962125173743
23.533752,5.805663155910814,0.13558553831180592
23.536132,5.803521285537536,0.13563333759829926
23.538528,5.79337101217859,0.1358362762195251
23.540916,5.78028747251345,0.13609313662888878
23.543296,5.769857659900786,0.13631562019482563
23.5457,5.760498782474759,0.13651279213272516
23.548088,5.745505689861819,0.13684937203488645
23.550472,5.729581431689101,0.1371970247045965
23.552864,5.716590439822578,0.13748914826628017
23.555252,5.70080595127672,0.13782271800088985
23.557632,5.687303102731,0.13809978704849069
23.560036,5.677152829372056,0.13829670033198818
23.562424,5.6742195630658605,0.13834776308719843
23.564804,5.67463887194644,0.1383205899938093
23.567204,5.679202151946715,0.1382119932643697
23.569592,5.688049172693543,0.1380127867122312
23.571972,5.700528307880868,0.1377162492381877
23.574372,5.717151414187889,0.13733494300429053
23.576756,5.7271165919496,0.13705823849278267
23.57914,5.739363409711447,0.13672685961236145
23.58154,5.747233938928124,0.13644759580057997
23.583928,5.755663546652241,0.13613041229079198
23.586312,5.770518765496189,0.13567048465958945
23.588708,5.787515854713415,0.13516204617161087
23.591096,5.802790382437944,0.13467317654638838
23.593476,5.814991874229418,0.1342450274120242
23.595872,5.831616876394306,0.13371072776762355
23.59826,5.847450482626276,0.13318386981955482
23.60064,5.857697095499576,0.13274287565282616
23.603036,5.871016744305932,0.13224331291228228
23.605424,5.881542896432952,0.13178604677381173
23.60782,5.890206717440416,0.1313595932776065
23.610216,5.888860034715795,0.1311174511811817
23.612604,5.882438215311702,0.1309713667941358
23.614988,5.872012194414776,0.13089722389955963
23.617384,5.8606550079580675,0.1308354296914097
23.619768,5.849297821501364,0.13077267905320636
23.622152,5.83742877836546,0.13069525835467277
23.624548,5.834639073401865,0.13045555909312004
23.626936,5.83077843325163,0.1302380055407367
23.629316,5.829199433101531,0.12996747832048247
23.631716,5.829622533697852,0.12966270678478484
23.634104,5.829486555786729,0.1293945142472921
23.636484,5.829210808248746,0.12913531472342576
23.638884,5.828003895150986,0.1288876909793855
23.641272,5.828799082799643,0.12860501652785233
23.643652,5.8295942704482995,0.12832358624122975
23.646048,5.829458292537177,0.12805457127743028
23.64844,5.8331867464920295,0.1277256669913942
23.65082,5.833981934140686,0.12744425736793558
23.65322,5.837430848841818,0.12713406516415696
23.655608,5.8380862668636135,0.12686020543673354
23.657988,5.843816821564882,0.12649387331987483
23.660388,5.851549477012567,0.12609221490125963
23.662776,5.858490736527334,0.12569256183565264
23.66516,5.8637094345494045,0.12531038647882167
23.667556,5.869579758877533,0.124934909041781
23.669948,5.873168443205526,0.12461092773395274
23.672328,5.869540120480769,0.12441998614210789
23.674728,5.865772028129151,0.1242379157566467
23.67712,5.863586727643368,0.12404942313106214
23.6795,5.860050952717228,0.12389978594812551
23.681904,5.854140989992334,0.12375984335602853
23.684288,5.847719170588241,0.12360516003791942
23.686668,5.845441322303842,0.12337585654707527
23.689072,5.842372078086526,0.12314947820572433
23.69146,5.835578171630095,0.12297046883111035
23.693836,5.829715430733444,0.12277912016565684
23.696236,5.820919423530596,0.12263209638259859
23.69862,5.812914812260668,0.12248161553829165
23.701,5.803187639498043,0.12234582730746688
23.703404,5.7979765249074475,0.1221591635275146
23.705792,5.793696575876632,0.12196079709540758
23.708172,5.789416626845818,0.12176236344990898
23.710576,5.7887215704272545,0.12152605249477716
23.712964,5.786396500314612,0.12134440609746228
23.715344,5.780346767962857,0.12120940904344082
23.71774,5.776019597103798,0.1210593360694956
23.720128,5.774485922924075,0.12087293717397296
23.722508,5.774023183930988,0.1206661348960521
23.724904,5.768764847512152,0.12052727102353009
23.727292,5.761783949600619,0.12040304158381934
23.729672,5.759319109861115,0.12022841893286705
23.732068,5.756155421987312,0.12009778641416298
23.734456,5.750570324486512,0.12002606175898316
23.736836,5.744845457358851,0.11996298518429925
23.739232,5.742845252470304,0.11985284995006477
23.74162,5.739634342768259,0.11977203888073168
23.744,5.73735459862599,0.1196791876496697
23.746392,5.731862048923807,0.11964873930223106
23.74878,5.729162995900959,0.11958248776697115
23.751176,5.722739280638995,0.11956327485179002
23.753576,5.7133822990708385,0.11958810542202686
23.755964,5.706027418249096,0.11957962575642005
23.758344,5.698020911121298,0.11956407588305942
23.76074,5.693646518433997,0.11946119824269891
23.763128,5.694067723172447,0.11929227066439009
23.765508,5.6962587112318355,0.11905990525656207
23.767904,5.699800173731584,0.11879076250623917
23.770292,5.69947720436536,0.11857455738851927
23.772672,5.702878897238248,0.1183127977460503
23.775072,5.709633165297912,0.11798249932055589
23.77746,5.708518799998769,0.11776739780339064
23.779852,5.709825844326623,0.11749470430679766
23.782256,5.709410327161781,0.11723480948485411
23.784644,5.710857141116495,0.11695259620737167
23.787024,5.71202441581749,0.11668913287911231
23.78942,5.713471229772205,0.11640728494345917
23.791804,5.719993180406392,0.11604627351330975
23.794184,5.7340116773470475,0.11554915145047158
23.79658,5.744165742421731,0.11510516569689183
23.798968,5.758184239362388,0.1146100356187115
23.801348,5.773133901862822,0.11410148416300289
23.803744,5.7858019243631205,0.11364381459750647
23.806132,5.795117371676641,0.11325285549639562
23.808512,5.802011409363166,0.11291893091167551
23.810916,5.807834511863052,0.11260668053222728
23.813304,5.814541558094472,0.11233679461294473
23.815688,5.818966964325756,0.11211346999922617
23.818084,5.828048198355932,0.1118386827724253
23.820472,5.834196166079911,0.11160285611642931
23.822852,5.841647386416005,0.11138355614753707
23.825248,5.856967240110908,0.11105717101509403
23.827636,5.873730116044788,0.11074013960275486
23.830016,5.894357423844641,0.11037601626984468
23.832416,5.914333105338435,0.11000738133828593
23.8348,5.933657160526172,0.10963343567879234
23.837184,5.956845647579882,0.1092162566545907
23.83958,5.973748293140622,0.10890078474572774
23.841968,5.984225327581529,0.10869353538277575
23.844364,5.9984270242615505,0.10844932143290083
23.84676,6.010486850568294,0.10824162870410547
23.849148,6.024269238367736,0.10802383801157188
23.851528,6.034978590234121,0.10784838843979574
23.853928,6.050111452473921,0.10759526618855293
23.856316,6.068037811393055,0.10731490314645623
23.8587,6.085033004752412,0.10704509771458003
23.861096,6.09551003919332,0.10683899304648821
23.863484,6.106126843261088,0.10662390461811581
23.865864,6.112879215462883,0.10645440713937593
23.86826,6.126708825090566,0.1061898400280703
23.870648,6.137744938038915,0.10595475174231371
23.873028,6.147849885427486,0.10573190413319637
23.875428,6.153578544270887,0.10553788140945451
23.877816,6.158376037554508,0.1053541027861618
23.880196,6.166758423450381,0.10514613902040795
23.8826,6.174069874159616,0.10495453369935984
23.884988,6.176166418562519,0.10483698024223619
23.887368,6.183477869271755,0.1046466852901012
23.889768,6.193070959981127,0.10441543172953072
23.892156,6.202012424384442,0.10417897909773961
23.894536,6.214446233601393,0.10388167582181822
23.896936,6.231443322818619,0.10351170660021751
23.899324,6.252072526476341,0.10307003664077463
23.901704,6.266276119014231,0.10272140245824507
23.9041,6.2793162285668656,0.10235293156449406
23.906488,6.294498208492778,0.10195603359311987
23.908872,6.3148950947250215,0.10148759612592338
23.911268,6.3383650168903225,0.10098290551357393
23.913656,6.364116579055761,0.10043881100179522
23.91604,6.382930673422169,0.09997654301271013
23.918436,6.400813602228798,0.09952166401792648
23.920824,6.417113739169593,0.09907036437971116
23.923204,6.4352762072299425,0.0986035090282897
23.9256,6.44957424342432,0.098173424332726
23.927988,6.460147617379583,0.09777700826959074
23.930372,6.4737940272679015,0.09734531444601174
23.932768,6.490653242716134,0.09686871542738637
23.935156,6.501785695178841,0.09644454993963693
23.937536,6.513057917268405,0.09601404669448654
23.939932,6.516181966745442,0.09567502325583592
23.94232,6.514091109916147,0.09540295722826066
23.944716,6.501849979727907,0.09524673749173376
23.947112,6.489189540659087,0.09511231078700079
23.9495,6.482163316777179,0.09488981005271829
23.95188,6.472715683268274,0.09471054814095965
23.954276,6.4564703515872,0.09459472276089095
23.956664,6.440504559159846,0.09446265363753523
23.959044,6.4196033996798825,0.09437914072499562
23.961444,6.399773175386556,0.09427977574737428
23.963832,6.384086922212922,0.09413040115486228
23.966212,6.366678107546593,0.09398638493991099
23.968608,6.346987652880127,0.09387722233588845
23.970996,6.327576737467381,0.0937519591524397
23.973376,6.3133807283609675,0.0935629381076649
23.975776,6.296391222575219,0.0933927841810374
23.97816,6.275537284923497,0.09325535357989072
23.980544,6.2551026561523555,0.09309426248274584
23.982944,6.238532459247188,0.09289920592362624
23.985332,6.22196226234202,0.09270325397628529
23.987712,6.217544439542213,0.09237929789680682
23.990108,6.215408256742543,0.0920198415877758
23.992496,6.219278376182125,0.09159825476024576
23.99488,6.221565703755869,0.09117365623820205
23.99728,6.222362787262394,0.09078629445645278
23.999664,6.2242308059555596,0.09038379632191251
24.002048,6.230103026141557,0.089937794306313
24.004444,6.233553836700559,0.08953520320148581
24.006832,6.238075582446197,0.08911599244724518
24.009212,6.240455457818559,0.0887251241879095
24.011612,6.2377601965114495,0.0883875516800743
24.013996,6.2339940000177,0.08806055563995366
24.016396,6.228365472404396,0.08774352215789391
24.018792,6.221805779231312,0.08743232676727056
24.02118,6.211102114938535,0.08716852299082838
24.023564,6.201329616205535,0.08689674821554394
24.02596,6.191557117472536,0.08662345220178959
24.028344,6.178571813179621,0.08639092662465697
24.030728,6.161722077020734,0.08618955389329133
24.033124,6.144872340861845,0.08598717122651116
24.035512,6.120293740971009,0.0858461802901806
24.037892,6.094504436266675,0.08572464994717753
24.040288,6.065642095629285,0.08563468494000581
24.042676,6.038502316484593,0.08553935782599977
24.045056,6.0116420765936205,0.08542749526947398
24.047452,5.986783937449063,0.08529514797106215
24.04984,5.961786028677649,0.08516906106538173
24.05222,5.935065558413537,0.08504592614104052
24.05462,5.909416023336062,0.0849080822904882
24.057008,5.884697653818366,0.084763470958532
24.059392,5.858908349114032,0.08463212162010633
24.061788,5.838333950716031,0.08443946632261234
