Time,Force,Position
26.935372,0.030933456480221295,0.0
26.937752,0.02630441816546018,0.0
26.940148,0.02246677578361718,0.0
26.942536,0.018768903028634387,0.0
26.944932,0.013860325460152851,0.0
26.947328,0.008951747891671318,0.0
26.949715999999995,0.0031120047634114623,0.0
26.952096,0.0004850671950672002,0.0
26.954496,0.0,0.0
26.956883999999995,0.0,0.0
26.959264,0.0,0.0
26.96166,0.0,0.0
26.964048,0.0,0.0
26.966432,0.0,0.0
26.968827999999995,0.0,0.0
26.971216,0.0,0.0
26.9736,0.0,0.0
26.975992,0.0,0.0
26.97838,0.0,0.0
26.98076,0.0,0.0
26.983168,0.0,0.0
26.985555999999995,0.0,0.0
26.987936,0.0,0.0
26.990336,0.0,0.0
26.992723999999995,0.0,0.0
26.995104,0.0,0.0
26.997499999999995,0.0,0.0
26.999888,0.0,0.0
27.002268,0.0,0.0
27.004672,0.0,0.0
27.00706,0.0,0.0
27.00944,0.0,0.0
27.011835999999995,0.0,0.0
27.014224,0.0,0.0
27.016604,0.0,0.0
27.019008,0.0034164376433931296,0.0
27.021396,0.010837076779619963,0.0
27.023776,0.021982378154960073,0.0
27.026171999999995,0.03578140658277494,0.0
27.02856,0.04916112613000917,0.0
27.03094,0.05946780974418802,0.0
27.033336,0.07457009078411869,0.0
27.035724,0.09367657331688306,0.0
27.038104,0.11157235103614868,0.0
27.0405,0.12932835912855412,0.0
27.042888,0.14494249684768246,0.0
27.045268,0.15920616012645183,0.0
27.047668,0.17454075859185977,0.0
27.050052,0.19173768817682435,0.0
27.052451999999995,0.20893461776178893,0.0
27.054844,0.22627131697361372,0.0
27.057232,0.2436080161854385,0.0
27.059612,0.2618758809570416,0.0
27.062012,0.27828141460908806,0.0
27.0644,0.29254507788785744,0.0
27.06678,0.29924833240353976,0.0
27.069176,0.3007366806128897,0.0
27.071563999999995,0.29943153214290474,0.0
27.073948,0.29561242624730516,0.0
27.076344,0.2911416940456477,0.0
27.078731999999995,0.2933288903892987,0.0
27.081112,0.28871838856078097,0.0
27.083508,0.2750285485599573,0.0
27.085896,0.2624096437457722,0.0
27.08828,0.2500702781853075,0.0
27.090675999999995,0.24108348781161865,0.0
27.093064,0.23358694150514894,0.0
27.095444,0.22487969038518052,0.0
27.097843999999995,0.21137684183946023,0.0
27.100228,0.19573212292046294,0.0
27.102628,0.17873692956110668,0.0
27.105024,0.16467500250794556,0.0
27.107408,0.1478195787754495,0.0
27.109792,0.13141404512340296,0.0
27.112188,0.11715038184463356,0.0
27.114576,0.10703068968555807,0.0
27.116956,0.09812170233998131,0.0
27.11936,0.08828154943462625,0.0
27.121748,0.07830162690241098,0.0
27.124128,0.06939263955683422,0.0
27.126524,0.056898759599004395,0.0
27.128912,0.04640698038759143,0.0
27.131291999999995,0.04099033785565069,0.0
27.133692,0.03796262789296921,0.0
27.13608,0.03847258871429767,0.0
27.138459999999995,0.03944718438658065,0.0
27.140856,0.04423899009659398,0.0
27.143244,0.048983573978364156,0.0
27.145624,0.05926792939056111,0.0
27.148019999999995,0.07644253077354375,0.0
27.150408,0.10157831331395069,0.0
27.152788,0.12238313327956034,0.0
27.155184,0.15138145182807153,0.0
27.157572,0.18812337887903463,0.0
27.159968,0.23170833007254027,0.009062590704111138
27.162368,0.2829277013415066,0.01761066229078901
27.164756,0.34005893119323716,0.025915865308092458
27.167136,0.4012396885081754,0.03419755602193031
27.169532,0.471265570712073,0.042027945904075006
27.171924,0.5431991100059013,0.05008364648156595
27.174304,0.6196940334421347,0.058176050143369386
27.176704,0.7011696499013541,0.0661962954102007
27.179088,0.7854840890102823,0.07434237940994252
27.181467999999995,0.8697365615204625,0.0826030346411001
27.183868,0.9539890340306427,0.09078326963402945
27.186256,1.0399640680335194,0.09895012126189501
27.188635999999995,1.123377922782538,0.10724739660369631
27.191032,1.2086541086511138,0.1156115933964196
27.19342,1.2968635608258845,0.12379236403390312
27.1958,1.3880062793068504,0.1316618437249081
27.198204,1.4708610555484287,0.13981650965781003
27.200592,1.5577200332828405,0.14798331193723518
27.202971999999995,1.642204823218498,0.1560403846710551
27.205368,1.722173554982124,0.16413203362887185
27.207756,1.7975336807751017,0.1631228695208353
27.210136,1.8644207687314571,0.16277221308253698
27.212536,1.9296325170233597,0.16251372199358394
27.21492,1.9933086952776689,0.1621977486206027
27.2173,2.0466495045757997,0.1624666024164256
27.2197,2.101807319023113,0.162343060816133
27.222083999999995,2.1554767852610768,0.16202075740406355
27.224464,2.2048171847821125,0.16177510106018264
27.226859999999995,2.2521101575863565,0.1613868053245153
27.229248,2.2998696610994256,0.16079322407692112
27.231628,2.3435324153210435,0.16034238280686314
27.234024,2.38472843394529,0.15986808989914217
27.236416,2.423178177718445,0.15936291972580624
27.238796,2.4666105103724547,0.15851986156944053
27.241192,2.506505172242454,0.15777365440941196
27.24358,2.5375074873952514,0.15741104143479828
27.245964,2.5732600740034264,0.15660676979761218
27.24836,2.609199652066705,0.15569617246347375
27.250748,2.6371780489725594,0.15506007083056297
27.253132,2.6644122717737386,0.1543378239100871
27.255528,2.687549745283467,0.15371896079146746
27.257916,2.7085925702481624,0.15307696719887004
27.260296,2.723396775548129,0.1526758679402168
27.262692,2.7346160882358426,0.15241208227703207
27.26508,2.746394479430997,0.15205131464707403
27.26746,2.7533772732004,0.15191553348429057
27.26986,2.756216095850108,0.15200064525960777
27.272248,2.7614763281268146,0.15192798801432933
27.274628,2.7679472652170194,0.15178042418083945
27.277028,2.7740461152548868,0.15159516235590492
27.279416,2.7828459141734734,0.15122327658518878
27.281796,2.791785482718918,0.15083704631266023
27.284196,2.803146460891362,0.15030084721681317
27.286584,2.806918344958719,0.1500670598729681
27.288964,2.8076171930930194,0.1499708347540284
27.291364,2.8085955804810414,0.14983473656052523
27.293752,2.8052902271225086,0.14990745754005294
27.296132,2.7994709163383615,0.15003543048249277
27.298528,2.7987267422336863,0.1499466868617144
27.300916,2.7987739640619296,0.1498456958031068
27.3033,2.8016146825695074,0.14964825010738336
27.305696,2.8104617033163364,0.14920184591358748
27.308084,2.8242440911157765,0.14856015256905347
27.310464,2.8388178748481354,0.14789782079895347
27.312864,2.852600262647576,0.14723890689861616
27.315252,2.866522420073877,0.1465515464461875
27.317632,2.8783027071269007,0.1459522404937546
27.320032,2.8811434256344794,0.14574079048765526
27.32242,2.8811906474627227,0.14563542775905977
27.3248,2.8777455244773296,0.14573349180899126
27.3272,2.8689457255587443,0.14610537757970737
27.329588,2.858143825893742,0.14656579398611394
27.331968,2.8472021566018793,0.14703928163636704
27.334368,2.8362604873100166,0.1475186751978771
27.336756,2.8235962565254575,0.1480623426654403
27.339136,2.8098610905542603,0.1486752332101364
27.341536,2.797196859769701,0.1492357770024771
27.34392,2.7813198234252265,0.14998246774925617
27.346304,2.7654427870807514,0.1507162916390031
27.3487,2.7459808581240246,0.15157592183405155
27.351088,2.726518929167297,0.15242431762009306
27.353468,2.703192568344596,0.15342052311306936
27.355868,2.676141545282781,0.15454178775492963
27.358256,2.6484388959149086,0.15567074736083528
27.360636,2.623389973599511,0.1567163691801864
27.363032,2.602345252776947,0.15756170335148278
27.365424,2.5857240423277976,0.15817576517083212
27.367804,2.5779026307972335,0.15841722632886568
27.3702,2.5718037807593657,0.15860668827399751
27.372588,2.564122138855662,0.1588356196074501
27.374968,2.5615156336314304,0.15881691379659954
27.377368,2.558909128407199,0.15879882145589508
27.379752,2.555650996876909,0.15877532251239249
27.382136,2.551321930159981,0.15881301468650763
27.384532,2.5516486912419447,0.15865825959948765
27.38692,2.5547689490032433,0.15838528844392424
27.3893,2.5577494371376814,0.15813357220594612
27.3917,2.5655255226978717,0.15765993496513728
27.394084,2.570740429004204,0.15737291669473505
27.396468,2.577538127176373,0.15704519867673622
27.398864,2.5832648901619026,0.15678134368649696
27.401256,2.589643279453491,0.15651916034141572
27.403636,2.596813064677997,0.1562370158842737
27.406032,2.607055885835559,0.15579324227887678
27.40842,2.6180901029260384,0.1553399822810438
27.410804,2.6237696440833256,0.1551945114168038
27.4132,2.6290298763600317,0.15511664869330158
27.415592,2.6330794038232397,0.1551231819117049
27.417972,2.63470752165945,0.15528804866618262
27.420372,2.6445763599068046,0.15513926716167292
27.42276,2.6568193859529132,0.1549565981534605
27.42514,2.6732989309173334,0.15466221847936928
27.42754,2.691733354799927,0.15438964474539693
27.429928,2.7144042976008316,0.15399819600065992
27.432308,2.7375870970809344,0.15364634395409774
27.434708,2.7635633932403723,0.15321055719724033
27.437096,2.790051546079007,0.1527938807745205
27.43948,2.817842951529758,0.15240594145734135
27.441876,2.850709493659981,0.15180237333454016
27.444264,2.882737418029043,0.1512937113451702
27.446648,2.9160685950102208,0.15079122296332276
27.449044,2.951634190163293,0.1502668217713903
27.451436,2.9880837290478994,0.14980186990433958
27.45382,3.023135571663904,0.14953033134884358
27.456216,3.057348796518748,0.14936982821939415
27.458604,3.0976608714114593,0.14903041512643708
27.460988,3.138996659662566,0.1487369720340459
27.463384,3.18042499571229,0.14852575234482346
27.465772,3.2274403251206834,0.14812276311099368
27.468156,3.2691009785958847,0.14798419040353133
27.470555999999995,3.304475790578114,0.14811231950425768
27.472944,3.336637797000429,0.14838000598955584
27.475328,3.368008407489825,0.1486600468351457
27.477723999999995,3.3995187876060813,0.14892492139729416
27.480112,3.4270249662295043,0.14933131788692497
27.482496,3.451178569666151,0.14988766274562998
27.484896,3.479336374595632,0.15029763764987475
27.487283999999995,3.5039092869128594,0.1507987265269616
27.489668,3.524989854416451,0.15145710067697207
27.492064,3.550633701920317,0.151906988302405
27.494456,3.579769894237819,0.15220089952339103
27.496836,3.6094651650627623,0.15243525684832865
27.499236,3.6429323199550625,0.15249073840109476
27.501628,3.6775176318622433,0.1524248248438156
27.504004,3.7141522663440845,0.15221967866630143
27.5064,3.749111561161472,0.15198625792473863
27.508784,3.7853287826206015,0.1516337976777417
27.511164,3.8197308947884183,0.15125274314803194
27.51358,3.8458922865450895,0.1510675209153502
27.515964,3.8718213608762833,0.15083023024317724
27.518344,3.900451384088196,0.15044945878754531
27.520756,3.928988859501491,0.15000287601192314
27.523143999999995,3.9610186797284217,0.14943232618362318
27.525535999999995,3.992536643276155,0.1488560383204011
27.527932,4.03061998757058,0.1480512772543506
27.53032,4.06660868331997,0.1472362989926819
27.5327,4.095148054591135,0.14661263266387778
27.535096,4.125037900302658,0.14592347578531384
27.537479999999995,4.15776846452176,0.14509851961352377
27.539871999999995,4.187985071315247,0.14433400493775433
27.542268,4.209401879190148,0.14381469428644503
27.544652,4.229096125572354,0.14333522670659077
27.547032,4.24199267378239,0.14304112555190984
27.549436,4.253958056432647,0.14277270488879895
27.55182,4.2589859712838765,0.14269441497560023
27.5542,4.262942950948466,0.14265229056229292
27.556591999999995,4.262755959493363,0.14273407348224373
27.558976,4.26270873766512,0.14280296596566136
27.561356,4.270018292516487,0.14264617654393086
27.563752,4.27960948736799,0.14241059898256708
27.56614,4.288688825540297,0.14215892895648286
27.568515999999995,4.298839098899241,0.14187510551909574
27.570908,4.300980969272517,0.14180868868106258
27.573296,4.30032934296646,0.1418039008584233
27.575676,4.294882119234651,0.14191102054455693
27.57808,4.294370262555453,0.14189364488529896
27.580464,4.298142146622809,0.14174666986722861
27.58284,4.301122634757247,0.14160775960258756
27.585236,4.299447295092794,0.14156790960937105
27.587624,4.295769854681924,0.14157965590504998
27.590004,4.297307320577385,0.14144253285815753
27.5924,4.294840584980014,0.1414103990388481
27.594792,4.290651287889946,0.1414076538536474
27.597172,4.288603861173156,0.14133780067547227
27.599564,4.293773441509115,0.14106129015379357
27.60196,4.298803252218214,0.1407992928530519
27.60434,4.303181436621254,0.14053003104336118
27.606752,4.310353117703628,0.14020295105596525
27.60914,4.3164538635993654,0.13991455027109004
27.61152,4.320552508748685,0.1396796714840762
27.613932,4.326513485017562,0.13940879894489355
27.61632,4.330612130166882,0.13917640492059846
27.6187,4.337132184943199,0.1388535330698178
27.621092,4.34272107415974,0.13854727047988333
27.623476,4.3452369274432225,0.138322662148931
27.625856,4.343888348860733,0.1381902156410365
27.628252,4.342539770278244,0.1380582334629209
27.63064,4.34333306206903,0.13786443716343838
27.63302,4.345057519419597,0.1376503337116736
27.635436,4.3510657175167164,0.1373136500726482
27.637823999999995,4.3593555556139725,0.1369093322422852
27.6402,4.3700668033382275,0.1364141107668345
27.642616,4.386924122928594,0.13575471244768267
27.645,4.398054679533429,0.13522220145113184
27.64738,4.406903596138125,0.13477021708715628
27.649784,4.410817145690212,0.13443067353246432
27.652172,4.417524191921633,0.13403487515252568
27.654551999999995,4.4206463455408,0.13370357525903465
27.656944,4.420695463226912,0.13345207955355215
27.659332,4.41767154497997,0.13327842842761678
27.661712,4.407570389307138,0.1332834508515206
27.664108,4.3991917951270025,0.13326312012038735
27.666495999999995,4.38839179131987,0.1333313007358004
27.668876,4.383598089751987,0.13324839272600084
27.671272,4.383739755236717,0.13304715347634177
27.673656,4.385603982214143,0.13282076307484963
27.67604,4.387048900310988,0.13263218061795892
27.678436,4.386212178407695,0.13251769843629238
27.68082,4.3872377876239605,0.1323667871757511
27.683204,4.3827689512801715,0.13237903898515166
27.6856,4.374947539749609,0.1324910576791748
27.687984,4.36977985527152,0.13256091586399976
27.690368,4.366334732286126,0.13260558881968784
27.692764,4.364612170793429,0.13262832306534444
27.695148,4.361167047808037,0.13267368861619372
27.697528,4.363867996688755,0.13256813356217945
27.699943999999995,4.3667087151963315,0.13245181531749847
27.702328,4.3691301248233305,0.13237023304505494
27.704712,4.373693404823604,0.13223093995213292
27.707108,4.38426298706313,0.13195352192234427
27.709492,4.402049576355404,0.13149237386306886
27.711872,4.418113604154983,0.1310547936239357
27.714288,4.436459271954697,0.1305389089493727
27.716672,4.4487986375151625,0.1301692048338393
27.719052,4.456342405649876,0.12989795146475577
27.721468,4.462163612291891,0.12964993616760492
27.723852,4.466402027068071,0.1294129632527104
27.726236,4.468778110724695,0.12920976192289288
27.72864,4.470083259194681,0.1290365776729535
27.731024,4.472738882105024,0.12880828599667649
27.733404,4.472601008336033,0.12863199092471814
27.735808,4.470600803447486,0.12849196475670335
27.738192,4.4607319652001305,0.12852946901299372
27.740572,4.451794292512554,0.12854968755840995
27.74298,4.442577080571257,0.1285949758312901
27.745368,4.43349963825682,0.12862509076876613
27.747748,4.420929851128748,0.12876862814115161
27.750152,4.411712639187451,0.12881043743123086
27.75254,4.403286823179072,0.12884483291003854
27.75492,4.39099657530472,0.12895705482000958
27.757316,4.378426788176647,0.12908831111224894
27.759699999999995,4.367719332168131,0.12918594961101418
27.76208,4.364880509518422,0.12911740292100576
27.764484,4.360179355749158,0.12908115847378035
27.766867999999995,4.360413569032503,0.12894024930114398
27.769248,4.361439178248767,0.12879435309461862
27.771643999999995,4.363535722651671,0.12862043293776387
27.774032,4.369636468547408,0.12835855229084941
27.776412,4.3770876888835035,0.1280474378310384
27.778816,4.386541009966017,0.12769360445299552
27.781203999999995,4.400789928474282,0.12724702877116204
27.783584,4.4141076814227675,0.1268161455735311
27.785984,4.432221031797006,0.12628708490266205
27.788368,4.449403216611465,0.1257727047415718
27.790752,4.4667251710527855,0.12524248229742002
27.793156,4.477761284001134,0.12486862729019853
27.795544,4.492429511389979,0.12437223769241439
27.797924,4.500811897285853,0.12403381408327233
27.800328,4.503187980942476,0.12383080267950258
27.802716,4.506355460532018,0.12362232762088002
27.805096,4.504587573068947,0.12352277809435039
27.807492,4.499886419299681,0.12348650909675264
27.80988,4.4871768625447475,0.12362917954343763
27.812259999999995,4.482335939148623,0.12360326389564176
27.814656,4.473351044632803,0.1236784419698815
27.817044,4.464505919743844,0.12374158326282428
27.819424,4.457383356347581,0.12378229674575113
27.821819999999995,4.447047987391402,0.12390578987268423
27.824208,4.432428877688669,0.1241416371352985
27.826592,4.417530228732216,0.1243977834817325
27.828987999999995,4.3996983134695675,0.12471187245562981
27.831372,4.382797563766697,0.12501015347336542
27.833756,4.36524518775777,0.12529883432533995
27.836152,4.351976552495397,0.12547463871311967
27.838536,4.3409895572331605,0.12558394830970313
27.840916,4.335217468277257,0.12557070296709666
27.84332,4.329305609694493,0.12556783200816424
27.845708,4.329539822977838,0.1254264079722877
27.848088,4.336199647381017,0.12512177488506432
27.850488,4.343139011037914,0.12479462090519138
27.852875999999995,4.355153511374285,0.12435421494072446
27.855252,4.372382918016988,0.12379365242969631
27.857656,4.386818827980355,0.12327149197013841
27.860043999999995,4.395108666077612,0.12289330118034981
27.862424,4.407542475294563,0.1224186598763289
27.86482,4.420116054138374,0.12193389187751943
27.867208,4.430967071489489,0.12147244393143924
27.869603999999995,4.443028793654103,0.12097137095534807
27.872,4.45923448693841,0.12037147472146158
27.874384,4.473717618730021,0.11979145637535214
27.876768,4.491413556081548,0.11913452050256912
27.879164,4.5099008893659915,0.11847650057729005
27.881547999999995,4.524523790784464,0.11788540964466097
27.883932,4.533931785896603,0.11741988998383301
27.886328,4.544270946568519,0.11694579105560408
27.888715999999995,4.5546101072404355,0.11647595788717946
27.891096,4.563738563098854,0.11604508268778381
27.8935,4.5690025870912985,0.11568365574692001
27.895888,4.5739870718300235,0.11534937014664931
27.898268,4.580833887688304,0.11499029164555269
27.900664,4.584887206867251,0.11467374976330033
27.903051999999995,4.585727720486281,0.11443244389739066
27.905432,4.5935057019043395,0.11406616549903414
27.907832,4.606498589628732,0.11359272867363648
27.910219999999995,4.616697980673789,0.11316127716418417
27.9126,4.6268973717188455,0.11273128140637301
27.915004,4.636305366830985,0.11230404517071137
27.917387999999995,4.647203606010343,0.11182484588203553
27.919772,4.655168578883507,0.1113938780671135
27.922168,4.66206261657003,0.11098335695990953
27.924555999999995,4.662950352017304,0.11067992598473654
27.926936,4.661324130038963,0.11039259145382946
27.929331999999995,4.665564440673013,0.11000682901048538
27.93172,4.672877787240117,0.10956096804296546
27.9341,4.676047162687529,0.10919875408311659
27.936504,4.678425142202021,0.1088399858856791
27.938892,4.6790805602238175,0.10849403622327032
27.941272,4.684671345298226,0.1080661584702471
27.943676,4.684255828133384,0.10774324144269191
27.946064,4.681046814289207,0.10745807419830133
27.948443999999995,4.678768966004808,0.10716026603355233
27.950835999999995,4.676491117720409,0.10686253276185746
27.953224,4.671140233502955,0.10662341432371386
27.955608,4.660853982232888,0.10646426370785039
27.958003999999995,4.65243006208238,0.10628106291407159
27.960392,4.642935206745232,0.10611943986369962
27.962788,4.632089876967724,0.10600044691013584
27.965184,4.6194747638692775,0.10595523231356802
27.967572,4.60793058595747,0.10588767297583519
27.969952,4.597597112859161,0.10578711299425142
27.972352,4.592478546067183,0.10558442013749597
27.974736,4.590433015208261,0.1053248306475931
27.97712,4.587596088416422,0.10506767330979987
27.979516,4.581965664945248,0.10484396347532034
27.981904,4.579408277407128,0.10456488065022716
27.984283999999995,4.573638084309093,0.1043502108422985
27.98668,4.572011862330752,0.10405860999969378
27.989068,4.563448172553382,0.10387665849160177
27.991451999999995,4.559168223522567,0.10360583193112867
