Time,Force,Position
4.322312,1.6231122387009511,0.1742558441569159
4.324708000000001,1.695027241508536,0.1732328192796476
4.327096000000001,1.769131336517641,0.1719309399833222
4.329476,1.84179240928777,0.1709297938897512
4.331879999999998,1.917806057244675,0.1695730611762961
4.334267999999998,1.9906541214699072,0.1683401647103397
4.336648,2.055541004537716,0.1676536468916624
4.339051999999999,2.119264404620268,0.1670309406517141
4.346223999999999,2.2736091872152424,0.1669903704496785
4.350988000000001,2.3647462181226,0.1668124893047476
4.353392,2.405241492754676,0.1666676199144183
4.355779999999999,2.445411902162658,0.1662833401007726
4.358159999999998,2.485397215973405,0.165727318318438
4.360564,2.5233351030673625,0.1650628616792268
4.362952,2.555733218630893,0.164594002395795
4.367728,2.606284322965428,0.1640854204719968
4.370116,2.626579182109709,0.1639261438902916
4.372492000000001,2.646921263082233,0.1636624530928822
4.374896,2.662095659576668,0.1635975903289505
4.377284,2.6748958682723485,0.163595639352599
4.379660000000001,2.685880967676716,0.1635717013230733
4.382064,2.6986358504020225,0.1633864914406467
4.384447999999999,2.714091682008047,0.1629941784742302
4.386828000000001,2.7253109946957608,0.1627330374484788
4.389232,2.737368925144636,0.1623420048599364
4.39162,2.754921301153563,0.1616322891440843
4.393999999999998,2.771822050856433,0.1609307926873587
4.396395999999999,2.783275576827493,0.1604484095082894
4.398783999999999,2.7967312035449705,0.1598605945442225
4.401160000000001,2.812328700635725,0.1591767077960468
4.403555999999998,2.8283455066070595,0.158431250000774
4.405943999999998,2.8372850751525056,0.1580186388623696
4.408324,2.8467365003771485,0.1576309716904049
4.410727999999999,2.858422343773686,0.1572136815899062
4.413111999999998,2.87304145347642,0.1566779860202082
4.415492,2.886449858365653,0.1561967266146728
4.417888000000001,2.898088479933948,0.1558822681345287
4.432216,2.9345814489310595,0.1557818298026488
4.434604,2.944450287178414,0.155644664998412
4.436983999999999,2.958323326918603,0.1553463263127081
4.441776000000001,2.9736374930398983,0.1553102513291793
4.444156,2.9841579575933106,0.1551879426043088
4.451328,3.0096658271860552,0.1551680861953581
4.453731999999999,3.0247023499115,0.1549062028263422
4.456115999999998,3.0420205126370803,0.1545358660466743
4.458496,3.0598977538701027,0.1541035015190061
4.460899999999999,3.073770793610292,0.1538342040802645
4.463283999999998,3.0956522363361474,0.1532550003610059
4.465668000000001,3.1190239231292223,0.1525844794059332
4.468060000000001,3.1414644443625197,0.1519339220155709
4.470448000000001,3.166978001528871,0.1511671591955586
4.472832,3.1951452857476976,0.1503199136688691
4.475224000000001,3.2234523395933845,0.1494492980053576
4.477612000000001,3.2509679975061543,0.1486090640512001
4.480007999999998,3.273688057993171,0.1479469771286367
4.482403999999999,3.2946855569874924,0.1473425562438916
4.484787999999998,3.3075348833692853,0.1470499530381859
4.4871680000000005,3.3218744538182974,0.1466525933635405
4.489564000000001,3.340218225760144,0.1461106125506693
4.491952000000001,3.354418026582296,0.1457387039742329
4.494327999999999,3.368897366658167,0.1453380073168503
4.496731999999998,3.387660447480594,0.1447637190951249
4.499120000000001,3.410567499422715,0.1440442796404555
4.5015,3.428539184312223,0.1435058085862128
4.503903999999999,3.4426464373357586,0.1430957885428368
4.506288000000001,3.4547515896128766,0.1427588452478361
4.508668,3.468998612263273,0.1423381710733031
4.511075999999999,3.477938180808718,0.1420496113156483
4.513459999999999,3.48301331748819,0.1418775622960771
4.515840000000001,3.49186033823502,0.1415244468094078
4.518235999999998,3.4981934015562337,0.1412194763236849
4.520623999999998,3.506947874504445,0.1408124234133401
4.523004,3.515981886706377,0.1403752087101531
4.592312,3.3777331868762697,0.1403690022927516
4.594691999999998,3.3764771560923967,0.1402711637401193
4.5970960000000005,3.3770834564280805,0.140125829944785
4.59948,3.375687656017348,0.1400434165669011
4.601859999999999,3.378156287472588,0.1398478478346201
4.616195999999999,3.348831207842114,0.1398071372207273
4.620975999999999,3.3425472622070123,0.1397979947291592
4.623356000000001,3.340871922542559,0.1397465239384771
4.625751999999999,3.3452028851173563,0.1394915824485847
4.628136000000001,3.3515359484385705,0.1391655552703064
4.630516,3.356238998065705,0.1389489997059662
4.632932,3.356798076573146,0.1388848523214319
4.635316,3.360290421386782,0.1387276711741445
4.644860000000001,3.358894620976048,0.1386392202957145
4.647255999999999,3.359965556162687,0.1385999720937031
4.649643999999999,3.361967656909104,0.1385380567135138
4.65204,3.367042793588576,0.138373251458112
4.6544360000000005,3.371046995081409,0.1382471991506067
4.65682,3.379195167693937,0.13797740643616
4.659199999999999,3.391627081053019,0.1375545749503089
4.6616,3.41085669258427,0.1369371342262134
4.663983999999999,3.432367944115658,0.1362176225284587
4.666363999999998,3.447221267101737,0.1356854298934691
4.668768,3.4622143597146766,0.1351436521087994
4.671151999999999,3.478278387514254,0.1345613046897927
4.673531999999998,3.488056573820861,0.1342008597496889
4.675940000000001,3.498905695314107,0.1338044033434357
4.678324,3.5120364568074898,0.1333213612835873
4.680707999999999,3.5273090886741496,0.1327625606573891
4.683104,3.54272149016767,0.1321963119275127
4.685492,3.553710381287776,0.1317937369184662
4.687871999999999,3.5626971716614646,0.1314473654455012
4.690276000000001,3.5748967675950687,0.1309850555947951
4.730888,3.543384491620943,0.1307426581894102
4.733287999999998,3.542872634941745,0.1307202228731886
4.735675999999998,3.5463649797553813,0.1305866957655423
4.738056,3.54892615900924,0.1304744934227231
4.740459999999999,3.5547001438230126,0.1302552260654332
4.742847999999999,3.5641987908758987,0.129950073031736
4.745228000000001,3.5766307042349808,0.1295729600517478
4.747631999999999,3.590924948713619,0.1291544121230145
4.750019999999999,3.604288027632479,0.1287583667116276
4.752399999999998,3.6236574087905895,0.1282081510358941
4.754795999999999,3.639813984388785,0.1277539110835933
4.757183999999999,3.649964257747729,0.1274655059286115
4.759564000000001,3.664258502226368,0.1270521530059564
4.761972,3.6806946170782826,0.1265752274386082
4.764355999999999,3.6940576959971434,0.1261853799460346
4.766739999999999,3.704347738982947,0.1258895324610719
4.769136,3.714637781968752,0.1255910695333484
4.771523999999999,3.7237171201410577,0.1253419978195135
4.773903999999998,3.7337276238731434,0.1250683504562904
4.776304,3.743877897232087,0.1247773232982039
4.778687999999999,3.7520260698446144,0.1245462983876227
4.781068000000001,3.756589349844889,0.1243820195299088
4.783472,3.759290298725607,0.1242587592373173
4.785855999999999,3.7625031042855226,0.1241581763925541
4.788236000000001,3.77051150727119,0.1239515915479873
4.790631999999999,3.7806617806301337,0.1236851557707698
4.793019999999999,3.7841541254437696,0.1235616022194163
4.795400000000001,3.788857175070904,0.1233947005416163
4.797803999999999,3.795841864698176,0.123153862889367
4.800187999999999,3.794818151339781,0.123109735868255
4.802568000000001,3.800871675407275,0.1228898425460287
4.804971999999999,3.810789631340742,0.1225835010186992
4.807359999999999,3.8199161913412913,0.1222863575863057
4.809736000000001,3.824759010595286,0.1221115541085516
4.812144,3.8334662617152544,0.1218534872158172
4.814527999999999,3.8432444480218617,0.1215663318123765
4.816911999999999,3.858097771007941,0.1211596462316786
4.819316000000001,3.873090863620881,0.120739317986749
4.821704,3.8892946610473182,0.1202740441136124
4.824079999999999,3.908711264033672,0.1197226010775056
4.826484000000001,3.9233322695942734,0.1192634644304356
4.8288720000000005,3.940467232580491,0.1187782311272488
4.831251999999999,3.956531260380069,0.1183223316227722
4.833652000000001,3.971292035567532,0.1178485209330834
4.836036,3.9801862781426034,0.1175104516652757
4.838419999999999,3.984145153665063,0.1172836927592899
4.840816,3.9927598569864142,0.1169701038094502
4.8432,3.999232689934488,0.1167187954174559
4.845579999999998,4.001282012509148,0.1165989367733106
4.855143999999999,3.993369949037836,0.1164263295439507
4.857531999999999,3.991182752694185,0.1163505012282953
4.864699999999999,3.970141823587361,0.1163446775126467
4.867080000000001,3.9627869427656206,0.1163254982567463
4.869475999999999,3.957434162690298,0.1162617898109424
4.871863999999999,3.950870677801475,0.1162371475165685
4.874244000000001,3.9471006895919873,0.1161673018446979
4.876639999999998,3.9425393054495834,0.1161002992203248
4.879024000000001,3.939048856493816,0.1160052291861052
4.881408,3.9343477027245495,0.1159505555737915
4.883800000000001,3.928855153022366,0.1158990055750593
4.886188000000001,3.929368905559433,0.1157157972739965
4.888567999999999,3.9290912621635816,0.1155359816742443
4.890972000000001,3.9288136187677294,0.1153561660744921
4.893360000000001,3.933890651305072,0.1150375801919697
4.89574,3.940178388655912,0.1146803176819338
4.898143999999999,3.953263824178921,0.1141897990210367
4.900531999999998,3.9671406556348487,0.1136999422448112
4.902912000000001,3.981669113396833,0.1132148118441166
4.905315999999999,3.9941954704124014,0.1127776467228627
4.907703999999999,4.005511122614471,0.1123774447527334
4.910084000000001,4.017757940376319,0.1119576281129838
4.912479999999999,4.023067290339137,0.1116833059133063
4.914867999999999,4.025024065115179,0.1115057598557844
4.917248000000001,4.025909904704584,0.1113577341869657
4.919647999999999,4.024933413174431,0.111239971306243
4.922031999999998,4.027309496831055,0.11102780335578
4.924416000000001,4.032758616420734,0.110749513000561
4.926811999999998,4.042211937503247,0.110394390033278
4.929196000000001,4.056740395265232,0.1099348056385804
4.93158,4.074062349706552,0.1094324952384698
4.933976000000001,4.082584505229287,0.1090934881728187
4.936364000000001,4.090175495192242,0.1087681650028467
4.938759999999999,4.0972546284760005,0.1084203037333546
4.941155999999999,4.09725652433387,0.1082184803852148
4.943543999999999,4.095256319445323,0.1080567026977812
4.945923999999998,4.091533553064078,0.1079110968445411
4.948319999999999,4.084877520376639,0.1078178112327469
4.950703999999998,4.082505228435753,0.1076230627813846
4.953088000000001,4.07906200130823,0.1074532796450624
4.955492,4.077620874927123,0.1072439727289455
4.957875999999999,4.080323719665711,0.1069468190376752
4.960256000000001,4.087030765897131,0.1065684317688969
4.96266,4.096950617688467,0.1061123037822449
5.012836,3.9832729343177182,0.105871340446472
5.015219999999999,3.984483639131217,0.1058349236286519
5.017603999999999,3.9895587758106896,0.1057361876555057
5.020008000000001,4.000640214729413,0.1055239239242502
5.022392,4.022523553313138,0.1051159767211055
5.024771999999999,4.04654876227014,0.1046628625566537
5.027176000000001,4.070853510480863,0.1041856698882774
5.029564000000001,4.095577567572167,0.1036771584538786
5.031943999999999,4.111362056118024,0.1033304255129399
5.034348000000001,4.124492817611407,0.103011778781588
5.036732000000001,4.135761247985233,0.1027213996894123
5.039116,4.143165246493086,0.1024931501389719
5.041508,4.1556443816804105,0.1021664014373808
5.043896,4.16519025056154,0.1018928572046284
5.046275999999999,4.178740320935503,0.1015501774905996
5.048672,4.191079686495967,0.1012418580320333
5.05106,4.197412749817182,0.1010415545588384
5.053439999999998,4.207098388325171,0.1007599610030535
5.055835999999999,4.220788228325995,0.1004104741198602
5.058223999999999,4.239692974633151,0.0999626365432301
5.060604000000001,4.256735389820751,0.0995432012000987
5.063008,4.27433688351579,0.0990866511906763
5.065396,4.290076046091275,0.0986560341705534
5.067775999999999,4.3000884456812285,0.0983002468208553
5.070180000000001,4.307726657472427,0.0979500405528032
5.072568,4.312291833330571,0.0976546649479247
5.074947999999999,4.316857009188715,0.0973597085943737
5.077348000000001,4.319420084300441,0.0970969221239183
5.0797360000000005,4.329060396838058,0.0967150426592692
5.082115999999999,4.338281400495093,0.0963638983064174
5.084512,4.348713108965627,0.0959826525841791
5.146619999999999,4.032062187999767,0.0956063796596438
5.149016,4.027081494976781,0.0955521927804337
5.151403999999999,4.01902776602074,0.0955507538924917
5.1538,4.017399648184529,0.0954201691049544
5.156196000000001,4.019635962214293,0.0952349890230102
5.158584000000001,4.0225711243783575,0.0949908382789256
5.160964,4.031093279901092,0.0946857068487154
5.163360000000001,4.040965909864185,0.0943405235525654
5.165748000000001,4.051909475013916,0.0939730647306842
5.168132,4.065786306469843,0.0935602320032937
5.170528000000001,4.077800806806214,0.0931641607053226
5.172916000000001,4.087021810463249,0.0927990835667837
5.1753,4.09330954781409,0.0924744196177995
5.177699999999998,4.099038206657489,0.0921977342872092
5.180088000000001,4.107467814381606,0.0918286797895257
5.182468,4.1148264869190845,0.0914837928355439
5.184864000000001,4.117808870911393,0.0911680775886932
5.187256000000001,4.12093102453056,0.0908429825577095
5.189636,4.127126214082783,0.0904658540805445
5.192039999999999,4.132390238075228,0.0900982461080204
5.194423999999998,4.130297485388063,0.0898687703671772
5.196804,4.123409135275147,0.0897002043392783
5.199203999999998,4.124389418521037,0.089420715309168
5.201588000000001,4.123507370647372,0.0891606307375545
5.203968,4.125977897960482,0.0888297734050016
5.206371999999998,4.12816888601987,0.0885206205117196
5.208759999999998,4.126123355160949,0.0882255951263449
5.21114,4.122587580234809,0.08798549607829
5.213536000000001,4.1189120356818085,0.0877564336335766
5.215924000000001,4.115376260755667,0.08751628230994
5.218304,4.117427479188196,0.0872249506008817
5.220700000000001,4.120270093553644,0.086934161825381
5.223088000000001,4.1269771397850645,0.086596258913344
5.225472,4.133963725270205,0.0862366854236435
5.227868000000001,4.140391232247906,0.0859227335287027
5.230256000000001,4.14481663847919,0.0856356598447987
5.232635999999999,4.1509646062031695,0.0853418223692803
5.235032,4.154970703553872,0.0850878384400562
5.23742,4.155112369038602,0.0848790421004244
5.239816000000001,4.158047531202667,0.084645769790993
5.24222,4.16819970041948,0.0842976358087504
5.244608,4.178351869636294,0.0839490869178454
5.246987999999998,4.182777275867577,0.0836639886547979
5.249383999999999,4.189856409151336,0.0833670509448408
5.251771999999999,4.19265180168854,0.0831481999705297
5.254152000000001,4.196518129412383,0.0829104578375077
5.256547999999999,4.199685609001924,0.082726958510829
5.258931999999998,4.20113052709877,0.0825482288847057
5.261316000000001,4.201923818889557,0.0823550762657284
5.263711999999998,4.203508506613263,0.0821658993229431
5.266096000000001,4.20458133765777,0.081954522450503
5.26848,4.2070046431426364,0.0817033183765424
5.270876000000001,4.21264075418742,0.0814028130469773
5.2732600000000005,4.217066160418702,0.081130305340296
5.275639999999999,4.2227022714634845,0.0808307496904771
5.278044000000001,4.230340483254685,0.0805053419253936
5.280432000000001,4.237978695045884,0.0801805271989499
5.282812,4.2466878420237215,0.0798375928854774
5.285215999999998,4.256467924188198,0.0794745718720829
5.287600000000001,4.265456610419756,0.0791117347931486
5.2899840000000005,4.268159455158344,0.0788430889510872
5.292380000000001,4.271374156576128,0.078599007115583
5.294768000000001,4.276311419486609,0.0783508936367382
5.297148,4.279386351277533,0.078117883957768
5.299551999999999,4.284463383814875,0.0778610353145914
5.301939999999998,4.288189941911857,0.0776422779787409
5.304320000000001,4.291125104075922,0.077417861607684
5.306723999999999,4.293920496613126,0.0772032391402494
5.309111999999999,4.29671588915033,0.0769881457964266
5.311492000000001,4.294855453888643,0.0768059662979168
5.313896,4.287919881947483,0.0766895594551757
5.318660000000001,4.259102867280467,0.0766297878083755
5.321055999999999,4.239130977502412,0.0766025903246734
5.323443999999999,4.214782799179185,0.0765837669872704
5.325824000000001,4.188200202684064,0.07653735496643
5.328219999999998,4.155518756151075,0.0765018267964852
5.330607999999998,4.118740560326635,0.0764504915178589
5.332988,4.079867715957161,0.0763565877209747
5.335387999999998,4.0307520504301255,0.0763355276875688
