Time,Force,Position
5.166091999999999,5.13167276439982,0.1672158325323896
5.1684920000000005,5.230823885866453,0.1663342937419564
5.170880000000004,5.321084556473753,0.1655015948736284
5.173259999999999,5.40245477622172,0.1647437685142918
5.175660000000001,5.47637756734933,0.1640505411654596
5.178044,5.540850829110168,0.1634470421967617
5.180427999999999,5.598016431877507,0.1628558964604137
5.182828000000001,5.645732505278073,0.1623455322495481
5.185216000000004,5.69251930897673,0.1617244187407883
5.187595999999999,5.731671692599926,0.1611746857607862
5.189996000000001,5.766355239879333,0.1606632949330049
5.192384000000004,5.79764088600159,0.1601580210606936
5.194763999999999,5.828322127646032,0.1596055146310137
5.197164000000001,5.856396864066244,0.1590530897109295
5.199552000000004,5.879583455262085,0.1585659329874219
5.2019360000000034,5.904400060152007,0.1580186084965782
5.204336000000005,5.922186649444283,0.1575850466420709
5.206724000000001,5.936528115751165,0.1572040441484094
5.209104000000004,5.953850070192486,0.1567137097488457
5.211504000000005,5.969729002394828,0.156231614166148
5.213892000000001,5.977459761984646,0.1559344767425874
5.216276000000001,5.985981917507379,0.1556308742066693
5.218672000000005,5.995854547470472,0.1552824896819436
5.221060000000001,6.004796011873788,0.1549540838776657
5.223444000000001,6.006288151798874,0.1547616422762263
5.225844000000002,6.005545873552066,0.1545822259486912
5.2282320000000055,6.002521955305122,0.1544649273173417
5.235400000000006,5.980366660899152,0.1543981897837248
5.237784000000005,5.9748287852265936,0.1543120932144701
5.240183999999999,5.971712319181033,0.154155246064063
5.242572000000003,5.967524917948833,0.1540242031719117
5.244956000000002,5.961195646343357,0.1539443530496164
5.249744,5.9414598657065145,0.1539371789445505
5.252124000000002,5.9335478022352,0.1538711872152045
5.254524000000004,5.927777609137165,0.1537533641691102
5.256912,5.921867646412271,0.1536444505981498
5.259295999999999,5.914095352567819,0.1535677799654188
5.261692000000004,5.914331461709035,0.1533236991578553
5.264084000000004,5.911774074170916,0.1531282906539071
5.266472,5.90814575144616,0.1529586211333473
5.268872000000002,5.900652996855428,0.1528630717047058
5.271260000000005,5.895953738944031,0.1527181687877828
5.2736480000000014,5.8908351721520535,0.1526011593384843
5.276048000000003,5.889860576479769,0.1523889778903543
5.278435999999999,5.888466671926906,0.1522052068166825
5.280824000000003,5.889586724799655,0.15198923557119
5.283224000000004,5.895362605471296,0.1516916883401675
5.290404000000002,5.876418220767374,0.1516755823238973
5.292788000000002,5.871717066998109,0.1516688266619264
5.295176000000005,5.872882445841233,0.1515434504313613
5.297575999999999,5.872697350243999,0.15146301357705
5.299964000000003,5.874886442445519,0.1513620030722917
5.302351999999999,5.877075534647039,0.1512616656499233
5.304752000000001,5.878985087594839,0.1511809339186036
5.307140000000004,5.884479533154892,0.1510457877341466
5.309536000000001,5.884759072408611,0.1510273221948951
5.311944000000004,5.887552569087947,0.150979543663265
5.314332,5.890066526513562,0.1509502675129979
5.316732000000002,5.898167477297846,0.1508254138425837
5.319132000000003,5.911064025507882,0.1506138742366253
5.32152,5.929547567076589,0.1503095028713605
5.323920000000001,5.946680634204935,0.1500511973280289
5.326316000000006,5.964744866893061,0.1497775701439747
5.328707999999999,5.983880034767824,0.149479904546282
5.331104000000003,5.999011001149755,0.1492657890659036
5.333511999999999,6.0189375649574375,0.1489623188197295
5.335896000000005,6.045801596564149,0.1485212615115987
5.338304000000001,6.075738664103916,0.1480167363549501
5.340700000000005,6.105535962016822,0.1475308982513903
5.3431,6.133191389556451,0.1470989028681776
5.345500000000001,6.165642414521832,0.1465879167806291
5.347888000000005,6.192087137247963,0.1461915919992644
5.350287999999999,6.216110450347096,0.1458606136636629
5.352696000000002,6.237060727513173,0.1455930195328731
5.355088000000002,6.257079839119473,0.1453428506343742
5.357468000000004,6.2812429218454655,0.1450069304936314
5.359872000000003,6.307408105317877,0.1446369074795274
5.362259999999999,6.335435619909842,0.1442391786468219
5.364640000000001,6.361600803382252,0.1438751622583284
5.367035999999999,6.383901554988688,0.1435814340175242
5.369424000000002,6.402617413982871,0.1433392129169659
5.3718040000000045,6.421473042603916,0.1430897255304531
5.374203999999999,6.442750080851957,0.1427827555633199
5.376592000000002,6.467239924659914,0.1424157107117488
5.3789720000000045,6.490798602908092,0.1420611791590908
5.381368000000002,6.516638921156408,0.1416593482882597
5.383756000000005,6.539685742725389,0.1413013630568635
5.3861360000000005,6.560870233174814,0.1409723044362741
5.388539999999999,6.574325859892292,0.1407629648259708
5.390928000000002,6.589271730676988,0.1405099653381818
5.393308000000005,6.5983510688492935,0.1403524807757754
5.395707999999999,6.610782982208375,0.1401213329618466
5.398096000000002,6.624425600380956,0.1398595596584038
5.400476000000005,6.637137052993758,0.1396087139525509
5.402872000000002,6.6499882752334205,0.1393510738021999
5.4052600000000055,6.6600460007937485,0.1391340231554183
5.407640000000001,6.664516732995407,0.138995985827695
5.410036000000005,6.6666132773983104,0.1388730704252135
5.4124240000000015,6.666987260308517,0.138768208363814
5.414804000000004,6.669642883218861,0.1386133236115651
5.417204000000005,6.6724382757560665,0.1384504940455172
5.4195920000000015,6.675792746800712,0.1382561071438369
5.43394,6.620680258323774,0.1381878179387722
5.436323999999999,6.616632626718435,0.1380514075022519
5.438720000000004,6.6104431247398185,0.1379559210087929
5.441108,6.605743866828423,0.1378156864431263
5.443491999999999,6.604397184103801,0.1376068980844714
5.445888000000004,6.603469810259761,0.1373743216889015
5.448280000000004,6.604963846042719,0.1370847222768821
5.450659999999999,6.6050148595867,0.1367960669635304
5.453056000000004,6.608138909063736,0.1364557979049621
5.455444,6.61340482891405,0.1360731575969108
5.457827999999999,6.619741683951002,0.1356704086296457
5.460224000000004,6.626358078241674,0.135250949136645
5.462612,6.629110040666374,0.1348889286775725
5.464995999999999,6.630930837531294,0.1345389170283044
5.467392000000004,6.630749533649799,0.1342215894018925
5.46978,6.635643366447773,0.1338187000455539
5.472163999999999,6.6416081344323885,0.1333940903859256
5.474560000000004,6.649714772790281,0.1329318878577362
5.476952000000004,6.656610706334675,0.1324979558002881
5.479331999999999,6.664437805438846,0.1320535719818672
5.481732000000001,6.676408875662713,0.1315390792901583
5.484120000000004,6.682233874020468,0.1311281027277255
5.4865,6.687547015699025,0.130705226522921
5.488900000000001,6.691649452564084,0.1303084782222133
5.491284,6.689745587189892,0.1300061412672536
5.493668,6.686770786629061,0.1297231053991422
5.496064000000004,6.682725050881592,0.1294592931591152
5.498452,6.67919117181332,0.1292073648218267
5.500836,6.673003565692573,0.1289821349391983
5.503232000000004,6.665884794012048,0.1287676075897861
5.50562,6.6618390582645794,0.1285039789473616
5.508004,6.660586819196445,0.1282073224051155
5.510400000000004,6.661196911247869,0.1278877966892565
5.5127880000000005,6.66259839923221,0.1275647045562889
5.515172,6.665582679082386,0.1272353599728474
5.517568000000004,6.668566958932564,0.1269076474890025
5.519960000000005,6.674624274715795,0.1265331316792005
5.52234,6.677468784939112,0.1262152222801934
5.524740000000001,6.681104691095346,0.1258940754184301
5.527128000000005,6.6828782661320245,0.1255947148392408
5.529508,6.681299265981927,0.1253584730353464
5.531908000000001,6.685586798444219,0.1250438309486761
5.534296000000005,6.68931525239907,0.1247592156786971
5.536680000000004,6.6969081382198965,0.1244251915727671
5.539076000000001,6.71101918295917,0.1240192054731778
5.541464000000005,6.728994659564417,0.1235670136585646
5.543848000000004,6.74869269766236,0.1231026360042514
5.546248000000006,6.769461670946942,0.1226223279648446
5.548636000000002,6.7924650624034175,0.1221438458561595
5.551016000000004,6.820124281658786,0.1216171592685907
5.553416000000006,6.840286954607684,0.1212138422216716
5.555804000000002,6.860449627556582,0.1208156856986364
5.558188000000001,6.881403696438399,0.1204168198912397
5.560588000000003,6.903428700506852,0.1200025289063864
5.562975999999999,6.923591373455752,0.1196083937361662
5.565356000000001,6.940401471217872,0.119272849962015
5.567751999999999,6.953858993793219,0.118997438122852
5.570140000000002,6.968387451555203,0.1187050442789137
5.572520000000004,6.983986844503826,0.1183969439805855
5.574919999999999,7.0013087989451455,0.1180777355790142
5.577308000000002,7.0199812278268245,0.1177270186442438
5.579692000000001,7.0346494552156695,0.1174312621455576
5.582087999999999,7.050528387418014,0.1171112610272623
5.584476000000002,7.067618024433857,0.1167720890980457
5.5868600000000015,7.076978797717752,0.1165217349400298
5.589260000000003,7.082475139135674,0.1163166759487866
5.591647999999999,7.089321954993957,0.1160827167071952
5.5940280000000016,7.0950978356656,0.115865548230198
5.596428000000003,7.099290924471406,0.1156528345165578
5.598815999999999,7.102692617344293,0.1154438458561933
5.601199999999999,7.112659690963873,0.1151329536401699
5.603596000000003,7.116480692717341,0.1149019223157723
5.605988000000004,7.117647967418336,0.1146898831297159
5.608372000000003,7.116952910999773,0.114495395962138
5.610768,7.118259955327626,0.1142766939575851
5.613156000000004,7.123990510028895,0.1139885929647649
5.615535999999999,7.13293387029008,0.1136545711686036
5.617932000000003,7.13894396424507,0.1133521908653871
5.62032,7.144162662267141,0.1130523748360892
5.622700000000002,7.146867402863598,0.112764002038704
5.625100000000003,7.153436575326028,0.112437567206531
5.627488,7.162147618161734,0.1120811849345657
5.629868000000002,7.172860761743857,0.1117033836128964
5.632263999999999,7.17742783345987,0.1114027740130461
5.634652000000003,7.189072142601773,0.1110176290221279
5.637032000000005,7.202578782863232,0.110617024545117
5.639428000000002,7.210079120885441,0.1102852998316699
5.641815999999999,7.215856897414952,0.1099622350569601
5.644200000000005,7.219772342824906,0.1096548489953307
5.646596000000002,7.219823356368888,0.1093869669609943
5.648983999999999,7.214519693979677,0.1091934335246574
5.651368000000005,7.217364204202993,0.108901725082315
5.6537640000000025,7.222210815172726,0.1085868076170728
5.656151999999999,7.22705742614246,0.1082713960324201
5.658532000000001,7.232183576365913,0.1079438221676086
5.6609320000000025,7.233305525096535,0.10766178484882
5.663319999999999,7.226419070841488,0.107468665285355
5.665700000000001,7.2252593795719715,0.1072217057629132
5.668100000000003,7.223959918675593,0.1069817952043493
5.670484000000002,7.223591623338994,0.1067334357925381
5.672868000000001,7.214143989830089,0.1065890265497293
5.675264000000006,7.200831924455211,0.1064819606690025
5.677648000000005,7.182724261654579,0.1064197734414895
5.680032000000004,7.167829404413864,0.1063135018347836
5.682428000000002,7.148930345680316,0.1062507219395139
5.684816000000005,7.126306624707655,0.106218030911064
5.687196,7.109409666720524,0.1061323641297252
5.689592000000005,7.093583643920031,0.1060316073774716
5.691980000000001,7.075755520373121,0.1059531191526956
5.694355999999999,7.05792739682621,0.1058743541354342
5.696760000000005,7.043172309212356,0.1057580435810219
5.699148000000001,7.023761393799611,0.1056790352442154
5.701528000000003,7.004210708760005,0.1056061069431719
5.703924000000001,6.985591189280177,0.1055249870658448
5.706312000000004,6.960825597934237,0.1055173414261433
5.7087080000000014,6.94085560401405,0.105463448353782
5.711103999999999,6.9299649482661705,0.1053062489357419
5.713492000000002,6.915489399906036,0.1051718199241566
5.7158760000000015,6.897009650053068,0.1050812213729691
5.718271999999999,6.880392231319656,0.1049746656329589
5.720660000000002,6.86791878370594,0.1048167211091422
5.723040000000005,6.856236732025141,0.1046575429475562
5.725436000000002,6.8482793425834565,0.1044672347875572
5.727824000000005,6.84032195314177,0.1042766668368992
5.7302040000000005,6.831433398140305,0.104093015367896
5.732600000000005,6.8264092750048135,0.1038713291273819
5.734988000000001,6.818591655189989,0.1036724283339747
5.737372000000001,6.8115654313080825,0.1034727379401983
5.739768000000005,6.80733270410551,0.10324930420669
5.742156000000001,6.8040311424627165,0.1030175138054039
5.744536000000004,6.802731681566339,0.1027642528732319
5.746940000000002,6.797939875856325,0.1025679397968776
5.7493280000000055,6.791145969399895,0.1023934692106544
5.751708000000001,6.783420897383686,0.1022262280180867
5.754104000000005,6.78077096204695,0.1019983914567646
5.7564920000000015,6.771463098164904,0.1018305880879964
5.758872000000004,6.757219867230248,0.1017143206772044
5.761268000000001,6.743116405922452,0.1015899500238606
5.7636560000000046,6.7342278509209885,0.1013988610577849
5.766052000000002,6.722126490359607,0.1012514335042602
5.768447999999999,6.710304669051949,0.1010888074183786
5.770836000000003,6.7024870492371225,0.100881905775222
5.773216000000005,6.69387803348938,0.1006751023361407
5.775620000000004,6.683266916995221,0.1004894050989747
5.778004000000003,6.673586966060838,0.1002956885379129
5.780384000000005,6.6608339791934,0.1001377713804693
5.782788000000004,6.649151927512602,0.0999648080330415
5.785176,6.637609645458661,0.0997841938298949
5.787556000000002,6.632353204897694,0.0995257920145975
5.789952,6.629098865083142,0.0992463596217045
5.792335999999999,6.622119863029478,0.0989946002769601
5.794720000000005,6.620355767282145,0.0986788608055551
5.797116000000003,6.618731441161674,0.0983544102860399
5.799503999999999,6.618038280600981,0.0980227882339217
5.801884000000001,6.617205350413427,0.0976986257651268
5.804284000000003,6.61795521209171,0.0973723772172041
5.806671999999999,6.617494368956495,0.0970655193007371
5.809052000000001,6.6134014113807815,0.0968219081453358
5.811452000000003,6.6050247130585165,0.096635497222313
5.813836000000002,6.598929654736388,0.096412300937557
5.816216000000004,6.595208784213013,0.096190080028949
5.818624,6.586552546637026,0.0960173023646671
5.821007999999999,6.574823273127983,0.0958795756704276
5.8233920000000055,6.563885395551859,0.0957416450782683
5.825788000000003,6.555880784281929,0.0955750777909088
5.828175999999999,6.5498782737584165,0.0953867408181094
5.830556000000001,6.542804828048267,0.0952123421616314
5.832956000000003,6.534520677524617,0.0950591995196398
5.849676000000002,6.406499631989119,0.0950408331551764
5.852056000000005,6.391742648517395,0.0950134545978818
5.854460000000003,6.381129636165366,0.0949374000305044
5.856847999999999,6.379735731612502,0.0947582090878792
5.859228000000002,6.384208359672029,0.0945251526196006
5.861623999999999,6.389472383664473,0.0942937475808712
5.864016,6.393013846164221,0.094069028640389
5.866396000000002,6.401211136462861,0.0938120892690113
5.8688,6.414204024187253,0.0935159115072266
5.871188000000004,6.429199012658062,0.0932003873198536
5.873567999999999,6.442983296315372,0.0929082013864487
5.875968,6.455836414412904,0.0926225620542176
5.878352,6.470272324376272,0.092339237168725
5.880735999999999,6.488712435832473,0.0920190065311145
5.883132000000003,6.512367453595007,0.091639340550377
5.885516000000003,6.532949435424486,0.0912923466667722
5.887900000000002,6.558606553933437,0.0908926838400761
5.890304,6.5857539165096055,0.0904571098910217
5.892692000000004,6.614903379832192,0.0900077052974954
5.895071999999999,6.643121677595001,0.0895668381598257
5.897468000000004,6.672550680171308,0.0891083219599953
5.899856,6.7027710786805335,0.0886557700782592
5.902236000000002,6.73192054200312,0.0882189566587604
5.904631999999999,6.755203472713316,0.0878355286280252
5.907020000000003,6.773690805997762,0.0874884780559679
5.909400000000005,6.792178139282207,0.0871437328448993
5.9117960000000025,6.809594537380014,0.086811488169521
5.914183999999999,6.828501179545039,0.0864510765517213
5.916568000000005,6.843822929097811,0.0861062407106056
5.918964000000003,6.859144678650583,0.0857634725842164
5.921351999999999,6.8736750322704365,0.0854203451139963
5.923748000000003,6.888857012196349,0.0850854442135261
5.926144000000001,6.903527135443063,0.0847366439019393
5.928532000000004,6.910328625330971,0.0844482469842473
5.930911999999999,6.914336618539543,0.0841760496656906
5.933320000000002,6.920626251748252,0.0838731465231253
5.935704000000001,6.924262157904487,0.0835794098559142
5.938084000000004,6.9322743526058925,0.0832766637301786
5.940484000000005,6.937493050627964,0.0829903439098129
5.942868000000004,6.941780583090257,0.0827087417470857
5.945247999999999,6.9457885762988285,0.0824415106951013
5.947648000000001,6.947934238387844,0.0821845675331214
5.950036000000004,6.951942231596416,0.0819195929370911
5.952416,6.957952325551405,0.0816396196378258
5.954812000000004,6.967035455439449,0.0813333205538668
5.9572,6.974116484581077,0.0810427994264813
5.9595800000000025,6.983479153722842,0.080724680143428
5.961976,6.986416211744775,0.0804720239832524
5.964364000000003,6.992006996819182,0.0802130027004636
5.966748000000003,6.996666616333814,0.0799590142845951
5.969148000000004,6.999324135102026,0.0797195149800872
5.971536,7.004263293870376,0.0794532037519804
5.973916000000003,7.007060582265451,0.0792077604146345
5.976312,7.018657669579111,0.0789054229740959
5.978700000000004,7.032908483945244,0.0785984941458285
5.981079999999999,7.051954895737129,0.0782689637372594
5.98348,7.075657135327906,0.0779228568462692
5.985868000000004,7.098847518239486,0.0775677233321646
5.988252000000003,7.121618592270485,0.0772321371598153
5.990648,7.145181062234402,0.0768992884071593
5.993036000000004,7.169023071452039,0.0765561710330947
5.995420000000003,7.192865080669676,0.0762141392307267
5.997816,7.215124298021476,0.0758696549320661
6.000204000000004,7.236033040932919,0.0755485199422832
6.002588000000003,7.256802014217501,0.0752357273162527
6.004984,7.280504253808278,0.0749076571678527
6.007372000000004,7.302576479704976,0.0746148282510891
6.009756000000003,7.329072215975088,0.0742775471892149
6.012152,7.355148643364619,0.0739599423515464
6.014540000000004,7.382156236313929,0.0736406176357723
6.016924000000003,7.413307800382932,0.073291255105989
6.01932,7.443528198892158,0.072948799342191
6.021708000000004,7.480546295573552,0.0725749273118314
6.024087999999999,7.515562291508528,0.0722187695730411
6.026484000000004,7.5485761866970895,0.0718768586445199
6.028872,7.572650513340204,0.0715875040277316
6.031268000000004,7.591789472930707,0.0713269265027894
6.033664000000002,7.600778159162266,0.0711301753335178
6.036052000000005,7.608463592781709,0.0709155890019611
6.038432,7.61763927046837,0.0706755889914719
6.040828000000005,7.624300990729417,0.0704328939423509
6.043216000000001,7.629379919124628,0.0701839616382913
6.0456,7.6313858115867825,0.0699545155153881
6.047996000000005,7.632507760317403,0.0696892447635405
6.050384000000001,7.630324355689492,0.0694167466580218
6.052764000000003,7.62325280583721,0.0691301640907114
6.055160000000001,7.614645685947335,0.0687974316010524
6.057548000000004,7.6043160045647635,0.0684637726750662
6.059932000000003,7.58672399015907,0.0681024724255246
6.062328000000001,7.560891255342231,0.0677543230589958
6.064716000000004,7.528819900860665,0.067408622180678
6.067095999999999,7.491441092274148,0.067062255080938
6.069492000000004,7.441305505104457,0.0667330780968658
6.07188,7.381346405657783,0.0664066661429897
6.074263999999999,7.313565894680546,0.0660716545139989
6.076660000000004,7.245553066277832,0.065703472335061
6.079048,7.17158115746411,0.0653207376235471
6.081432,7.104174629397079,0.0648751267125755
6.083828000000004,7.033974604650715,0.0644293514199138
6.086216,6.957908047291959,0.0640034690184118
6.088596000000003,6.877697518813509,0.0635984653108611
6.090996000000004,6.795624659215503,0.0631904655188391
