Time,Force,Position
6.137172,2.755000878798736,0.184893922721693
6.139524,2.8068986658578905,0.1845773490952423
6.141864,2.860054379558787,0.1841029260614471
6.144204,2.9131175454610663,0.1835758028596356
6.146552,2.96515699800495,0.1830603837219263
6.15592,3.1187065929512685,0.182929632494132
6.158256,3.1543137223589754,0.1828093526823007
6.1606,3.1901078432217864,0.182588743925327
6.162948,3.226228725166561,0.1822396527194747
6.165284,3.2653300952457727,0.1816819094532208
6.167632,3.3008937945409755,0.1811912586672304
6.169972,3.3365047156644208,0.1806087950031452
6.17232,3.379612183094336,0.1796603267260284
6.266068,3.385756359102577,0.1792236971840077
6.268416,3.380450800855497,0.1791617358941437
6.270756,3.379801070407309,0.1789254937764199
6.273096,3.3791513399591198,0.178689251658696
6.27544,3.3751490343241555,0.1786239117665868
6.277788,3.3739402253685253,0.1784572208346392
6.280124,3.3727314164128965,0.1782898725303993
6.282468,3.371754924882744,0.1781730018515486
6.284812,3.3763654267112626,0.1778544187206849
6.287156,3.389356418577785,0.1772158860221696
6.289508,3.4075150949223967,0.1764206176351755
6.291852,3.427536102386565,0.1755779124699202
6.294204,3.450490376156929,0.1746128870801513
6.29654,3.469021139553878,0.1738800247883395
6.298884,3.488203529256886,0.173140880559137
6.301236,3.504452652653697,0.1725240905803429
6.30358,3.520422236796789,0.171948816168903
6.305924,3.541187418365632,0.1711967877150282
6.308268,3.5613009736284176,0.170450874894168
6.310612,3.584208025570539,0.169622554058174
6.312948,3.606044142326021,0.1688478419965299
6.315292,3.6309532950145584,0.1679702785680996
6.317632,3.653068951023761,0.1671996052018665
6.319984,3.6773264774062406,0.1663477438099636
6.322328,3.702375399721638,0.16548433822233
6.324668,3.727144782783316,0.1646682790891692
6.327016,3.754707662524328,0.1637686001241484
6.32936,3.782410311892201,0.1628579752843222
6.331708,3.8091817957002942,0.1620000768507176
6.334048,3.8362328187621086,0.1611285939201527
6.3364,3.858628014025031,0.1603965009148368
6.338744,3.879672734847595,0.1597525115073144
6.341088,3.901508851603077,0.1591063946627129
6.343428,3.922413802798781,0.1584759364654654
6.345768,3.942667127688426,0.1578383269987579
6.348116,3.9647827836976286,0.1571465757313484
6.350464,3.987038209333691,0.1564477248816835
6.3528,4.0052894334769205,0.1558900206923038
6.35514,4.024332053553067,0.1553255876694519
6.357484,4.042443508069436,0.1548011709432874
6.359828,4.060554962585805,0.154276754217123
6.362168,4.072660114862923,0.1539508234232479
6.364512,4.084625497513182,0.1536393992498382
6.366864,4.093238304976664,0.1534599521114276
6.369204,4.101339255760948,0.1532649683142637
6.371548,4.10599508355984,0.1531412710242945
6.373896,4.108788580239175,0.153067740458691
6.376232,4.1130723209857285,0.1529167780858634
6.378572,4.117356061732283,0.1527685580879144
6.380916,4.121919341732558,0.1525968114045719
6.383264,4.130486823225666,0.1523063524300055
6.3856,4.136400577666299,0.1520723123760162
6.387944,4.136727338748262,0.1519755360389587
6.390284,4.14119807094992,0.151746361333673
6.39262,4.146879507965076,0.1514670210495175
6.394964,4.151909318674174,0.1511855887569737
6.397308,4.157078899010132,0.1508935358075146
6.399656,4.162528018599812,0.150573092248219
6.401992,4.165835267816213,0.1503249037140531
6.404336,4.16634902035328,0.1501458736944301
6.40668,4.167142312144068,0.1499406325789725
6.409016,4.168215143188576,0.1497067069449064
6.41136,4.170358909419721,0.1494373172421049
6.413704,4.176274559718224,0.1490085298737398
6.416048,4.181119274830088,0.1486153682619544
6.418388,4.189968191434787,0.1481067877518785
6.420732,4.198165481733426,0.1475936195841379
6.42308,4.200496239419676,0.1472411596108545
6.42542,4.199102334866812,0.1469791095430758
6.427764,4.193704228821115,0.1468330329605733
6.430108,4.18779426609622,0.1466692027550842
6.432448,4.1853766481849615,0.1463751843277746
6.43478,4.193760929938705,0.1457984124681805
6.437124,4.198141010199614,0.1453327314265998
6.439468,4.20559412639358,0.1447851410813586
6.441808,4.213978408147323,0.1442202406122755
6.444152,4.218358488408232,0.1437604065774999
6.446496,4.226742770161977,0.1431980792728513
6.448844,4.236617295982939,0.1425644373667775
6.45118,4.243558555497706,0.1419967545090672
6.453524,4.251570750199112,0.1413995439353812
6.455876,4.263447376766492,0.1407096569454539
6.45822,4.276394938520509,0.1399951232881387
6.46056,4.286781321020669,0.1393891982870581
6.462908,4.300240739453885,0.1387040193018467
6.465252,4.310627121954045,0.1381055196703394
6.467584,4.320873734827345,0.1375173060132229
6.469932,4.338849211432592,0.1367529513842269
6.472284,4.3577558535976175,0.1359633375348231
6.474624,4.380526927628615,0.1350862564489704
6.476968,4.4000851960997,0.1343059374238601
6.479312,4.41428878863759,0.1336845422696296
6.481656,4.4167593159507,0.1333433190990708
6.483992,4.421371713637087,0.1329386285405129
6.486344,4.422771305763558,0.1326300136823962
6.488684,4.423239732330252,0.1323408545416355
6.491028,4.427572590762918,0.1319651167454398
6.493372,4.42897218288939,0.1316592892397136
6.495716,4.432885732441475,0.1313270670816987
6.498068,4.443736749792589,0.1308358138605633
6.500408,4.454168458263124,0.1303842098322046
6.502752,4.463529231547019,0.1299666228815433
6.5051,4.468234177032023,0.1296343089970461
6.507432,4.472147726584108,0.1293066738157886
6.509776,4.474059175389778,0.1290267800029534
6.512128,4.479183429755362,0.1286640211860989
6.514468,4.485378619307586,0.1282729905678902
6.516812,4.485427736993699,0.1280283408806376
6.519156,4.482403818746755,0.1278542901896632
6.521504,4.474444533447201,0.1277864458426943
6.523848,4.466345478520785,0.1277307971302478
6.526192,4.459317358781008,0.1276468079267064
6.52854,4.460018102773178,0.1274003149984521
6.530884,4.461650012325128,0.127137640311846
6.561356,4.286902655924301,0.1270989074788189
6.563696,4.269306849802869,0.1270896730356909
6.56604,4.259067820361045,0.1268934121076279
6.568384,4.253112531665776,0.1265831978907815
6.570736,4.250370048530423,0.126187638059659
6.573068,4.2537736372611805,0.1256505044067851
6.575416,4.253592333379684,0.1251685447801106
6.577764,4.2486154320724365,0.1247749708867448
6.580108,4.2480620411386045,0.1242599661105757
6.582452,4.249370981324328,0.1237143781940829
6.584796,4.249469216696553,0.1232076717800122
6.587148,4.249986760949359,0.1226645225436407
6.58948,4.255439672254776,0.1220172682390973
6.591828,4.265036554679887,0.1212659932957135
6.59418,4.276915077105135,0.1204415587489287
6.59652,4.289445225836443,0.1196208194413163
6.598864,4.30076466975425,0.1188403404725253
6.601216,4.308871308112142,0.1181405462164838
6.60356,4.3119028097905625,0.1175504915237497
6.6059,4.315213850722702,0.1169269274333345
6.608244,4.314520690162008,0.1163955936978656
6.610596,4.308472853668123,0.1160058016150456
6.612936,4.298420815681403,0.1157055562332915
6.615284,4.286226907321407,0.1154602570962
6.64574,4.019165766022881,0.1152468369313966
6.648084,4.001942046953785,0.1152214223852507
6.650428,3.9913762564299993,0.1150811581836225
6.652768,3.987608164078381,0.1148131969329935
6.655108,3.9854228635926,0.114539179568912
6.657452,3.990966426838765,0.1141237802510548
6.659792,3.99581114195063,0.1137674208558906
6.662128,3.999584921875856,0.1134360258495895
6.664476,4.003218932174221,0.1131197059496156
6.666816,4.009646439151921,0.1127565291658318
6.669164,4.023523270607848,0.1122804543246801
6.671504,4.038051728369833,0.111821211814986
6.673848,4.05164902057204,0.1113687280433047
6.676196,4.064175377587608,0.1109431660773129
6.678532,4.08070593609601,0.1104411124449446
6.68088,4.099098825723968,0.1099067161820884
6.683232,4.116792867217625,0.1094340621456984
6.685576,4.128480606472031,0.1090846584124358
6.687916,4.143101612032633,0.1086860841355813
6.69026,4.162378445392127,0.1082251490206715
6.6926,4.182167135430817,0.1077853531066819
6.694936,4.20088489028287,0.1073735483896972
6.697284,4.219742414761782,0.1069580412727588
6.699632,4.233524802561225,0.1066493431324607
6.701976,4.247307190360666,0.1063406449921627
6.70432,4.259367016667411,0.1060544791053429
6.706664,4.274127791854872,0.1056756296268444
6.709008,4.292473459654587,0.1052586975934122
6.711348,4.305604221147969,0.1049467156447693
6.713696,4.319945687454852,0.104601274080561
6.716048,4.328420621149343,0.1043575238981677
6.718384,4.33317089260472,0.1041630116530289
6.720728,4.344858631859127,0.10385164943505
6.723076,4.358548471859951,0.1035063180365111
6.725416,4.368094340741081,0.1032451788887578
6.72776,4.376848813689293,0.1029841685590117
6.730104,4.387233300331583,0.1026568607154568
6.732452,4.402832693280208,0.1022260055298743
6.734792,4.417361151042192,0.1018257722061145
6.737136,4.428956342497981,0.1014771194730214
6.739492,4.444043878767407,0.101046266386153
6.741824,4.461413055036971,0.1005658597528503
6.744168,4.477711296119896,0.1001124192120046
6.746512,4.496151407576097,0.0996178754049742
6.74886,4.516873159032434,0.0990756628828247
6.751204,4.530377903436023,0.0986552741535065
6.753548,4.540530072652837,0.098308754893904
6.755888,4.546957579630537,0.0980034955528741
6.758232,4.560602093660989,0.0975723975556586
6.760576,4.572384276571881,0.0971636258526457
6.76292,4.584585768363356,0.0967220762989217
6.76526,4.6006516920208025,0.0962303788066606
6.767596,4.610711313438999,0.0958347509342108
6.76994,4.6166269637375015,0.095509293622326
6.77228,4.620260974035867,0.0952324270519299
6.77462,4.627759416200207,0.0949062367626757
6.776964,4.635257858364545,0.0945833631796468
6.779304,4.642756300528885,0.0942653646397193
6.781656,4.64653008045411,0.0939861252075877
6.784,4.645508262953584,0.0937637008014215
6.786348,4.639271539146725,0.0936307840215298
6.788696,4.6310327145934505,0.0935265282802328
6.795728,4.587366168656095,0.0934804749298665
6.798076,4.574331746677068,0.0934322289223263
6.800408,4.568374562123928,0.093276813499675
6.80276,4.5667011183173445,0.0930435685597593
6.805108,4.561023473017926,0.0928674476991632
6.807448,4.5581393243978425,0.0926648989536758
6.809792,4.553764931710541,0.092511006281175
6.812136,4.550461474209878,0.0923393603474924
6.81448,4.549160117455632,0.0921397882385181
6.81682,4.5510715662613,0.0918824898979875
6.819168,4.558756999880743,0.0914998564170845
6.821516,4.560715670514655,0.0911800575243703
6.82386,4.559601305215511,0.0909061513818667
6.8262,4.553272033610036,0.0907152391626762
6.828548,4.54694276200456,0.0905230783693206
6.830888,4.546619792638335,0.0902474530397524
6.833228,4.547367758458749,0.0899511458995873
6.835572,4.5461136235327455,0.0896817391534863
6.837912,4.549282998980156,0.0893264396805864
6.840252,4.5576672807339,0.0888868456047827
6.842596,4.565260166554726,0.088445354209117
6.84494,4.577648649801303,0.0879566359345881
6.847276,4.585101765995268,0.0875368316519359
6.849632,4.592275342935511,0.0871425741649933
6.851972,4.5997284591294765,0.0867275985238792
6.854324,4.605319244203884,0.0863307919542517
6.85666,4.615333539651707,0.0858551425147412
6.859004,4.617479201740723,0.0854680561383997
6.861352,4.620835568643238,0.0850553012671267
6.8637,4.627264971478808,0.0846052999401431
6.866044,4.630481568754462,0.0842082319692008
6.868388,4.636631432336311,0.083778473248641
6.870728,4.645574792597495,0.0833273206616577
6.873064,4.66066422472479,0.0827958857610938
6.875404,4.6778955272253615,0.0822302366272067
6.877756,4.689120527486684,0.0817345606748722
6.880092,4.7044894988677,0.0811867349270424
6.882436,4.720929405435352,0.080619795135065
6.88478,4.732154405696674,0.0801271989719836
6.88712,4.741377305211579,0.0796621689058293
6.889464,4.748877643233787,0.0791977262315613
6.891804,4.748928656777769,0.078785504273186
6.894156,4.74339267696308,0.0784068796543566
6.896496,4.727613875990829,0.0780940098090453
6.89884,4.709972743899023,0.0777907188146833
