Time,Force,Position
7.710391999999999,2.4306509523567086,0.1756969085547728
7.712772000000001,2.5172719250920355,0.1756553123587193
7.7151679999999985,2.6098519782383693,0.1753649700777688
7.717555999999998,2.7125350829154047,0.1746170743735447
7.719936000000001,2.8152181875924405,0.1738521525270996
7.722339999999999,2.924838760068505,0.1728620074579885
7.724727999999999,3.031898153290711,0.1721131324308436
7.727111999999998,3.143753143938669,0.1711941193867375
7.729507999999999,3.2558876738403484,0.1703307244600704
7.731895999999999,3.375518750048497,0.1690977355313157
7.734279999999998,3.4919842425249734,0.1679167225450656
7.736675999999999,3.6103592879492497,0.1665917245873271
7.739063999999999,3.7231945618430986,0.1654115567167735
7.741444000000001,3.825042840474712,0.1646214263446521
7.743839999999999,3.9282888153749274,0.163716463485912
7.746227999999999,4.023760600572821,0.1629918446697366
7.748611999999998,4.1145312320014495,0.162259463908498
7.751007999999999,4.2039532848475885,0.1613782285055298
7.753395999999999,4.285461378364546,0.1606788383041642
7.755772,4.366272519605072,0.159874984177117
7.758179999999999,4.441870650397135,0.1590948206768682
7.760567999999999,4.51327948409913,0.1583699047733898
7.762947999999998,4.581058099218497,0.1576407694137511
7.765343999999999,4.639200193515987,0.1570889191413888
7.767731999999999,4.696365796283324,0.1564503806083353
7.770115999999998,4.741193929348067,0.1560888238663491
7.772511999999999,4.787187441255935,0.155577691406771
7.774899999999999,4.824056289021121,0.1552154784837294
7.777280000000001,4.8573874660023,0.1548775020338419
7.779684,4.883828397012692,0.1546708531764038
7.782071999999999,4.913110046530662,0.1543448692690339
7.784455999999999,4.942811004929213,0.1539977977693089
7.786852,4.976935473701177,0.1535224243982359
7.789239999999999,5.012922273592698,0.1530050415328512
7.791619999999998,5.045044641618246,0.1525877573219809
7.794015999999999,5.0730230385241,0.1522705775107611
7.796403999999999,5.104586328042208,0.1518883462472036
7.798787999999998,5.136521704612654,0.1515352833324668
7.801183999999999,5.172321513049072,0.151102513557795
7.803571999999999,5.206491307791412,0.1507519001617025
7.805955999999998,5.23996225439945,0.1504576338893254
7.808351999999999,5.271151561007351,0.1502331935392362
7.810739999999999,5.302712954667589,0.1500397918467782
7.813119999999998,5.339442032805916,0.1497757499507283
7.815515999999999,5.377986220235558,0.1495381628311789
7.817903999999999,5.420766926583508,0.1492376736373905
7.820284000000001,5.460706914423882,0.1490510446859244
7.822679999999998,5.507165061182704,0.1487452777998063
7.825067999999998,5.551853424620586,0.1485172176002064
7.827448,5.594911774364389,0.1483506314644843
7.829847999999998,5.639041059294829,0.1481691952099089
7.834631999999999,5.712353758371017,0.1481328273188092
7.837028,5.749685345129289,0.1480980726569126
7.839416,5.7883674063279225,0.1480211391475075
7.841795999999999,5.835989036071999,0.1477598338350773
7.844192,5.882307413203962,0.1474996438408043
7.846579999999999,5.928673012164166,0.147195696393149
7.848959999999998,5.971313948885259,0.1469605704758944
7.85136,6.012651632994236,0.1467210358321003
7.853747999999999,6.050683963744678,0.1465109234907599
7.856127999999998,6.091137704122119,0.1462348391632827
7.858532,6.128286091141027,0.1459950189071307
7.86092,6.159195858495206,0.1458458359178669
7.863299999999999,6.185217480625018,0.1457424593720379
7.865704000000001,6.210215389396433,0.1456161127354412
7.868092000000001,6.234841211115512,0.145469093115802
7.870471999999999,6.2557423705954776,0.1453841795660467
7.872872000000001,6.277342378209744,0.145254239399881
7.875260000000001,6.302993809145088,0.145001608909476
7.877644,6.3238496426546815,0.1448339071403407
7.880043999999998,6.347918281724191,0.1445954892035921
7.882431999999998,6.3725459993011375,0.1443244702283548
7.884812,6.391446953892555,0.1441492777953656
7.887208000000001,6.408625346991277,0.1439964208763559
7.889599999999998,6.424640257104743,0.1438352784085823
7.89198,6.440515397591349,0.1436845461625475
7.894376000000001,6.454900294010736,0.1435822901331139
7.896767999999998,6.469564729683844,0.1434639157406417
7.899148,6.48623126610337,0.1433122358799358
7.901551999999999,6.507041773642589,0.1430820142351102
7.903939999999999,6.526129719689113,0.1428727805381982
7.906320000000001,6.545357435362496,0.1426550647066281
7.908715999999998,6.568868891782433,0.1423532294534152
7.911107999999999,6.593311513762148,0.1420365051464675
7.913488000000001,6.619896006115139,0.1416817460979969
7.915887999999999,6.644757936975434,0.1413446953083531
7.918275999999999,6.669899407089452,0.1409925816754007
7.920656000000001,6.6951806468303285,0.140633962227133
7.923051999999998,6.719390951384563,0.1403021992311344
7.925439999999998,6.741878694446103,0.1399852623494833
7.927824000000001,6.763714811201584,0.1396677102654347
7.9302199999999985,6.783688596837512,0.1393772961948783
7.932607999999998,6.809808454339549,0.1389806793277813
7.934988000000001,6.834997146281807,0.1385977295294764
7.937383999999998,6.853248370425037,0.1383284289105752
7.939775999999998,6.868845867515793,0.1380891787936118
7.942156000000001,6.884722903860268,0.137834938496242
7.944551999999998,6.8987376090851855,0.1376056141486243
7.946939999999998,6.90916742169785,0.1374192695150375
7.949324000000001,6.919737003937375,0.1372273679119994
7.951719999999998,6.928584024684204,0.1370522056124438
7.954107999999998,6.938501980617672,0.1368576752080143
7.956492000000001,6.943344799871666,0.1367473966184035
7.958887999999998,6.9524713598722165,0.1365597267358656
7.961275999999998,6.957453948753071,0.1364434027247975
7.963656,6.962296768007067,0.1363342044796718
7.966052000000001,6.96835029207456,0.136198748282829
7.968440000000001,6.972541485022497,0.1360869047819673
7.970824,6.972588706850742,0.1360451983657679
7.973220000000001,6.977711065358457,0.1359218007537648
7.975608000000001,6.983485050172231,0.1358026594251211
7.977988,6.988467639053085,0.1356874460331118
7.980387999999998,6.990377192000887,0.1356231860462956
7.982776000000001,6.996290946441519,0.1354989941559957
7.985156,7.004858427934628,0.1353470151276795
7.987552000000001,7.01743011092057,0.1351353698468025
7.989940000000001,7.028139462786955,0.1349465294528175
7.992324,7.039779980213119,0.1347458353436861
7.994720000000001,7.0522118935722,0.1345409140198409
7.997104,7.063433102117783,0.134364022834508
7.999487999999999,7.077447807342701,0.134153997625613
8.001891999999998,7.090391577380982,0.1339633405215918
8.004279999999998,7.107479318538955,0.1337056036043753
8.00666,7.119491923017455,0.1335280924438561
8.009056000000001,7.134857102682732,0.1332886468802656
8.011447999999998,7.154366253467704,0.1329844587154853
8.013828,7.167869102013425,0.1327674931701261
8.016224000000001,7.182442885745783,0.1325317886590604
8.018612000000001,7.199438079105138,0.1322431753752673
8.020996,7.210566739852104,0.1320363410891697
8.023392000000001,7.220392147986955,0.1318232369729866
8.025780000000001,7.233011052801139,0.1315779990186354
8.028164,7.243767626495767,0.1313546599585053
8.030560000000001,7.246655566831588,0.1312409478597394
8.032951999999998,7.24982304642113,0.1311125514808537
8.035332,7.246704684517701,0.1310864425378544
8.037728000000001,7.246659358547329,0.1310129574772881
8.040116000000001,7.248755902950229,0.130903479572963
8.0425,7.253785713659329,0.1307551604469315
8.044895999999998,7.25788435880865,0.1306177924926456
8.047284000000001,7.259049737651774,0.130519902095412
8.049668,7.2602151164949,0.1304220116981783
8.052067999999998,7.258959085711025,0.1303744385012603
8.054455999999998,7.261707256419986,0.1302705180303396
8.059235999999999,7.257657728956776,0.1302542684700213
8.061619999999998,7.259287742650855,0.1302079945714095
8.064,7.265713353770686,0.130103618564652
8.066403999999999,7.276655023062549,0.1299569273816979
8.068787999999998,7.295465325713218,0.1297097345156199
8.071168,7.314507945789366,0.1294882980334622
8.073571999999999,7.330477529932456,0.1293113962426803
8.075959999999998,7.347518049262187,0.1291172247908156
8.078336,7.372427201950724,0.1288221001893317
8.080739999999999,7.400129851318596,0.1284998376250903
8.083127999999999,7.436399982179576,0.1280450756888381
8.085508,7.472390573786837,0.1276090971538067
8.087912,7.510383266140514,0.1271550834237506
8.090295999999999,7.545442692187996,0.126739910915401
8.092676,7.580502118235477,0.1263247384070515
8.09508,7.618634580216014,0.1258693136932233
8.097468,7.661842178876023,0.125353333656204
8.099847999999998,7.70947328790945,0.1247718568968752
8.102252,7.755102296196456,0.1242219194128029
8.104636,7.803572022991042,0.1236102368730501
8.107015999999998,7.855254555345544,0.1229532333973681
8.10942,7.908427331767264,0.1222700569187982
8.111804,7.952940078897258,0.1216826213732054
8.114183999999998,7.992657228601502,0.1211518542080279
8.116588,8.024226205693216,0.1207253655194839
8.118976,8.053420994986178,0.1203043621792419
8.121355999999999,8.084617885025555,0.1198591745334004
8.12376,8.115535235811212,0.1194269311416117
8.126148,8.139654888424701,0.1190696697228709
8.166764,8.056749098639136,0.1189886673095103
8.169152,8.054002823788045,0.118976967019048
8.171536,8.054609124123727,0.1189173338211191
8.173932,8.0598712522583,0.1188186298896043
8.176316,8.070860143378408,0.1186670815712917
8.1787,8.083851135244931,0.1184930344010083
8.181096,8.099635623790789,0.1182961326191022
8.18348,8.117282443456201,0.1180824488307678
8.185859999999998,8.133858327934979,0.1178836551081027
8.188264,8.141494643868308,0.1177801438147037
8.190652,8.151552369428636,0.11763724255787
8.193031999999999,8.172319446855349,0.1173562120145365
8.195428,8.196019790588256,0.1170427572378768
8.197816,8.226797371747056,0.1166490347662284
8.200195999999998,8.260647988838908,0.1162185341012923
8.2026,8.289563238878149,0.1158411022730058
8.204988,8.313822661118497,0.115502247778994
8.207367999999999,8.332215550746453,0.1152228127834611
8.209764,8.348746109254854,0.1149597326145685
8.212152,8.364997128509538,0.1147113756886507
8.214531999999998,8.378454651084887,0.1144870418571365
8.216928,8.387907972167397,0.1143064668777649
8.219311999999999,8.391634530264383,0.1141776438220057
8.221692000000001,8.39484923168217,0.1140388512992922
8.224084000000001,8.393408105301063,0.1139374413113471
8.226472000000001,8.393457222987173,0.1138047608638809
8.228852,8.389921448061035,0.1136955402779798
8.231268,8.386944751642336,0.1135623207380017
8.233652,8.38103478891744,0.1134568705870632
8.236031999999998,8.38047950212574,0.1132839744560715
8.23844,8.375780244214342,0.1131587421286361
8.240824,8.360790943317141,0.1131489414986133
8.243203999999999,8.349154217606715,0.113092708544928
8.245604,8.334584225590094,0.1130637607611141
8.247992,8.32136470801383,0.1130090879535875
8.250371999999999,8.310287060810843,0.1129281554985179
8.252768,8.304284550287328,0.1127934922160663
8.255151999999999,8.305638816443427,0.1125735939729962
8.257532000000001,8.30857587446536,0.1123515059270025
8.25994,8.308719435807957,0.1121509364772308
8.262328,8.31151672420303,0.1119355862157415
8.264703999999998,8.316316113344516,0.1117005307792753
8.267108,8.327493891777593,0.1114232393073039
8.269496,8.336390030210532,0.1111778325050003
8.271875999999999,8.350081766069225,0.1108927482077733
8.274280000000001,8.36028115711428,0.1106576892021313
8.276668,8.372063340025171,0.1104201404156637
8.279048,8.38449714924212,0.1101883228843987
8.281444,8.400143764018985,0.1099175110277494
8.283832,8.415091530661549,0.1096773489091301
8.286211999999999,8.433112333237167,0.1094048647077746
8.288616000000001,8.461003869918011,0.1090410137010458
8.291004000000001,8.487405162531635,0.1087101712159813
8.293388,8.513946224772122,0.1083742011984351
8.29578,8.540067978132027,0.1080591046490275
8.298168,8.568983228171268,0.1077268677406919
8.300548,8.594825442277452,0.1074272653505443
8.302944,8.61731508119686,0.1071735748360866
8.305332,8.640224028996851,0.1069042810339713
8.307711999999999,8.66406414235662,0.1066285704036913
8.310116,8.684179593477275,0.1063785849478471
8.312504,8.703224109411291,0.1061414922488372
8.314884,8.717473027919555,0.1059425859432057
8.31728,8.734794982360874,0.1057143384829973
8.319664,8.750254605682636,0.1055004096131262
8.322047999999999,8.769718430497232,0.1052507465711926
8.324444,8.790253190498467,0.1049899411718675
8.326827999999999,8.810787950499703,0.1047303191821222
8.329208000000001,8.830763631993497,0.1044933209136324
8.331623999999998,8.850227456808094,0.1042462354631855
8.334008,8.870622447182468,0.1039949980837675
8.336392,8.886221840131093,0.1037814818886894
8.338788000000001,8.902380311587157,0.1035472576160669
8.341176,8.919469948603,0.1033081371488179
8.343556,8.933626319312646,0.1030922747209278
8.345959999999998,8.941776387783044,0.1029274188694203
8.348347999999998,8.95085762181322,0.1027567339974618
8.350728,8.961149560656892,0.1025705465401408
8.353127999999998,8.96822869394065,0.1024176986686127
8.355512000000001,8.977589467224547,0.1022381285131575
8.357896,8.991885607561057,0.1020203885713308
8.360292000000001,9.005390351964646,0.1018028913286613
8.362680000000001,9.020245570808592,0.101563671790376
8.36506,9.033238458532985,0.1013366999925754
8.367456,9.04422924551096,0.1011264566709461
8.369844,9.05256630543646,0.1009278745463996
8.372224,9.06118290461568,0.1007194511050852
8.37462,9.066074841555787,0.1005324184416896
8.377012,9.075530058496172,0.1002931436138925
8.379392,9.086195980250054,0.1000388029137406
8.381795999999998,9.097281210884514,0.0997706657348351
8.38418,9.11036854226539,0.0994881052056357
8.38656,9.122384938459632,0.0992170872626814
8.388963999999998,9.131747607601396,0.0989563936306682
8.391352000000001,9.140458650437104,0.0986895918260572
8.393728,9.152801807713306,0.0983752773997342
8.396124,9.166215900176146,0.0980513565139003
8.398508,9.175625791146151,0.0977587546821293
8.400887999999998,9.184244286183244,0.0974643627516015
8.403292,9.190581141220198,0.097197016462788
8.40568,9.193053564391176,0.096955987431927
8.408059999999999,9.195525987562156,0.0967146441564634
8.410456,9.198929576292912,0.096468891651517
8.412844,9.204475035396948,0.0962038023542285
8.415227999999999,9.210439803381565,0.0959228988318472
8.417624,9.217475506552818,0.095631981306308
8.420008,9.22572191453757,0.0953275933197149
8.422404,9.239043459201795,0.0949838583918847
8.424803999999998,9.24635870162677,0.0946856565830025
8.427188000000001,9.25046113849183,0.0944170781201435
8.429572,9.247998194610195,0.0942123379414679
8.431968000000001,9.23952894848931,0.0940509486263824
8.434356000000001,9.22877806236829,0.0939141290634576
8.436736,9.221751838486384,0.0937583795333724
8.439139999999998,9.215517010537392,0.0936026890695691
8.441527999999998,9.209794039267605,0.0934578332325778
8.443908,9.20542154243817,0.0932933607563032
8.446303999999998,9.202259750422233,0.0931136414929487
8.448692000000001,9.207106361391968,0.092877759343507
8.451072,9.209159475682364,0.0926548205070132
8.453468,9.211352359599625,0.0924265158360295
8.455856,9.217409675382855,0.0921759176477555
8.458236,9.220254185606173,0.0919539660340714
8.460636000000001,9.21709239359024,0.0917738345778891
8.463024,9.21644455899992,0.0915908796470902
8.465404,9.217659055529158,0.0913997132870815
8.467807999999998,9.212587710565424,0.0912597810021595
8.470192,9.203372394481995,0.091152283794813
8.472576,9.192015208025287,0.0910632384794737
8.474975999999998,9.183731057501642,0.0909507319672654
8.477363999999998,9.17800808623185,0.0908033066519008
8.479744,9.176429086081752,0.0906222706682526
8.482147999999999,9.180204761864848,0.0903939583937897
8.484535999999999,9.181978336901526,0.0901801970369706
8.486919999999998,9.185102386378563,0.0899467709082903
8.489315999999999,9.187574809549544,0.0897079763757847
8.491703999999999,9.18376139122755,0.0895199341797299
8.494084,9.18502310958503,0.0892964096294085
8.496479999999998,9.18041829533012,0.0891087539509472
8.498867999999998,9.181028387381543,0.0888804902883101
8.501248,9.182429875365884,0.0886531691842056
8.503647999999998,9.17917553555133,0.0884463489617836
8.506032000000001,9.17755120943086,0.0882098837468372
8.508416,9.177928984056807,0.0879589868243974
8.510815999999998,9.17365093088386,0.0877280697565588
8.513203999999998,9.16578798509866,0.0875080814133843
8.515588000000001,9.16514204636621,0.0872349691929688
8.517983999999998,9.168919618007171,0.08692129453043
8.520371999999998,9.178703491887386,0.0865685197234124
8.522756000000001,9.187556200207824,0.0862206658871116
8.525151999999999,9.203206606700428,0.0858380845347731
8.527535999999998,9.21992794837967,0.0854481925759799
8.52992,9.228501117446388,0.0851130902435311
8.532324,9.234141020206913,0.0847934220913996
8.534711999999999,9.240712088527207,0.084471026486351
8.537092000000001,9.246863847966928,0.0841639628432047
8.539487999999999,9.260092844832537,0.0838113616204963
8.541875999999998,9.264754360205036,0.0835280922412606
8.544256,9.267274005204255,0.083261121689254
8.54666,9.2676517798302,0.083012215940556
8.549047999999999,9.268029554456149,0.0827634686146596
8.551427999999998,9.269990120947927,0.0825171830941899
8.553832,9.275395810425104,0.0822676731990363
8.55622,9.286668032514669,0.0819885640807639
8.558599999999998,9.30580888796304,0.0816688758474855
8.560996,9.326532535277249,0.0813523136431983
8.563379999999999,9.341110110725346,0.0810763773277553
8.565760000000001,9.354057672479362,0.0808298367363291
8.568164,9.366213838300462,0.0805832900026063
8.570547999999999,9.376228133748285,0.0803527006386879
8.572928000000001,9.37823402621044,0.0801678656238649
8.575327999999999,9.3760959475529,0.0800099590818042
8.577711999999998,9.381826502254173,0.0798120178281799
8.580092,9.394494524754467,0.0795782085343097
8.582484000000001,9.41088720949388,0.079334583969801
8.584872,9.425557332740595,0.0790920593579653
8.587252,9.437433959307974,0.0788602472593545
8.589663999999999,9.451220138823151,0.0785903305522122
8.592051999999999,9.46663633203241,0.0782926003375948
8.594432000000001,9.47553436632322,0.0780143678471841
8.596836,9.479544255389662,0.0777289084382572
8.599219999999999,9.47652412885846,0.0774509432096044
8.601603999999998,9.460467684490355,0.0772135117459824
8.604008,9.433377023031776,0.0770060823523015
8.606392,9.39231887817652,0.0768416789518118
8.608771999999998,9.34329955216384,0.0766876478008704
8.611180000000001,9.289392080926792,0.0765249208568562
8.613564,9.222076204800508,0.0763865564085699
