Time,Force,Position
9.616359999999998,9.277687679585243,0.1530571325437439
9.618756,9.41970636762484,0.1528995375903237
9.62114,9.569778784620476,0.1526989654072318
9.62352,9.720176066840205,0.1525476710838606
9.625932,9.880768948389257,0.1523311096189663
9.62832,10.05039394628237,0.1520310670120618
9.6307,10.22411569346693,0.1517157586602716
9.633095999999998,10.398209527703832,0.1514196030145376
9.63548,10.571232426754092,0.1511401030238558
9.637859999999998,10.75226372879002,0.1507737131038679
9.640275999999998,10.936927145266443,0.150351795800468
9.64266,11.118704517264916,0.1499425387776503
9.645039999999998,11.299365628106374,0.1495057368564375
9.647436,11.47681582924579,0.149047292018995
9.649819999999998,11.643466026578071,0.1486322654247127
9.6522,11.808675097529244,0.1481585378512337
9.654616,11.964853947994223,0.1477054774464097
9.656999999999998,12.110140246853458,0.1472761529515128
9.659384,12.239039548546886,0.1469434994527741
9.661779999999998,12.355556054567344,0.1466595169084239
9.664164,12.470119577527496,0.1463047694048346
9.666543999999998,12.573511009628175,0.1459777403717512
9.668959999999998,12.667592681988946,0.1456656896651889
9.671344,12.757160192035553,0.1453232189696509
9.673728,12.827779525662498,0.1450965951903327
9.676132,12.890532121788508,0.1448811564664505
9.678515999999998,12.94434704522694,0.1446858868279566
9.680896,12.994811289336464,0.1444672591793975
9.6833,13.046580681915971,0.1441910126397374
9.685688,13.087922157740689,0.1439588860273289
9.688064,13.125493645355911,0.1437171932334978
9.690472,13.157804900694432,0.1434864733568636
9.692856,13.182714053382972,0.1432888162847652
9.695236,13.201524356033644,0.1431272184726139
9.697632,13.221452815699196,0.1429324215941205
9.700016,13.234351259767102,0.1427806616844325
9.702395999999998,13.240172466409115,0.142692358984345
9.7048,13.247064608237771,0.142593395341496
9.707188,13.254096519693285,0.142490084966984
9.709568,13.266483107081994,0.1423337458523305
9.711963999999998,13.275656888910786,0.1422101306756933
9.714348,13.286693001859136,0.1420732954145452
9.716727999999998,13.296378640367124,0.1419554579038266
9.719131999999998,13.306855674808036,0.1418359021059654
9.721519999999998,13.323758320368771,0.141651397049877
9.723895999999998,13.337587929996456,0.1414951431346917
9.726304,13.350346604437505,0.1413494307125593
9.728687999999998,13.357658055146738,0.1412393066122188
9.731068,13.355657850258188,0.1411950212278598
9.733472,13.352866249436724,0.1411532014850443
9.73586,13.345279051189506,0.1411480200043893
9.73824,13.340904658502204,0.141111115771435
9.740636,13.340022610628536,0.1410344858823394
9.743023999999998,13.343424303501427,0.1409160190358873
9.745404,13.351481824173206,0.1407662073656898
9.747804,13.35711793521799,0.1406448303600425
9.750191999999998,13.367177556636188,0.1404773763975253
9.752572,13.37444368137505,0.1403291744042809
9.754967999999998,13.38292051092741,0.1401664072020242
9.757356,13.382318002307462,0.1400818377703911
9.759732,13.383997133687654,0.1399725732407623
9.762135999999998,13.386235343575288,0.1398475274347784
9.764524,13.38796169678372,0.1397167522908777
9.766903999999998,13.385032222193267,0.1396178698857159
9.769308,13.382102747602808,0.1395189937544227
9.771691999999998,13.381315143385628,0.1393994676118065
9.774072,13.382809179168586,0.1392553499959848
9.776476,13.39096114349685,0.1390633816881447
9.778864,13.405771036370425,0.1388234523410867
9.781244,13.42151209480378,0.1385772771419902
9.783648,13.435111282863856,0.1383504476108164
9.786032,13.447779305364156,0.1381309505482408
9.788415999999998,13.456815213423958,0.137954255416983
9.790812,13.459844819244504,0.1378272963500494
9.7932,13.45407462614647,0.1377685939477059
9.79558,13.454450504914549,0.1376565676892102
9.797984,13.454826383682624,0.1375447762668432
9.800368,13.457204363197118,0.1374164911403672
9.802748,13.460793047525106,0.1372743308457382
9.80514,13.47066757334607,0.1370750992093504
9.807528,13.479610933607256,0.1368828491995158
9.809924,13.488274754614718,0.1366991003550952
9.81232,13.499871841928377,0.136493582762016
9.814704,13.51361079961531,0.1362678685512136
9.817087999999998,13.531353958795084,0.1360114541784721
9.81948,13.548165952415074,0.1357616103263249
9.821867999999998,13.564838176408204,0.1355165273545751
9.824248,13.57457293260231,0.1353252615425311
9.826648,13.57909278249008,0.1351795050292839
9.829036,13.586545898684042,0.1350126810043915
9.831416,13.603869748983232,0.1347721460737317
9.833808,13.619982894468922,0.1345457133966516
9.836196,13.640519550328026,0.1342768296042711
9.838576,13.663570163612745,0.1339972718291393
9.840972,13.693558244696492,0.1336650213981965
9.843355999999998,13.720473289847185,0.1333595177511262
9.845736,13.7440357598111,0.1330868361335475
9.848152,13.773604532014268,0.1327704318173036
9.850535999999998,13.803824930523492,0.1324576407883744
9.852916,13.828830422726387,0.1321888358544956
9.855312,13.847829612690028,0.1319650707424448
9.857696,13.864826701907257,0.1317568037179483
9.860079999999998,13.880752855937844,0.1315590053635251
9.862476,13.897330636274488,0.1313636138406422
9.864859999999998,13.910555841424358,0.1312014627049356
9.86724,13.922710111387588,0.1310487043453023
9.869652,13.931651575790903,0.1309240538230902
9.872039999999998,13.945807946500553,0.1307562270308064
9.874432,13.966250158703172,0.130536475624187
9.876828,13.981757003853176,0.1303526489133485
9.879216,13.990186611577291,0.1302236194733968
9.881595999999998,13.997685053741632,0.1301000563601189
9.884,14.006626518144948,0.12997762669633
9.886387999999998,14.01798939217526,0.1298297090416726
9.888768,14.027210395832292,0.1297007569820753
9.891163999999998,14.036431399489327,0.1295718792182531
9.893548,14.051798475012474,0.1293962756411466
9.895931999999998,14.058877608296235,0.1292863769256144
9.898328,14.0606020656468,0.1292215105758729
9.900712,14.06991561710245,0.1291105025055793
9.903092,14.091613860088945,0.1289236850664782
9.905487999999998,14.117828161247466,0.1287148464291953
9.907872,14.143623153525407,0.1285175549345024
9.910251999999998,14.164343009123876,0.1283569277264727
9.912652,14.183991929535708,0.1282053598985078
9.915036,14.206294577000014,0.1280418970973087
9.917419999999998,14.232601425957151,0.1278500285458941
9.919832,14.258209426779992,0.1276775758580029
9.92222,14.2786025212965,0.1275466298590742
9.924599999999998,14.304442839544816,0.1273886086965288
9.927,14.333356193726186,0.1272081684308204
9.929384,14.366133979773531,0.1270042139486069
9.931764,14.393045233208484,0.1268388188159927
9.93416,14.418885551456802,0.1266831566073783
9.936547999999998,14.446867740078392,0.1265112656148925
9.938928,14.476712259819545,0.1263298707036382
9.941328,14.503623513254496,0.1261685964108458
9.943712,14.533607802622504,0.1259849657503391
9.946091999999998,14.568015602363928,0.1257628172722261
9.948491999999998,14.598698739866242,0.1255623652367637
9.95088,14.61899928658413,0.1254212085958652
9.953259999999998,14.63413214882393,0.1252994380458439
9.955676,14.647821988824752,0.1251769371201163
9.95806,14.671662102184522,0.1249846711561994
9.960444,14.694059193305312,0.124791291201758
9.962839999999998,14.716875593306687,0.1245883601890994
9.965228,14.740902698121555,0.1243749041971234
9.967607999999998,14.761484679951035,0.1241737662335521
9.970004,14.784348301780652,0.1239526834131242
9.972388,14.802835635065094,0.1237494053946728
9.974784,14.82118319872268,0.1235505452461427
9.97718,14.838599596820488,0.1233575740947091
9.979568,14.85815786529157,0.1231478371944654
9.981948,14.87864729932243,0.1229342321110978
9.984352,14.894061596673822,0.1227548665512663
9.98674,14.90961566365207,0.1225728588533672
9.989119999999998,14.92395902581682,0.1224026450190774
9.991523999999998,14.937371222421794,0.1222373209293638
9.993911999999998,14.950643649399906,0.1220758498769219
9.996292,14.962333284512182,0.1219169372039475
9.998691999999998,14.977747581863571,0.1217393654011312
10.001076,14.994604901453936,0.1215626791135107
10.003455999999998,15.01225361697722,0.1213848066210947
10.005852,15.026037900634533,0.1212302782859953
10.00824,15.044757551344452,0.1210466802764139
10.01062,15.061475101307956,0.1208761352323516
10.013024,15.076470089778766,0.1207121498296599
10.015408,15.096400445302187,0.1205194718151665
10.017788,15.115911491945026,0.1203374312376804
10.020192,15.135282768961009,0.1201586015404006
10.02258,15.153071254111149,0.1199824644057667
10.024959999999998,15.16806624258196,0.1198199279875581
10.027356,15.185482640679766,0.1196358143097705
10.029744,15.19982600284452,0.1194717723983183
10.032124,15.21924450168874,0.1192762032501774
10.03452,15.23386740310721,0.1191057607021568
10.036908,15.246116116726927,0.1189380774401064
10.039288,15.255571333667309,0.1187831877140722
10.041688,15.265445859488269,0.1186186873697226
10.044071999999998,15.27597201161529,0.1184565453265679
10.046456,15.286917472622893,0.1182848452600246
10.048851999999998,15.301215508817265,0.1180875103205681
10.051239999999998,15.315793084265364,0.1178837252217338
10.053636,15.326226688593769,0.1177071849186468
10.056031999999998,15.332376552175615,0.1175613740937323
10.058416,15.34267038687716,0.1173893760140483
10.0608,15.351473977511484,0.117235053079909
10.063196,15.357484071466471,0.1170938174190922
10.065584,15.362051143182486,0.1169511539777518
10.067963999999998,15.371833121204832,0.1167751174489484
10.07036,15.381615099227178,0.116599300974958
10.072748,15.39325940836908,0.1164153904825336
10.075128,15.400759746391287,0.1162579701623849
10.077528,15.410681494040492,0.116079442204607
10.079911999999998,15.417018349077445,0.1159144606837365
10.082296,15.429501275980508,0.1157123317636564
10.084692,15.448642131428882,0.1154791815832604
10.087076,15.474860224303145,0.115205511643654
10.089455999999998,15.502149252364042,0.1149260361333906
10.091852,15.5307887548653,0.1146335759588225
10.09424,15.560219653299477,0.114341721409877
10.096623999999998,15.58592588949454,0.114066698979135
10.09902,15.61377399606288,0.113778596547355
10.101408,15.640039310765385,0.113490622201636
10.103787999999998,15.669796970281526,0.1131756145805086
10.106203999999998,15.691406457185138,0.1129080677893647
10.108588,15.710641756289998,0.112642143704133
10.110972,15.727874954648437,0.1123870891122867
10.113368,15.74482861375316,0.1121382832505139
10.115752,15.75484480505885,0.1119266831060203
10.118135999999998,15.766723327484096,0.1117079447245021
10.120532,15.775528813976292,0.1115070262372077
10.12292,15.783123595654985,0.1113157259853518
10.125316,15.7915097732666,0.1111244144785702
10.127712,15.79933687237077,0.110945734370478
10.1301,15.803159769982107,0.1107891183782852
10.13248,15.80376986203353,0.1106539178487843
10.134875999999998,15.798094112591984,0.110557213719105
10.137263999999998,15.789857183896578,0.1104837975485246
10.139648,15.783203047067008,0.1104093127166104
10.142044,15.77533820542394,0.1103448232168978
10.144431999999998,15.768776616392987,0.1102854885105666
10.146812,15.75965384810818,0.1102490585859622
10.149207999999998,15.757980404301591,0.110183486062788
10.151592,15.758029521987703,0.1101140642425397
10.153972,15.765016107472848,0.1100101858613417
10.156375999999998,15.77558758557024,0.1098950242592343
10.158764,15.792677222586086,0.1097552884500251
10.161143999999998,15.81377106109476,0.109595585456539
10.163548,15.838170252961968,0.1094307087290809
10.165936,15.855492207403287,0.1093028655592797
10.168316,15.876026967404524,0.1091550523561158
10.17072,15.904430360764566,0.1089699757783296
10.173108,15.929760718191552,0.1088021512532949
10.175488,15.959095277111372,0.108614486479448
10.177891999999998,15.991874959016586,0.108419578294447
10.180279999999998,16.020790209055825,0.1082415277511025
10.182659999999998,16.0549203654014,0.1080340917511654
10.185064,16.09226332730689,0.1078078133122621
10.187452,16.13002559809296,0.1075742684671129
10.189832,16.16806740813275,0.1073354214202367
10.192227999999998,16.203455491120064,0.1071037019975868
10.194615999999998,16.2379124085476,0.1068752116505749
10.196996,16.271857469295938,0.10664303286543
10.199392,16.299796227805025,0.1064410260644036
10.20178,16.323730784821283,0.1062591255461489
10.204159999999998,16.349807212210813,0.1060655130072209
10.20656,16.37122781180145,0.1058894990855054
10.208944,16.39278818101895,0.1057117378965644
10.211324,16.41611833355739,0.1055135286669519
10.21372,16.448527824268133,0.1052712220181852
10.216104,16.482799646098435,0.1050237425940214
10.2185,16.514557510503124,0.1047820136262132
10.220896,16.54845724528109,0.1045283500672019
10.22328,16.57984302263344,0.1042793833492431
10.22566,16.608575072933316,0.1040377221183343
10.228051999999998,16.643592964726164,0.1037630142818567
10.23044,16.67567759021281,0.1035017854626091
10.232836,16.70403755346035,0.1032537750942326
10.235228,16.722107473722083,0.1030565399125021
10.237616,16.737244127677624,0.1028715683477284
10.239996,16.756524752752856,0.1026657700151623
10.242399999999998,16.783162154507693,0.1024222855912845
10.244787999999998,16.806726520329484,0.1021947347039372
10.247168,16.83015111652441,0.1019694650905065
10.249572,16.855857352719475,0.1017297529886527
10.25196,16.877559387421698,0.1015085935228239
10.25434,16.897538860631236,0.1012905070352408
10.256744,16.913653901974794,0.1010879194130514
10.259128,16.92762707294508,0.1008976431741815
10.261508,16.937735812049386,0.100722767517165
10.263912,16.943188723354805,0.1005627975131345
10.2663,16.945568598727164,0.1004175195401558
10.268679999999998,16.94701730853975,0.1002753095449605
10.271076,16.949117644658394,0.1001360812519871
10.273459999999998,16.952568455217392,0.0999856600897224
10.27584,16.95280646021648,0.0998526328273436
10.278236,16.955046565961972,0.0997113717013468
10.280624,16.95728667170748,0.0995700404717874
10.283003999999998,16.970887755625423,0.0993749204985957
10.2854,16.98555977473001,0.0991739558577015
10.287788,17.00037156346145,0.0989710747430264
10.290168,17.00531261808767,0.0988077275145893
10.292571999999998,17.012395543087166,0.0986336393277037
10.29496,17.023901978460078,0.0984347042911769
10.297339999999998,17.033546082713436,0.0982415011265262
10.299744,17.043329956593652,0.0980454132511183
10.302132,17.05912013271311,0.0978252671799327
10.304512,17.073979143272798,0.0976076497581281
10.306916,17.08683605308607,0.0973981509101667
10.309304,17.09969296289934,0.0971888810489186
10.311684,17.116414304578583,0.0969663872351408
10.31408,17.13606891256402,0.0967335901516801
10.316468,17.156794455736097,0.0964958782347356
10.318848,17.17500604148256,0.0962606754521913
10.321243999999998,17.19200692241552,0.0960341901475254
10.323631999999998,17.207425011482652,0.0958073624317391
10.326012,17.22191193499,0.0955839137216779
10.328408,17.235327923310702,0.0953656075038043
10.330796,17.24660204125814,0.0951591512519276
10.33318,17.26202013032526,0.0949348627690175
10.335584,17.274225413832475,0.0947268197887906
10.337967999999998,17.293507934765575,0.09449037108998
10.340348,17.31171952051204,0.0942600572502068
10.342752,17.329279479952444,0.0940277751326267
10.34514,17.34963293607218,0.0937886678189242
10.34752,17.373199197751834,0.0935347455662149
10.349916,17.39196986200574,0.0932966807207592
10.352303999999998,17.4150242670062,0.0930387490417087
10.354684,17.44157101682029,0.0927605407628313
10.357079999999998,17.46732637070146,0.0924822649142282
10.359468,17.490567767157025,0.092206462992497
10.361847999999998,17.509944731746614,0.0919431027124597
10.364244,17.526528199656866,0.0916869630584726
10.366632,17.546184703500174,0.0914188218417973
10.369012,17.564258415477646,0.0911500051959905
10.371415999999998,17.584334228201534,0.0908740250653745
10.373803999999998,17.60254770980587,0.0906030331425256
10.376184,17.625044932156754,0.0903126600411853
10.37858,17.643957261895384,0.0900291599115963
10.380968,17.65993632532782,0.0897560989328006
10.383352,17.6776851720812,0.0894651705969198
10.385748,17.691709356595464,0.0891839667127332
10.388136,17.69907561256442,0.0889202418686471
10.39052,17.705091394093017,0.0886671325360844
10.392916,17.707382513382505,0.0884228954543216
10.395304,17.70767153192557,0.0881860833024935
10.3977,17.709683111961333,0.0879478286692443
10.400096,17.7092732823701,0.0877247548484041
10.402484,17.70937530945806,0.0875079849655471
10.404863999999998,17.71175897654616,0.0872794438844174
10.40726,17.71600497475382,0.0870470700347536
10.409648,17.72546587926781,0.0867945214117899
10.412028,17.735997718968438,0.0865372233952574
10.414432,17.74238558754937,0.0862958039925221
10.41682,17.752777657623135,0.0860415568075762
10.419196,17.76689438993602,0.0857803526934929
10.421604,17.782221827062397,0.0855122793338073
10.423988,17.794476228255725,0.0852557738247792
10.426367999999998,17.808453190941748,0.0849980285114076
10.428764,17.823221549560685,0.0847414508981729
10.431152,17.83729106004532,0.0844981680302037
10.433532,17.85108103127624,0.0842601283887793
10.435935999999998,17.872879405492824,0.0839965796988711
10.438324,17.89374661414963,0.083735159747654
10.440703999999998,17.916615923552857,0.0834675819309193
10.443108,17.93641219702302,0.083210655513799
10.445496,17.950341937880797,0.0829696810080397
10.447876,17.96054701649946,0.082735794197938
10.45028,17.966096267319237,0.0825112556165159
10.452664,17.972297144445065,0.0822907004681336
10.455044,17.9772873167574,0.0820774469465209
10.457444,17.97613141720362,0.0818853724883173
10.459832,17.978839949515823,0.081684025417508
10.462216,17.98769455369413,0.081462180884334
10.464607999999998,17.992405186752737,0.0812552307192336
10.466995999999998,17.988735329773345,0.0810639137119314
10.469376,17.981992436860896,0.0808826221842528
10.47178,17.9783225798815,0.0806913080309418
10.474168,17.97092806066299,0.0805064625738724
10.476544,17.957667008832093,0.0803365071615836
10.47894,17.942962934762217,0.0801621047334463
10.481328,17.928258860692345,0.0799874906014414
10.483707999999998,17.910341981062558,0.079825432613331
10.486112,17.891633705499853,0.0796621739979211
10.488496,17.872134034004226,0.0794978024878983
10.49088,17.857849268814938,0.0793150094908817
10.493275999999998,17.849850345118618,0.0791095054911384
10.49566,17.84799749328841,0.0788841152325356
10.49804,17.850288612577895,0.0786447118437355
10.500436,17.847784134441625,0.0784158091987493
10.502824,17.840484058879607,0.0781968431433567
10.50522,17.835325853690865,0.0779692919578937
10.507611999999998,17.820157144770032,0.0777697200247034
10.509999999999998,17.79576932805004,0.0775990949317475
10.51238,17.770031036889687,0.0774372047360703
10.514776,17.748808803901365,0.077269536551376
10.51716,17.73131123315216,0.0770953905211132
10.51954,17.71088039609675,0.0769283307797019
10.521935999999998,17.69710748758666,0.0767478729636584
10.524323999999998,17.687618319823116,0.0765506317633691
10.52672,17.678780778365635,0.0763566943938356
10.529124,17.668220675415455,0.0761628645462718
10.531512,17.655798241345725,0.0759716569383187
10.533891999999998,17.645377908022404,0.0757747242110186
10.536295999999998,17.63309524357953,0.0755803630163804
10.538683999999998,17.614154650591345,0.0753984477166279
10.541064,17.58948729461763,0.0752272571086469
10.54346,17.558953406031524,0.0750693291826896
10.545844,17.524694855206306,0.074916491683395
10.548224,17.48512885027614,0.0747660187470911
10.550628,17.447472398293772,0.0745951629566986
10.553016,17.40464826183332,0.074423979123486
10.555395999999998,17.36694648388058,0.0742202321732366
10.5578,17.333575668502636,0.0739826129724209
10.560187999999998,17.29759834790046,0.0737284478961762
10.562568,17.255941486140998,0.0734670888469827
10.564963999999998,17.204880420985134,0.0732035728341166
10.567352,17.142133512432736,0.0729477105025961
10.569731999999998,17.067980299737517,0.072694551201882
10.572136,16.988799172191072,0.0724367220288334
10.574523999999998,16.899654762740784,0.072186318864838
10.576904,16.804411503252627,0.0719348365444205
10.579299999999998,16.70041566667413,0.0716834303270429
