Time,Force,Position
7.597052000000005,7.357950518857108,0.1547439982107404
7.613780000000005,7.740007588382972,0.1546724679487287
7.616168000000002,7.78204032891051,0.1546160304982483
7.618552000000001,7.823887973840814,0.1544986984586664
7.620948000000006,7.863548422427468,0.1543562043968196
7.623336000000002,7.899531430603251,0.1542292331093843
7.625716000000004,7.938262609487996,0.1540000305205481
7.628112000000002,7.971965873521514,0.1538217149382666
7.630500000000005,7.997056330091546,0.1537322274378495
7.632899999999999,8.020191907743408,0.1536373319082361
7.635296000000004,8.043886563902708,0.1535151535003263
7.637684,8.069770312263529,0.1533198934832083
7.640064000000002,8.0927680161464,0.1531299289407266
7.64246,8.107152912565788,0.1530276490354627
7.644848000000003,8.1183722252535,0.152946655034196
7.647232000000002,8.130010846821794,0.1528457343075968
7.649628,8.141649468390089,0.1527441124258105
7.652016000000003,8.14956342771927,0.1526920030904044
7.654396000000005,8.16562555966098,0.152510784384787
7.656792000000003,8.181687691602688,0.152329235049456
7.659180000000006,8.198960528357896,0.1521221960299061
7.6615600000000015,8.216093595486242,0.1519227486654276
7.663956000000006,8.229362230748615,0.151778408446754
7.666344000000002,8.240488995637712,0.1516719498169084
7.66874,8.251336221273089,0.1515800391529715
7.675904000000003,8.268792257767661,0.1515342173596425
7.6783,8.274564346723565,0.1515210001642574
7.680692,8.281686910119827,0.1514761431573579
7.685468,8.287458999075731,0.1514633465622766
7.687856000000004,8.291975057247763,0.1514122306530295
7.690240000000003,8.301706021726126,0.1512762085346524
7.692636,8.31157675583135,0.1511330070777689
7.695024000000004,8.321075402884237,0.1509759933599773
7.697404000000006,8.32969010620559,0.1507948485383429
7.699804,8.336070391355046,0.1506214109600962
7.702192000000004,8.33192831609322,0.1505887816860744
7.709360000000004,8.306979525007918,0.1505627504484688
7.711740000000006,8.296785821536469,0.1505562415900245
7.714136000000003,8.288222131759099,0.1505042094229997
7.716524,8.27542192306342,0.1504901767739969
7.7213040000000035,8.243258020783234,0.1504806493721475
7.723692,8.22920178130368,0.1504283851337318
7.726072000000002,8.216496016264484,0.1503434018691164
7.728467999999999,8.20299885529237,0.1502627861321859
7.730856000000003,8.188290989506758,0.1502069699259386
7.733240000000002,8.180520591520175,0.1500495702353479
7.735635999999999,8.17205134539929,0.1499255939194269
7.738024000000003,8.15994998483791,0.1498757893230162
7.74042,8.148640020209447,0.1498212464329168
7.742816000000005,8.134908645953988,0.1498158574164813
7.745204000000001,8.126624495430338,0.1497482668422558
7.747588,8.120062906399385,0.1496646203617363
7.749984000000005,8.122161346660157,0.1494657805599682
7.752372000000001,8.129567241025878,0.1492135278121838
7.754756,8.14256012875027,0.1488941861493307
7.757152000000005,8.161419549087052,0.1484983439101075
7.759540000000001,8.185214336476447,0.1480374893936137
7.761924,8.211243542037735,0.1475752551242407
7.764320000000005,8.242719971330835,0.1470555004886798
7.766708000000001,8.279224315475162,0.1464982655768564
7.7690880000000035,8.321036113724437,0.145890024443823
7.771488000000005,8.36443070383955,0.1452764930577783
7.773876000000001,8.40354155320811,0.1447324896500075
7.776256000000004,8.445166360002283,0.1441743477438453
7.778652000000001,8.488513728289153,0.1436018432687185
7.781040000000004,8.525854794336771,0.1431151921595087
7.783424000000004,8.560402363705055,0.1426609543096736
7.785824000000005,8.600025069752812,0.1421358571550194
7.7882120000000015,8.644862682106899,0.1415405334262805
7.790596000000001,8.691562625580545,0.1409245087378664
7.792992000000005,8.734909993867415,0.1403712723970796
7.7953800000000015,8.78105085883362,0.139791761031811
7.797760000000004,8.826260558240046,0.1392319329997748
7.800156000000001,8.86746605615364,0.1387282594289438
7.802544000000005,8.907880158134313,0.1382342442094037
7.804928000000004,8.941589109741436,0.1378503797077176
7.807324000000001,8.971154090228865,0.1375265381377297
7.809716000000002,8.994992307730762,0.1372665209060799
7.812092,9.015617719672749,0.1370540319206541
7.814488000000004,9.037314066801368,0.1368295600515935
7.816872000000004,9.05915018355685,0.1366020842887717
7.819268000000001,9.082848631431888,0.1363592597144699
7.821671999999999,9.11013197191918,0.136085514875236
7.824060000000003,9.136064837966114,0.1358406953717124
7.826440000000005,9.167584697371716,0.1355468962168326
7.828832000000006,9.205622715695773,0.135193394222602
7.831220000000002,9.24938749700535,0.1347849907458336
7.833600000000004,9.292732969434349,0.1343981612125656
7.8359960000000015,9.33030445704958,0.1341029990513427
7.838384000000005,9.37038990209042,0.133796284093032
7.840764,9.41112697343732,0.1334931659815191
7.843168000000006,9.45051357034386,0.133218087619961
7.845552000000005,9.488409923183182,0.132976440349068
7.847932,9.528960003074976,0.1327164911708203
7.850336000000006,9.570673565952028,0.1324709067199303
7.852724000000002,9.616531099948771,0.1321760675138467
7.855104000000004,9.664623052117411,0.1318794260898191
7.857500000000002,9.72030409839114,0.1315149446824406
7.859888000000005,9.78106028134434,0.1310976507289825
7.862272000000004,9.838603658737622,0.1307245373439963
7.864668000000002,9.897869597623602,0.1303479253800615
7.867052000000001,9.952200169456969,0.1300227459303782
7.869436,10.007881215730697,0.1296772763759978
7.871832000000005,10.06477296681792,0.1293166768139201
7.874220000000001,10.11421539342692,0.1290214312377168
7.876600000000003,10.158722452983309,0.1287767999124337
7.879004000000002,10.196292044740666,0.128601411046391
7.881392000000005,10.234420715005465,0.1284080937187376
7.883772,10.27417939896434,0.1281815088825029
7.886176000000006,10.308910168071993,0.12797962382543
7.888564000000002,10.343548389381024,0.1277557402996717
7.890944000000005,10.379956394010994,0.1274968157327943
7.893340000000002,10.414921376401992,0.127237924494205
7.895728000000005,10.44872287580773,0.126970290515793
7.898108000000001,10.47749646036224,0.1267259993651553
7.900504000000005,10.503895857117998,0.1264894126374126
7.902892000000001,10.530342475701996,0.1262267732975282
7.905272000000004,10.550410704994407,0.1260102225923361
7.907672000000005,10.562750070554875,0.1258597668584885
7.910056000000004,10.57550874499592,0.1256948634978279
7.912440000000004,10.58081809495874,0.1255855940055683
7.914844000000002,10.58654675380214,0.1254612206835672
7.9172280000000015,10.590692620779702,0.1253415055443122
7.919608000000004,10.588320328838815,0.1252697219744159
7.922008000000005,10.588089907271208,0.1251744052994151
7.924392000000003,10.5897690386514,0.1250380748185659
7.926776000000004,10.59386957965859,0.1248681315239789
7.929172000000001,10.597178724732858,0.1247011633149491
7.931560000000005,10.599044847568154,0.1245332467686975
7.933956000000002,10.603564697455925,0.1243499245077507
7.936351999999999,10.607013612157054,0.1241785783155577
7.938740000000003,10.604316454992077,0.1240668809231057
7.941120000000005,10.602830002640594,0.1239389362112047
7.943516000000002,10.598689823236638,0.1238259799027365
7.945904000000006,10.594968952713264,0.123698140199017
7.948284000000001,10.590736225510692,0.1235622694213144
7.950680000000005,10.585200245696004,0.1234203372976965
7.953068000000002,10.57808147401548,0.123281463352054
7.955448000000004,10.575805521588952,0.1230773242891828
7.957852000000003,10.571155381363669,0.122878203348161
7.960240000000006,10.56906642039224,0.122641083559305
7.962624000000005,10.56953863867467,0.1223667948939376
7.965020000000003,10.568288295464406,0.1221009248251216
7.967408000000006,10.571601232254416,0.1217791424839774
7.969788000000001,10.570398110872397,0.1214844729557253
7.972192,10.563980083184042,0.1212413422850376
7.974580000000003,10.558121134003128,0.120978785836785
7.976960000000005,10.544952629970847,0.1207625324523887
7.979356000000003,10.531784125938566,0.1205457982569948
7.981744000000006,10.514518872614838,0.120341372160018
7.984124000000001,10.495670827425272,0.1201396348867865
7.986524000000003,10.477521630370005,0.1199126639732501
7.988908000000002,10.452854274396293,0.1197306485976079
7.991292000000001,10.431120184728773,0.1195233741617913
7.993688000000006,10.414601001367586,0.1192635405090063
7.996076000000002,10.395008782073344,0.1190318497240208
7.998456000000004,10.372203757219188,0.1188332144004172
8.000852000000002,10.35060943717853,0.1186174384707803
8.003240000000005,10.323800210831536,0.1184525469019566
8.005624000000005,10.29512865336499,0.1182997911954048
8.008020000000002,10.26259266403247,0.1181770550809829
8.010408000000005,10.227263178020612,0.1180719497167989
8.012804000000003,10.19035090014292,0.117968623214126
8.0152,10.150365586332171,0.1178931764269791
8.017588000000003,10.115455409200896,0.1177697739584277
8.019968000000006,10.084037576883256,0.1176016352221018
8.022364000000003,10.0494069390057,0.1174665830791558
8.024752,10.02036329448682,0.1172924538388078
8.027132000000002,9.992670124408294,0.1170956178134163
8.029528000000006,9.970703717315295,0.1168546605668899
8.031916000000002,9.949948015035798,0.1165963677671089
8.034300000000002,9.933987910182053,0.1163010070504313
8.036704,9.92282340275406,0.1159676888141487
8.039092000000004,9.906863297900314,0.1156699517981051
8.041476000000003,9.883266877113238,0.1154556376966895
8.043872,9.865676758565414,0.1151880617492036
8.046260000000004,9.846875935204087,0.1149355701668281
8.048644000000003,9.832870709268516,0.1146465692589966
8.05104,9.820588044825644,0.1143489186298175
8.053428000000004,9.81310097780852,0.1140143343462594
8.055812000000003,9.812411608963563,0.1136255276177236
8.058208,9.811302931238032,0.1132509749385285
8.060596000000004,9.81177704537833,0.1128733181835107
8.062980000000003,9.81318232507841,0.11248810434477
8.065376,9.811654338472296,0.1121267311932333
8.067768000000001,9.810917747799095,0.1117644965786419
8.070148000000003,9.81460466749931,0.1113524809419831
8.072544,9.81750019126661,0.1109416947001876
8.074932000000004,9.81904524059355,0.1105524662559035
8.077316000000003,9.816586088427655,0.1101975964560316
8.079712,9.813056001075122,0.1098531038845445
8.082100000000004,9.803659381110196,0.1095534470688465
8.084484000000003,9.795613235585634,0.1092326011630373
8.08688,9.790360586740404,0.1088931003081376
8.089268000000004,9.790742153082087,0.1084884700324784
8.091652000000003,9.788050683490718,0.108112093745489
8.094048,9.791505285765458,0.1076809464773975
8.096436000000004,9.789884751360722,0.1072942405756917
8.098816,9.793618892889182,0.1068553672929468
8.101212000000004,9.79828419997742,0.1064131098490054
8.1036,9.80145926299844,0.1059980734543977
8.105984,9.805565491579236,0.1055768335737487
8.108380000000004,9.810323346466092,0.1051601524308988
8.110768,9.815732827659003,0.1047472248410772
8.113152,9.821514395904254,0.1043480163917792
8.115552000000001,9.824734784895648,0.1039840519576649
8.117940000000004,9.82590585131238,0.1036659518287201
8.12032,9.82651783922167,0.1033673639750206
8.122716000000004,9.82671051825038,0.1030833082211664
8.125104,9.825552722838731,0.1028183791153302
8.127484000000003,9.824767014479423,0.1025675164294159
8.12988,9.828217825038426,0.1023044002298916
8.132268000000003,9.831900953022904,0.1020616635339531
8.134648000000006,9.838889434365914,0.1018136402025509
8.137052000000004,9.843968362761125,0.1016061883764458
8.13944,9.85049031339531,0.1014035094710245
8.141820000000003,9.855522019962278,0.1012267276162354
8.144224000000001,9.862276288021938,0.1010445676163682
8.146608,9.863675880148412,0.1009127329522157
8.148992,9.85585636447572,0.1008552479993235
8.151396000000005,9.846174517683467,0.1008076854734399
8.153784000000002,9.83942593719741,0.1007400032660441
8.156164000000004,9.831606421524716,0.1006820868273268
8.158568000000002,9.828862042531494,0.1005848649658957
8.160952000000002,9.829470238725047,0.1004536954007785
8.163336000000001,9.832639614172455,0.1002883539983945
8.165732000000006,9.834365967380894,0.1001178979987179
8.168116000000005,9.84037606133588,0.0999093316112486
8.170496,9.84559475935795,0.0997002249142205
8.172900000000006,9.854677889245991,0.0994666659356931
8.175288000000002,9.86296962320112,0.0992325020135432
8.177668000000004,9.869678565290409,0.0989985180357196
8.180064000000002,9.873594010700362,0.0987789555796659
8.182456000000002,9.871270836445593,0.0985831440898306
8.184836000000004,9.865502539205425,0.0983961346612145
8.187232000000002,9.854147248606589,0.0982375502386802
8.189620000000005,9.834923324648944,0.0981322944294189
8.192,9.812766134385106,0.0980464366610603
8.194400000000002,9.790469174494405,0.0979653679891829
8.196784000000001,9.776180617589372,0.0978245487295266
8.199168,9.76217159993806,0.0976732698140312
8.201564000000005,9.742947675980416,0.0975664365477262
8.225456000000001,9.422757188372662,0.0975458435530272
8.227836000000003,9.39519810034739,0.0975315325594197
8.230236000000005,9.36922180418795,0.0975179118685571
8.232624000000001,9.346970170267626,0.0974852453942345
8.235004000000004,9.33258716970611,0.0973992965636843
8.237400000000001,9.329565147317036,0.0972208372528555
8.239788000000004,9.329616160861017,0.0970176927588941
8.242172000000004,9.331669275151413,0.0967997382096327
8.244568000000001,9.33372238944181,0.0965824901424861
8.246956000000004,9.334285259664991,0.0963895264919235
8.249336,9.337921165821223,0.0961718600334299
8.251744000000002,9.342208698283516,0.095959090931446
8.254132000000006,9.349848805932584,0.0957114517088289
8.256512,9.363355446194042,0.0954234831762873
8.258912000000002,9.366851582723418,0.0952082952810111
8.261300000000006,9.373141215932128,0.0949788370166045
8.26368,9.392374619179115,0.0946571656889827
8.266080000000002,9.406393116119771,0.0943804406763668
8.268468000000006,9.41426554119432,0.0941526098631421
8.270848,9.420555174403027,0.093925415810539
8.273248000000002,9.429917843544796,0.0936749416010827
8.275632000000002,9.43699887268642,0.0934489498752161
8.278016000000001,9.451017369627078,0.0931775097606313
8.280412000000005,9.46717773694101,0.0928885220591563
8.282800000000002,9.481196233881668,0.0926204313816028
8.285184000000001,9.488369810821911,0.0924240716974658
8.287580000000005,9.495263848508436,0.0922378429822561
8.289972000000006,9.507093253247572,0.0920220226516696
8.292352000000001,9.517572183546347,0.0918256279186864
8.294748000000006,9.532986480897735,0.0915988483154507
8.297136000000002,9.549192174182044,0.091373377926782
8.299516000000004,9.570333234518964,0.0911188250573591
8.301912000000002,9.593848482654638,0.0908681984283131
8.304300000000005,9.620017457842785,0.0906116897164462
8.306684000000004,9.65484646232266,0.0903076969623231
8.309088000000003,9.68632289161576,0.0900348909485147
8.311476000000006,9.711513479415888,0.0898134731369995
8.313860000000005,9.736424527962294,0.08960010998881
8.316256000000003,9.768273044307728,0.0893448566849271
8.318644000000006,9.797280842145586,0.0891315145025727
8.321028000000005,9.823867230356448,0.0889463407249264
8.323436000000001,9.85417828080642,0.0887457978225254
8.325824000000004,9.877132554576784,0.088602785382244
8.328204,9.89645471390665,0.0885005775332479
8.330608000000005,9.917219895475492,0.0884055878940331
8.332996000000001,9.943060213723813,0.0882770120509572
8.335376000000004,9.97262519421124,0.0881341888265745
8.337772000000001,9.996975268392337,0.0880309445356342
8.340156,10.02332744331985,0.0879159843239343
8.34254,10.04581518638139,0.0878214992643551
8.344936000000004,10.069234095002706,0.087724046297554
8.347324,10.092513233997163,0.087633185650632
8.349704000000003,10.111927941125648,0.0875618335344927
8.3521,10.132553353067632,0.0874791634118257
8.354488000000003,10.154249700196251,0.0873898174842899
8.356868000000006,10.181300723258069,0.0872607911111261
8.359264000000003,10.208351746319885,0.0871317647379623
8.361656000000004,10.241548841247807,0.0869643063174144
8.364036000000006,10.2695310298694,0.0868331368438817
8.366432000000003,10.305009764797465,0.0866480541886783
8.36882,10.342770139725662,0.0864435627288415
8.371204000000006,10.378947722788029,0.0862385579374544
8.373600000000003,10.42020044252986,0.0860035341701911
8.375988,10.464526198204751,0.0857494524578579
8.378368000000002,10.508340097200447,0.0854875691805308
8.380764000000006,10.55215399619614,0.0852283326713472
8.383152000000003,10.59224323295272,0.0849840590527821
8.385536000000002,10.6323324697093,0.084739785434217
8.387932,10.67349264165252,0.0844902216048775
8.390320000000003,10.721170972514184,0.0842203974747944
8.392700000000005,10.768989073002713,0.0839484633703948
8.3951,10.81066110162513,0.0837132853999532
8.397488000000003,10.855406166180604,0.0834608815281069
8.399872000000002,10.898009360362796,0.083226038436138
8.402268,10.936608353052158,0.0830135295096373
8.404656000000003,10.978140612047714,0.0827917103935113
8.407040000000002,11.021535202162829,0.0825645527675579
8.409436,11.063207230785244,0.082341895277073
8.411824000000003,11.109023230527352,0.0820959778798636
8.414208000000002,11.14589966172402,0.0818942025595794
8.416604,11.180913761801126,0.0816992950950199
8.418992000000003,11.217929962624652,0.081496452199226
8.421376000000002,11.254434306768978,0.0812862930141945
8.423772,11.292568664607384,0.081055313903275
8.426160000000003,11.32497625946026,0.0808446568060959
8.428544000000002,11.3545903576338,0.080643142732443
8.43094,11.384344225434203,0.0804379957934654
8.433328000000003,11.414517402115187,0.0802211786861248
8.435712000000002,11.441105686183915,0.0800121275022071
8.438108,11.458382314654862,0.0798301108018313
8.4405,11.475658943125808,0.0796491790371894
8.442880000000002,11.498709556410528,0.0794240746193393
8.445280000000004,11.520968773762329,0.07919880843919
8.447668,11.539643098501877,0.0789800704268731
8.450052,11.557945336189087,0.0787481966824995
8.452452000000001,11.56837894051749,0.0785494585485114
8.454840000000004,11.577649061860638,0.0783367157366685
8.45722,11.582263355404896,0.0781363801704688
8.459624000000005,11.58371206521748,0.0779307468572325
8.462008000000004,11.589444515776616,0.0776996315673467
8.464388,11.595456505589476,0.0774609971012544
8.466792000000005,11.595601962789944,0.0772445988988773
8.469180000000001,11.59095182256466,0.077043867692932
8.471560000000004,11.579364214540348,0.076871032038931
8.473956000000001,11.570198016143031,0.076677099000299
8.476344000000005,11.557866234014044,0.0764762128010188
8.478724,11.54530213445958,0.0762577829607882
8.481120000000004,11.528221976733082,0.0760460154392527
8.483508,11.505694595274774,0.0758427423778237
8.485888000000003,11.482283270084936,0.0756145936098086
