Time,Force,Position
9.427184,6.575129665843884,0.1533125844665972
9.429568,6.873125046030404,0.1531926231959872
9.431952,7.153760729236708,0.1528936389574491
9.434348,7.409819708410045,0.1526333883516138
9.436732,7.646516889856749,0.1522495085541033
9.439116,7.859149223949685,0.1518984249062997
9.441508,8.049811359233885,0.1515723472839173
9.443896,8.213613254627115,0.151429190472462
9.446292,8.360890279085549,0.151328965938179
9.448688,8.4977885044753,0.1511646640847392
9.451076,8.62202629079623,0.1509763792178687
9.453456,8.735093882115558,0.1507389078376361
9.455852,8.829914041007397,0.1505601560224312
9.458236,8.914075861576833,0.1503450733287531
9.46062,8.984646077517668,0.1501279741964055
9.463016,9.046280516628796,0.1498526499296593
9.4654,9.100841510029774,0.1494956066595631
9.467796,9.150423706265634,0.1490562418838512
9.470191999999996,9.19493266167989,0.1486071206023624
9.47258,9.234134162989196,0.148210640726234
9.47496,9.276920556910754,0.1477840659323024
9.477363999999998,9.32389624792238,0.1473625208013572
9.479751999999998,9.369427020837165,0.1470329567220187
9.482136,9.417936386028517,0.1467256171645159
9.484531999999998,9.469284573869578,0.1464483234097806
9.486919999999998,9.526032763614204,0.1461528045509529
9.489296,9.583153040411169,0.1458715236019005
9.491699999999998,9.641903330902212,0.1455481882340312
9.494087999999998,9.697023402810627,0.145202715677535
9.496468,9.747023012069198,0.144872640602814
9.498872,9.796325669051337,0.1444900113563655
9.501255999999998,9.839809015249326,0.144148797363726
9.50364,9.88413097920848,0.1437758228215121
9.50604,9.921795014622322,0.1434765278654115
9.508428,9.95824834522267,0.1431995239473267
9.510807999999995,9.994933993248493,0.1429447990124413
9.513203999999998,10.032503585005852,0.1427128675452338
9.515591999999998,10.0752408612413,0.142449543464196
9.517972,10.114905101543693,0.1422260932860496
9.520367999999998,10.15806168665972,0.1419520599320316
9.522755999999998,10.198844083976994,0.1416917635693667
9.525136,10.236600667189457,0.1414427432163978
9.527532,10.27575494667052,0.1411421381932367
9.52992,10.313745743166326,0.1408333276925535
9.5323,10.353646092609932,0.1404845806091787
9.534703999999998,10.392103419814564,0.1401409974262814
9.537091999999998,10.430840286272918,0.1397879085982967
9.539472,10.47344158459724,0.1393995764340279
9.541875999999998,10.52027940183988,0.138989096172135
9.544259999999998,10.564835579082375,0.1386102058868618
9.546644,10.608553138563712,0.1382653680376038
9.549039999999998,10.656274899537886,0.1378819482995248
9.551427999999998,10.705207365325556,0.1374852443908346
9.553812,10.756980549620804,0.1370397529485972
9.556207999999998,10.809732121304071,0.1365628153023186
9.558595999999998,10.861320210002088,0.1360808875332807
9.560976,10.914817851647904,0.1355628111822193
9.563371999999998,10.963008039188768,0.1350866900605118
9.565763999999998,11.012408931543131,0.1345956837892309
9.568144,11.060878658337716,0.1341177241276984
9.570548,11.110139781065218,0.1336411718732544
9.572931999999998,11.157398803046304,0.1331854900035732
9.575312,11.20586852984089,0.1327181932268784
9.577716,11.25783060144911,0.1322110587339681
9.580104,11.307138946004857,0.1317266040677108
9.582483999999996,11.357146138694905,0.131224475281881
9.584884,11.410505906571723,0.1306882286494003
9.587267999999998,11.460700090716877,0.1301645831827984
9.589648,11.507449151876632,0.1296617881984676
9.592056,11.560344284902502,0.129104440697621
9.59444,11.612727561249176,0.1285426008110422
9.596819999999996,11.662317340916513,0.1280050468817114
9.59922,11.70948571095685,0.1275016115934772
9.601603999999998,11.754232671370191,0.1270311076529577
9.603987999999998,11.79963125808959,0.1265675922537278
9.606383999999998,11.842515887383374,0.126116030723976
9.608771999999998,11.880325379997686,0.1257116210856851
9.611152,11.916412311119302,0.1253161512818187
9.613547999999998,11.95091645037508,0.1249259511629707
9.615935999999998,11.983977567391886,0.1245376602402536
9.618316,12.016806366983207,0.1241368997706638
9.62072,12.052056576201537,0.1237084633677596
9.623107999999998,12.084093979859944,0.1233132065178979
9.625488,12.108634837211882,0.122990436110069
9.627892,12.131313363444264,0.1226809037948667
9.63028,12.145703947437257,0.1224438322858045
9.632659999999998,12.156230099564278,0.1222357993958023
9.635056,12.17155184911705,0.1219965113166669
9.637444,12.186082202736904,0.1217588527451399
9.639823999999996,12.19409439743831,0.1215620513737199
9.642219999999998,12.201315196206796,0.1213671158284205
9.644607999999998,12.209746699788784,0.1211590455876779
9.646988,12.219016821131932,0.1209265096628862
9.649392,12.230848121728938,0.1206628352548664
9.65178,12.237092428967271,0.1204324538782657
9.654159999999996,12.245850693631226,0.1201944541512343
9.656555999999998,12.256611059041592,0.1199415548634806
9.658943999999998,12.268023050758018,0.119691523262364
9.661324,12.276362006541389,0.1194657412200823
9.663719999999998,12.283490257511255,0.119254217947143
9.666107999999998,12.287265933294352,0.1190759257780057
9.668499999999998,12.28903950833103,0.1189130025771557
9.6709,12.29002168743479,0.1187512494162685
9.673284,12.29864018247188,0.1185194540239689
9.675663999999998,12.305116807135692,0.1183063626063578
9.678068,12.317599734038756,0.1180479764988997
9.680456,12.331944992061374,0.1177798665420803
9.682835999999998,12.338281847098328,0.1175714795752495
9.68524,12.348483134001253,0.1173387052703636
9.687624,12.362548852770155,0.117081386034003
9.690003999999998,12.378476902658608,0.1168146581894954
9.692404,12.392402851800648,0.1165633849657189
9.694792,12.407120196875605,0.1163124660857781
9.697171999999998,12.42369987307012,0.1160537630918991
9.699568,12.447077247436804,0.1157529405815881
9.701956,12.472736261803629,0.115432985789212
9.704335999999998,12.497743649864386,0.1151110084016696
9.706736,12.527034778671704,0.1147558785045762
9.709124,12.561261274531631,0.1143688112661868
9.711507999999998,12.59469637445864,0.1139829514455443
9.713904,12.625198208079455,0.1136137196543098
9.716292,12.656770976886907,0.1132370460767592
9.718671999999998,12.6906253856945,0.1128398870177309
9.721072,12.720335823382396,0.1124765110782233
9.723456,12.754050462563129,0.1120868846473527
9.725839999999998,12.78804464099758,0.1116911237154728
9.728236,12.818034617939194,0.1113225121785671
9.730624,12.853099731560285,0.1109190798045092
9.733007999999998,12.886162744434955,0.1105315316735825
9.735404,12.920156922869408,0.110142551994698
9.737787999999998,12.95256830943802,0.1097568646183607
9.740171999999998,12.98311736488708,0.1093802577844095
9.742568,13.011664319589718,0.1090181338708606
9.744955999999998,13.03234264093355,0.1087040096275298
9.747339999999998,13.046363033732074,0.1084256083846018
9.749736,13.051583627612017,0.108198521541514
9.752123999999998,13.057735387051736,0.1079675696828439
9.75452,13.05895177943884,0.1077667163367364
9.756916,13.062729351079804,0.1075396792029411
9.759304,13.065575757160993,0.1073165783433029
9.761684,13.078060579921925,0.1070221235372317
9.764084,13.090545402682856,0.1067287062884829
9.766472,13.101167894324233,0.1064442569656396
9.768852,13.11006782447291,0.1061642935937375
9.771248,13.115662401263055,0.1058900560378023
9.773636,13.121536517306923,0.1056092483503946
9.776015999999998,13.131834143724202,0.1052939979192694
9.778412,13.136684546409674,0.1049992639071589
9.7808,13.142233797229446,0.1046869659080877
9.783179999999998,13.144337925063825,0.1043840217329857
9.785584,13.145510887338428,0.1040851536512586
9.787972,13.150036424799806,0.1037600334750465
9.790352,13.152048004835567,0.1034388569071375
9.792748,13.156341224871465,0.1030976866116494
9.795136,13.16398702009414,0.1027298062884565
9.797515999999998,13.17577678643651,0.1023339313125035
9.799912,13.184912825726403,0.1019463472053626
9.8023,13.19446817389688,0.1015476562145516
9.804683999999998,13.198948385387885,0.1011808598320157
9.80708,13.205710236879025,0.1007953655959532
9.809463999999998,13.205394850944275,0.1004523166366264
9.81186,13.203496673143691,0.1001097067283052
9.814256,13.201458725716249,0.099770555315657
9.816644,13.204775454221991,0.0993956525238831
9.819024,13.2099545138473,0.0990135635051501
9.82142,13.213411011979908,0.0986357065131113
9.823808,13.21528471824668,0.0982589139875922
9.826187999999998,13.222885187498989,0.0978574575506653
9.828592,13.226201916004731,0.0974844773765156
9.83098,13.225654212644509,0.0971279055980694
9.83336,13.224315113351365,0.0967708240351579
9.835756,13.218692273311667,0.0964417676130254
9.838144,13.21693386513794,0.0960952350449992
9.840528,13.215827083270277,0.0957520558973702
9.842924,13.212298891775612,0.0954299358324154
9.845312,13.212635132146922,0.0950915547255721
9.847692,13.215904638824428,0.0947397973950305
9.850088,13.217963440688433,0.0943982168619061
9.852476,13.2189513073658,0.094063156369033
9.854855999999998,13.22487454109578,0.0937065423711564
9.857256,13.233451501878235,0.0933440848774587
9.859644,13.245753124899805,0.0929702419474824
9.86204,13.261779410160484,0.0925850064247672
9.864435999999998,13.270169379487834,0.0922503515805811
9.866823999999998,13.28028191030788,0.0919142067986313
9.869204,13.290626758553405,0.091592889499553
9.871603999999998,13.301203924224406,0.0912869956645578
9.873991999999998,13.312572485828326,0.0909834472957288
9.876372,13.32859687523114,0.0906654047606755
9.878767999999996,13.35085988429868,0.0903335650082706
9.881156,13.378290577844307,0.089996052846235
9.883536,13.412658739188965,0.0896291785107548
9.885935999999996,13.44660759165304,0.0892744478447351
9.88832,13.484560645609951,0.0889031307245815
9.890704,13.528380232179254,0.0885098712846059
9.8931,13.57005794837528,0.0881319037370453
9.895488,13.6122475212505,0.0877637186597657
9.897868,13.659092921924614,0.087383486788262
9.900264,13.71045438077076,0.0869946502985013
9.902652,13.758323494803268,0.0866348626055226
9.905036,13.806984004768696,0.086277887810534
9.907432,13.852152169920489,0.0859473758948606
9.90982,13.89746010469914,0.0856166373343603
9.912215999999995,13.950776442463455,0.0852533686065841
9.914611999999998,14.004744406533831,0.0848971886559715
9.916999999999998,14.060994010604343,0.0845280274773608
9.919383999999996,14.118174780234638,0.0841584636522532
9.921779999999998,14.176007176170986,0.0837967466678969
9.924167999999998,14.234630968040255,0.0834387488831679
9.926551999999996,14.293114990282662,0.0830861393888625
9.928947999999998,14.350667846965292,0.0827390953221593
9.931335999999998,14.407801394767342,0.0824055667382369
9.933719999999996,14.470010079248864,0.0820550010057316
9.936115999999998,14.531147828543745,0.0817128735999292
9.938499999999998,14.592937204144688,0.0813789204972074
9.940884,14.656449141238324,0.081046185298025
9.943279999999998,14.71996107833196,0.0807156455307234
9.945667999999998,14.783193476171874,0.0803940260843435
9.948048,14.84749680919843,0.0800704607602284
9.950443999999996,14.911380833344404,0.0797576839464024
9.952831999999995,14.974333691930598,0.0794486980272343
9.955212,15.045434723129322,0.0791122071579254
9.957608,15.118258315820745,0.0787788048833891
9.959999999999996,15.19066259963158,0.0784579208768876
9.96238,15.262275487509504,0.0781385570213899
9.964779999999998,15.33640233281304,0.0778228780569681
9.967167999999996,15.410668947743437,0.0775065723735486
9.969548,15.480931361181002,0.0772050921572208
9.971944,15.5522647098052,0.0769018855060601
9.974332,15.626810863989318,0.0765877361935618
9.976727999999998,15.700565622240516,0.0762749330226859
9.979124,15.775531085305214,0.0759584130104717
9.981512,15.84407093725008,0.0756714849532073
9.983891999999996,15.9144731203145,0.0753839120869212
9.986287999999998,15.980079705953171,0.0751091702490614
9.988675999999998,16.042892794912508,0.074840730805554
9.991056,16.10556611424498,0.0745766296561042
9.993455999999998,16.16772757689826,0.0743077279664159
9.995843999999998,16.22788693880512,0.0740468658801112
9.998224,16.28474094735345,0.0737841856803131
10.000619999999998,16.34559915739461,0.0735121669383217
10.003007999999998,16.393653367024353,0.0732746960663464
10.005388,16.43383894329529,0.0730580608046593
10.007783999999996,16.471370792513753,0.0728442807307307
10.010172,16.507691936918715,0.0726383228513147
10.012556,16.538426087965007,0.0724419360706888
10.014951999999996,16.567018368638024,0.0722544422040161
10.017336,16.5952385622587,0.0720577879180314
10.019735999999998,16.617731992893848,0.0718728232614648
10.022132,16.63128585498355,0.0717113654675201
10.02452,16.641906450767056,0.0715570068327242
10.026899999999998,16.64251654281848,0.0714296588617301
10.029296,16.641823382257787,0.0712941630977438
10.031688,16.634192753898066,0.0711761491681924
10.034067999999998,16.623908398485863,0.0710592408737171
10.036464,16.61362404307367,0.070942291699562
10.038852,16.601896665422498,0.0708199987341208
10.041231999999995,16.586165086278495,0.0707081334940634
10.043632,16.565777679335593,0.0706025280817288
10.04602,16.550465409072167,0.0704824376211005
10.048399999999996,16.525142635076655,0.0703881476821297
10.0508,16.50382406257398,0.070283149400166
10.053188,16.48557852600436,0.070168806078154
10.055571999999998,16.464679262382262,0.0700553449521147
10.057968,16.44205743726747,0.0699415734789674
10.060356,16.421297943272233,0.0698251818236917
10.062739999999998,16.39974705334408,0.0697071802729869
10.065136,16.38071012084154,0.069590723106553
10.067528,16.36018294427178,0.0694858397233445
10.069907999999998,16.343659969194857,0.0693704955296845
10.072308,16.326066058931293,0.0692587863539859
10.074696,16.3135472853472,0.0691326806213581
10.07708,16.302751073255806,0.0690066591709671
10.079476,16.29302579635105,0.0688764076162175
10.081864,16.28502308093899,0.0687461521167964
10.084248,16.27795153108671,0.068614763619425
10.086644,16.269669276420927,0.0684898479726842
10.089032,16.261107482501426,0.0683700361889944
10.091416,16.253337084514843,0.0682514120681036
10.093812,16.238349679475515,0.0681543252188987
10.096204,16.22564391443632,0.0680463718901955
10.098584,16.212006983837348,0.0679393520096105
10.10098,16.198509822865237,0.0678295331702816
10.103372,16.183522417825905,0.0677313868099557
10.105752,16.16774361685366,0.0676314180786914
10.108152,16.14903154957521,0.0675374384581274
10.11054,16.12924854711013,0.0674470657487657
10.11292,16.103599012032653,0.0673687217540005
10.11532,16.0806504258359,0.0672715418408996
10.117708,16.05891254445264,0.0671676159815089
10.120088,16.03824559825602,0.0670595891323599
10.122488,16.018649587246042,0.0669476237392297
10.124876,15.9989138066092,0.0668382518289386
10.12726,15.982251061905416,0.0667200335374079
10.129663999999998,15.967730187574908,0.0665941590140296
10.132051999999998,15.94841371581865,0.0664760546185551
10.134432,15.92788653924889,0.0663641778935757
10.136836,15.910432398612189,0.0662435600375274
10.139219999999998,15.891907322788846,0.0661263660736382
10.141603999999996,15.878317614018114,0.0659982066949576
10.143999999999998,15.869243963419414,0.0658674088118779
10.146387999999998,15.862684270246332,0.0657388411365668
10.148768,15.855705268192668,0.0656184288283266
10.151163999999998,15.85193907169892,0.0654865530994917
10.153551999999998,15.849336358190426,0.0653661035986934
10.155932,15.84766481024171,0.0652444453931656
10.158327999999996,15.847855593412552,0.0651206334485001
10.160716,15.853912909195785,0.064985151177157
10.163096,15.860342312031356,0.0648596256678669
10.165499999999998,15.865421240426564,0.0647435004755071
10.167887999999998,15.871291564754694,0.0646291325584975
10.170268,15.873809313896048,0.0645286163878544
10.172663999999996,15.873254027104348,0.0644363485184993
10.175051999999996,15.870417100312508,0.0643542393516059
10.177432,15.865578072774248,0.0642767934660759
10.179831999999998,15.864184168221389,0.0642007718341758
10.182216,15.866654695534496,0.0641182010203162
10.184596,15.867914518034109,0.064042121412347
10.186999999999998,15.87490110351925,0.0639576690931134
10.189387999999996,15.879745818631116,0.0638806113523406
10.191768,15.881797037063643,0.0638064576525766
10.194164,15.883056859563254,0.0637305925699504
10.196548,15.88045225019689,0.063660986061485
10.198928,15.880641137509866,0.0635887626942141
10.201332,15.88124933370342,0.0635084170695625
10.20372,15.88264892582989,0.0634298487739216
10.2061,15.882837813142862,0.0633575805601567
10.208496,15.87874295970928,0.0632997789393665
10.21088,15.877581372581895,0.0632366764856867
10.213259999999998,15.877071411760564,0.0631781274153569
10.215664,15.87935494761857,0.0631170523468579
10.218052,15.882709418663216,0.0630522942506856
10.220432,15.889928321573834,0.0629812322730869
10.222835999999996,15.89886978597715,0.0629111252049187
10.225224,15.910185438179218,0.0628465923227064
10.227604,15.923642960754565,0.0627750675541646
10.230003999999996,15.934027447396856,0.0627116317484651
10.232391999999995,15.9462742651587,0.0626466044051519
10.234772,15.956518982174131,0.0625862165016899
10.237171999999996,15.966623929562704,0.0625284513498517
10.239556,15.980313769563526,0.0624701229950746
10.24194,15.994795005497268,0.0624137531668054
10.244336,16.016073939603178,0.062346184595526
10.246724,16.034140068149174,0.0622893875710494
10.249108,16.053137362254947,0.0622319493342292
10.251504,16.07320559154736,0.0621711839305871
10.253892,16.096346856772826,0.0621027815074729
10.256276,16.126705129051043,0.062015751733709
10.258672,16.15506130058284,0.0619333964524541
10.26106,16.18248630655486,0.0618518994500708
10.26344,16.207909211780468,0.0617750113741866
10.265836,16.240129815178243,0.0616878954797584
10.268224,16.273561123389513,0.0615952001148961
10.270608,16.3102052371607,0.0614929119413081
10.273004,16.350201926118665,0.0613787674008196
10.275392,16.390990011009546,0.0612671035791134
10.277772,16.43471136220662,0.0611507896481981
10.280168,16.47778108709764,0.0610306073828608
10.282556,16.522992682361934,0.0609044860731523
10.284952,16.571137543932426,0.060773804535052
10.287351999999998,16.618491009569997,0.0606419939265737
10.289735999999998,16.66691541039421,0.0605074524433047
10.292116,16.7174816815917,0.0603677112034532
10.29452,16.77018982316246,0.06022188944016
10.296907999999998,16.822618425479504,0.0600815313588575
10.299288,16.875838423729466,0.0599435991924692
10.301683999999998,16.931060522725847,0.059802857505845
10.304071999999998,16.98521168653559,0.0596668064893357
10.306452,17.041504720718606,0.0595252250854585
10.308847999999998,17.10394382676774,0.0593708782383035
10.311235999999996,17.167593637630365,0.0592116757645318
10.313616,17.223374815134186,0.059065569914132
10.316012,17.28302042450398,0.058916034787731
10.318403999999996,17.33987253719444,0.0587693482154814
10.320784,17.38950764283215,0.0586395330545441
10.323183999999998,17.437559956604023,0.0585066484689188
10.325568,17.486031579256476,0.0583672034379512
10.327952,17.535434367468707,0.0582279458785956
10.330348,17.5837662204943,0.0580924939640504
10.332736,17.634239943893178,0.0579519840271066
10.33512,17.681920170612713,0.057813472910839
10.337515999999995,17.72866923177247,0.057676050122503
10.339904,17.769411990692976,0.0575495969224612
10.342284,17.80736125293415,0.057425002695519
10.344683999999996,17.848802859988957,0.0572876983202004
10.347068,17.889592840737713,0.0571466507111584
10.349452,17.928520490366907,0.0570074644516004
10.351848,17.96065044182393,0.0568766570399797
10.354236,17.989986896601618,0.0567477897299855
10.356631999999998,18.01252565320714,0.056627461200088
10.359028,18.030920438692966,0.0565160870326786
10.361415999999998,18.05266779936557,0.0563940628082494
10.363799999999998,18.066546526679364,0.0562830168823438
10.366196,18.082427354739576,0.0561692152145348
10.368583999999998,18.09993819649387,0.0560432217238379
10.370964,18.115726476755466,0.0559159562162831
10.373359999999998,18.128581490710864,0.0557925190226849
10.375747999999998,18.13850323836007,0.0556728026628686
10.378131999999995,18.146981963770298,0.0555471914694706
