Time,Force,Position
11.695096,3.327414526200364,0.1671012888851831
11.697492,3.5506976151842227,0.1661088070047121
11.69988,3.774821217787113,0.1648735058349784
11.70226,3.9941057928517454,0.1635420177375788
11.70466,4.203663195153754,0.1623041626949344
11.707048,4.3972548050284095,0.1613814488290963
11.709428,4.572598982475574,0.1607574425704047
11.711823999999998,4.73435155529414,0.1602278704812205
11.714216,4.88581787684264,0.1597194184361247
11.716596,5.028161430106327,0.1592523012263399
11.718996,5.154537295084793,0.1589966475902642
11.721384,5.276119458495377,0.1587259616004842
11.723767999999998,5.393559546644136,0.1584111453053099
11.726164,5.503784523598015,0.1581621871137598
11.728552,5.614802792342684,0.1577771720677977
11.730947999999998,5.723960625825666,0.1572955400050561
11.733344,5.825159174009092,0.156819695334371
11.735732,5.920400537639379,0.1563076575099754
11.738115999999998,6.010615882276306,0.155745616912963
11.740512,6.096317064599072,0.1551309795949555
11.742904,6.178807337219792,0.1544622450028226
11.74528,6.256968543123582,0.153810815787562
11.747675999999998,6.328332050855205,0.1533178552276094
11.75006,6.397646236012168,0.1529244373293188
11.752439999999998,6.47035832232628,0.1525498169228057
11.754844,6.54684039684988,0.1522001620764057
11.757228,6.628303164396466,0.1518339744316472
11.759607999999998,6.715165933846617,0.151443556743099
11.762012,6.803052416655164,0.1510868371842254
11.764399999999998,6.890007733903933,0.1507588777169356
11.766775999999998,6.988743338205725,0.1501902715364224
11.769172,7.08273056691001,0.14967281878258
11.771556,7.175601534457282,0.1491177766062084
11.773936,7.263212269727847,0.148590305852779
11.776352,7.34248973678865,0.1481613039844908
11.778736,7.422093964931416,0.1477022076017067
11.781116,7.502257271581621,0.1472238391445672
11.78352,7.579766851179354,0.1467843688326544
11.785908,7.660209697083279,0.1463242461465696
11.788288,7.742794413360484,0.1458393906053464
11.790679999999998,7.826450064824327,0.1453427534315686
11.793067999999998,7.912806665168887,0.1447854113077621
11.795448,7.995997681781774,0.1442453510539999
11.797844,8.078863833170567,0.1436594062872204
11.800232,8.156190213028934,0.143113601228514
11.802628,8.228675669491174,0.1425655485995936
11.805024,8.299533008117205,0.1419655011556098
11.807408,8.364338718533611,0.1413950460362668
11.809788,8.42509490148681,0.140822442260397
11.81218,8.481102708842501,0.1402780450294175
11.814568,8.526355838361432,0.1398510206192942
11.816964,8.571935728962327,0.1393819393138443
11.81936,8.613558639898631,0.1389385025273491
11.821744,8.656579247103538,0.1384341313444256
11.824124,8.696434270576773,0.1379448044212584
11.826527999999998,8.726605551399885,0.1375463865241398
11.828916,8.751656369573151,0.1371576923486308
11.831295999999998,8.772657660283212,0.1367597427714612
11.833692,8.77880752386506,0.1364852016981391
11.836075999999998,8.77569295367737,0.1362743340876719
11.838456,8.76866862565333,0.1360471540700082
11.84086,8.759317331658783,0.1357968544801031
11.843248,8.752574438746334,0.1354636681538258
11.845628,8.740152004676597,0.1351588487008026
11.848019999999998,8.727404705382767,0.1348050810864364
11.850407999999998,8.715775563103819,0.134401717916315
11.852804,8.702843168212754,0.133992095447832
11.855199999999998,8.685302167351043,0.1335925404482505
11.857584,8.664875122011379,0.1331911340133385
11.859963999999998,8.639979240327927,0.1327931400427893
11.862372,8.614339184539798,0.1323617652082454
11.864755999999998,8.578875616474688,0.1320106764258601
11.867136,8.539315299118128,0.1316785128379276
11.86954,8.494447527656622,0.1313861677369989
11.871928,8.450837682836854,0.131034526158578
11.874308,8.406715981337888,0.1306709420362889
11.876712,8.356587977599675,0.130380440981071
11.879096,8.3063202042346,0.1300933813088091
11.881476,8.26019640198922,0.1297474165222622
11.88388,8.214491908624417,0.1293793355482867
11.886268,8.16664554488634,0.1290393472143314
11.888647999999998,8.109859612602815,0.1288098992250022
11.891044,8.04813831326668,0.1286361638021788
11.893432,7.984694452437847,0.1284734148873889
11.895812,7.916035685302683,0.128382163576852
11.898216,7.8433727166746845,0.1283386808974077
11.900604,7.767776481740491,0.1283261338147805
11.902983999999998,7.694414664978192,0.128310586170256
11.90538,7.624358201574423,0.1282704405946726
11.907768,7.561331753768304,0.1281688117279651
11.910144,7.502402055253632,0.1280396860313899
11.912551999999998,7.451293768269526,0.1278500262034068
11.914936,7.402559669084174,0.1276492643896658
11.917316,7.355920218443855,0.1274520033319958
11.919719999999998,7.311235646721711,0.1272613323444414
11.922107999999998,7.268133866865401,0.1270627390325355
11.924484,7.233552346673957,0.1267687731776765
11.926884,7.199622452788569,0.1264767888232404
11.929272,7.168578603381135,0.1261856675771787
11.931651999999998,7.140141259197933,0.1259101670801412
11.934048,7.116452290612239,0.1256168546166985
11.936431999999998,7.104449165423082,0.1252162239237253
11.938812,7.093190214338601,0.1248504890852512
11.941208,7.090124761837022,0.1244425054003464
11.943596,7.093250707171926,0.1240179219554047
11.945975999999998,7.102707819970175,0.1235709758120458
11.948384,7.1147714379926565,0.1231400745880785
11.950767999999998,7.132654366799285,0.122677701435657
11.953148,7.147417037844616,0.1222989121736235
11.955552,7.159199220755508,0.1219980703403046
11.95794,7.16879231146488,0.121772450487566
11.96032,7.179409115532646,0.1215713145777864
11.962716,7.192911964078365,0.1213748437063611
11.965103999999998,7.209440626728899,0.1211755430518757
11.967488,7.223780197177909,0.1210504172072875
11.969884,7.240446733597434,0.1209578736487826
11.972267999999998,7.25999931449491,0.1208725512388056
11.974647999999998,7.282018630989756,0.1208125730002837
11.977047999999998,7.306132596029637,0.1207603516619825
11.979432,7.334762619241549,0.1206694362067238
11.981815999999998,7.362973333572881,0.1206009347392405
11.984212,7.388622868650354,0.1205873145206243
11.986596,7.421721728206054,0.1205022991581882
11.988992,7.454401278881174,0.1204406333420692
11.991395999999998,7.485358268063596,0.1203893897134094
11.993783999999998,7.517106653178938,0.1203381796622358
11.996163999999998,7.552160391652811,0.1202723199328837
11.998563999999998,7.58386155493991,0.1202601056782587
12.000948,7.621289481212539,0.1201886006673954
12.003327999999998,7.662162530470559,0.1200945639838258
12.005731999999998,7.706760241967696,0.1199658963272453
12.008119999999998,7.753080514957529,0.1198284678734043
12.010504,7.796839608693504,0.1197395569421566
12.012899999999998,7.845534069482091,0.1195998057639373
12.015284,7.894368299897537,0.1194505617170285
12.017668,7.945763709566843,0.1192541399508635
12.020064,7.991152816996898,0.1191284722862618
12.022448,8.041105204427225,0.1189347645332229
12.024831999999998,8.089986656670916,0.1187563822409486
12.027224,8.136586468914471,0.1186154649734407
12.029611999999998,8.183977677090942,0.1184738911722082
12.031996,8.232579590080912,0.1183133717229002
12.034399999999998,8.279179402324464,0.1181802285588265
12.036788,8.322985717888683,0.1180715204161809
12.039167999999998,8.371587630878652,0.1179192322187121
12.041567999999998,8.419258378308843,0.1177775178772067
12.043956,8.466417269059837,0.1176277943178572
12.04634,8.515718030184109,0.1174510375395798
12.048735999999998,8.5652983305621,0.1172667305755731
12.05112,8.617439810193948,0.1170421503134606
12.0535,8.666927562773322,0.1168353918645915
12.0559,8.71390135792708,0.116640761831171
12.058288,8.766649137894612,0.1163650667249248
12.060664,8.811388514876477,0.1161729569714966
12.063059999999998,8.859340697418258,0.1159428293630159
12.065444,8.904499383280701,0.1157372088708889
12.06782,8.952870874703061,0.115492058156822
12.070216,8.994444667953253,0.1153108749002698
12.072603999999998,9.03993011489766,0.1150675666360873
12.074984,9.084112309229951,0.1148157210197786
12.077376,9.12606008539035,0.1145635325353468
12.079759999999998,9.165214364871414,0.1143331896275632
12.08214,9.201063290993943,0.1141154813167182
12.084556,9.239613165997191,0.1138531144522937
12.086939999999998,9.272855586895492,0.1136223987944604
12.08932,9.3009303233157,0.1134154147666496
12.091715999999998,9.327562037496936,0.1132072765607604
12.0941,9.351959333506278,0.1129985114646492
12.09648,9.372771736903362,0.1128123102090796
12.098876,9.38892831250156,0.1126604721679567
12.101264,9.404852570674276,0.1124887036584068
12.10364,9.420404741794655,0.1123025074760828
12.106036,9.42915921474287,0.1121727360100086
12.108424,9.438100679146183,0.1120060963262777
12.1108,9.44173468944455,0.1118673651214417
12.113196,9.443785907877077,0.111730833079767
12.115583999999998,9.448957384070903,0.1115353121216825
12.117964,9.454408399518451,0.1113287402476772
12.120375999999998,9.450128450487638,0.1112009958049946
12.122763999999998,9.4474785151509,0.1110407302476859
12.125144,9.44231462238855,0.1108882024059345
12.127539999999998,9.434776541827445,0.1107381959706788
12.129924,9.426586834960284,0.1105836529439749
12.132304,9.414672465854007,0.110453924263875
12.1347,9.403829031934372,0.1103125360340941
12.137083999999998,9.39619840357465,0.1101362930014484
12.139463999999998,9.38498288260267,0.1099791445974465
12.14188,9.371113634578224,0.1098348010155938
12.144263999999998,9.356592760247716,0.1096857318209368
12.146643999999998,9.342770734051507,0.1095097497081375
12.14906,9.32801754229552,0.1093394759423278
12.151443999999998,9.312333184979758,0.1091748604052517
12.153823999999998,9.298139071731214,0.1089824925626271
12.156235999999998,9.286738455162004,0.1087714470359196
12.158624,9.27920227045877,0.1085304684467382
12.161,9.270874689822616,0.1082896196220331
12.163396,9.253839858066494,0.1081444787822873
12.165779999999998,9.239226435937368,0.1079657732879219
12.16816,9.230479546420632,0.1077399086773832
12.170556,9.221453117650178,0.107524826405248
12.172944,9.217873912611534,0.10727957315905
12.175323999999998,9.221232175371917,0.1069779974305154
12.17772,9.22566137331894,0.1066654816880896
12.180103999999998,9.2299508016391,0.1063579049522517
12.182484,9.23545093477276,0.1060348377670525
12.1849,9.243604794958896,0.1057015562796279
12.187283999999998,9.255343547757285,0.1053505006647654
12.189664,9.273600459474125,0.1049611241984875
12.19208,9.294790637497156,0.1045514002584356
12.194463999999998,9.313000327385748,0.1041940706040342
12.196844,9.333072348393898,0.1038265677367354
12.19926,9.35486693089474,0.1034540310007102
12.201643999999998,9.37931524044806,0.103071967125935
12.204024,9.400410974814603,0.1027271734106752
12.20642,9.42215833548721,0.102389307373278
12.208804,9.446279883958567,0.1020507340405516
12.211184,9.477478669855817,0.1016536763297161
12.213584,9.506256046126063,0.1012892775486121
12.215967999999998,9.535033422396316,0.1009271770008229
12.218348,9.563531259412844,0.1005771377308048
12.220764,9.5893753693769,0.1002401429514698
12.223147999999998,9.61079596896754,0.099951667295028
12.225528,9.631657490050737,0.0996839501968734
12.227923999999998,9.65037714076066,0.0994354054095003
12.230308,9.666954921097304,0.0992079456941616
12.232688,9.678597334381337,0.0990166240019776
12.235091999999998,9.689308582105587,0.0988309273362977
12.237476,9.698017729083428,0.0986618997175434
12.239856,9.705376401620908,0.0985135807977646
12.242252,9.716227418972018,0.098325696315366
12.24464,9.727869832256047,0.0981390338252029
12.24702,9.73937247591322,0.0979580219626866
12.249436,9.750595580316674,0.0977880462972276
12.251824,9.766614282145875,0.0975898625469548
12.254207999999998,9.7817018184153,0.097397376137229
12.2566,9.796929124311582,0.0972006424091464
12.258988,9.80880385502109,0.0970381173738036
12.261368,9.828267679835688,0.0968357973040648
12.263768,9.848103591702625,0.096649174937517
12.266156,9.866868568382916,0.0964722300694205
12.268536,9.884934696928912,0.0963192907620406
12.27094,9.906213631034818,0.0961396677672108
12.273324,9.929494665887146,0.0959470518032862
12.275704,9.95929385965792,0.0957236237969777
12.278099999999998,9.992398406787224,0.0954975519016509
12.280484,10.030019012088562,0.0952546782682896
12.28288,10.072947071494854,0.0949977763854618
12.285276,10.115735361274282,0.0947479279169403
12.287664,10.156381780680434,0.094516063848067
12.290043999999998,10.19940238788534,0.0942879280829172
12.292447999999998,10.242934851769446,0.0940715971843072
12.294835999999998,10.290191977892666,0.0938412898134233
12.297211999999998,10.3382404999488,0.0936136479310764
12.29962,10.387359957191576,0.0933808724311076
12.302003999999998,10.43834174555391,0.093142122553976
12.304384,10.495190066528632,0.092874923154289
12.306788,10.554040488249774,0.0925959756551736
12.309176,10.604882506985245,0.0923687897069432
12.311556,10.655864295347572,0.092138473993589
12.313956,10.71178145076252,0.0918825772096833
12.316344,10.775055382857072,0.0915773810355307
12.318724,10.838049775697902,0.0912849373887818
12.321127999999998,10.901695794844793,0.0909997598805475
12.323512,10.964550418058767,0.0907174260629556
12.325892,11.026613645339824,0.0904364032636238
12.328295999999998,11.088676872620876,0.090158015807637
12.330683999999998,11.146224041729896,0.0898964193826081
12.333063999999998,11.20363144121206,0.0896408711955009
12.335468,11.263972107000416,0.0893707371172606
12.337851999999998,11.3216590457363,0.0891091841809924
12.340236,11.377763192606343,0.0888477968569909
12.342631999999998,11.427069641304222,0.0886198915675011
12.345016,11.477586794815595,0.0883831309042693
12.347395999999998,11.52517068202078,0.0881628383375661
12.349799999999998,11.570892238106405,0.0879508338522385
12.352187999999998,11.605811894527026,0.0877924746121581
12.354568,11.641942255761146,0.0876242108364493
12.356964,11.680354256995404,0.0874371781105352
12.359352,11.719045797483382,0.0872434444246988
12.361731999999998,11.753872906105387,0.0870684776756885
12.364135999999998,11.780691611741725,0.0869364250400621
12.366523999999998,11.80751031737806,0.0868056395820459
12.368904,11.830883900029,0.0866796579838784
12.371299999999998,11.854397252306809,0.0865509966204231
12.373688,11.878050374211472,0.0864191707728693
12.376067999999998,11.900120704250302,0.0862864020431845
12.378472,11.923122199848908,0.0861513094181245
12.380859999999998,11.94426136432796,0.0860224730787226
12.383235999999998,11.96554029843387,0.0858904756087741
12.385632,11.989612729219116,0.0857506696210881
12.388016,12.014616325564138,0.085608650845473
12.390396,12.047488555267968,0.0854329612381224
12.392791999999998,12.077427518665605,0.0852710295395825
12.395176,12.1080181083693,0.0851144101825733
12.397555999999998,12.141262425125468,0.0849541938637965
12.399952,12.18409793673314,0.0847588307476695
12.402335999999998,12.224791577967537,0.0845778103380004
12.404716,12.268558255134986,0.0843828049807819
12.407108,12.312185162675576,0.0841929464935998
12.409496,12.355672300589308,0.0840074221384361
12.411876,12.401021769622592,0.0838164754021012
12.414288,12.441435871603264,0.083646707267361
12.416676,12.486645571009692,0.0834608857296707
12.419052,12.52999293929656,0.083281936149292
12.421447999999998,12.573340307583427,0.0831041784431632
12.423836,12.617339302176358,0.0829320654662303
12.426215999999998,12.658405030463088,0.0827717934704984
12.428632,12.704545895429291,0.0825891438181735
12.431019999999998,12.751757695582135,0.0824019195561012
12.4334,12.794173898309229,0.0822318529276054
12.435804,12.834727769916762,0.0820675328529808
12.438192,12.86862371297899,0.0819256605458296
12.440572,12.902519656041216,0.0817843469032352
12.442975999999998,12.934972576864467,0.0816377348651769
12.445364,12.963049209142548,0.081497010093486
12.447743999999998,12.985818387315677,0.0813650451536532
12.45014,13.01194014067558,0.0812128348010192
12.452528,13.034988858102428,0.081075843451974
12.454908,13.05817734515614,0.0809361539559629
12.457304,13.08350770258313,0.0807855883542515
12.459687999999998,13.110048764823617,0.0806264088650537
12.462068,13.137800531877602,0.0804574875747589
12.464464,13.161548097438752,0.0803055426581459
12.466848,13.18515589337304,0.0801575814591574
12.469231999999998,13.206109962254857,0.0800133740349604
12.471623999999998,13.226412404830617,0.0798651062342933
12.474011999999998,13.24885671777965,0.0797055995948835
12.476392,13.263572166996738,0.0795714322249061
12.478787999999998,13.275494119534487,0.0794444735788746
12.481176,13.288626776885742,0.079308450205498
12.483552,13.30376153498341,0.0791649996083234
12.485948,13.31875652345422,0.0790247644943297
12.488331999999998,13.329747310432197,0.0788999509996134
12.490716,13.341669262969948,0.0787732151547519
12.493111999999998,13.35573308588098,0.0786355691594412
12.495496,13.369517369538288,0.0785049366550971
12.49788,13.377295350956349,0.078397857996475
12.500291999999998,13.382140066068212,0.0783005657811426
12.502679999999998,13.381909644500606,0.078224160644525
12.50506,13.374881524760829,0.0781695377072422
12.507476,13.363988973155076,0.0781268271016483
12.509864,13.359102723788578,0.0780612193681116
12.512256,13.35463578330266,0.0779854466311736
12.514651999999998,13.349517216510684,0.0779050430659794
12.517039999999998,13.345329815278484,0.0778224890328786
12.519419999999998,13.341002644419424,0.0777434010939055
12.521824,13.336815243187226,0.0776610354960315
12.524212,13.335421338634362,0.0775723458385032
12.526592,13.33295649889486,0.0774890327739232
12.528996,13.332353990274914,0.0774017678582587
12.531384,13.327887049788997,0.0773259933688918
12.53376,13.325841518930076,0.0772327509165436
12.53616,13.330221599190985,0.0771073680580014
12.538543999999998,13.333670513892114,0.0769841696803201
12.540928,13.335629184526026,0.0768764963477541
12.54332,13.334514819226882,0.0767812578512064
12.545704,13.33433161948752,0.0766838468020281
12.548099999999998,13.339642865308209,0.0765565919169775
12.550503999999998,13.346164815942398,0.0764201406411685
12.552888,13.357761903256057,0.0762634093528329
12.555267999999998,13.375505062435828,0.0760819422180644
12.557671999999998,13.38444842269701,0.0759286035344216
12.560059999999998,13.390458516652,0.0757843028212988
12.562435999999998,13.39726000653991,0.0756416780496054
12.564832,13.40126799974848,0.0755046489628466
12.567215999999998,13.402901805158296,0.0753633442231506
12.5696,13.40160234426192,0.0752311188632782
12.572,13.400582422619262,0.0750922363636765
12.574388,13.398910874670548,0.0749483043061449
12.576768,13.390860937430244,0.0748140255066682
12.579171999999998,13.38402170500344,0.0746708559770226
12.58156,13.37331804071066,0.0745383640648029
12.583939999999998,13.3526038726858,0.0744410982850998
12.586332,13.329235977608462,0.0743457370607957
12.58872,13.303493894732371,0.0742455914460409
12.5911,13.282454861483416,0.0741139752625639
12.593504,13.26183513711504,0.0739718807312093
12.595888,13.235069340880552,0.0738539960225494
12.598268,13.212866824646335,0.0737081780042546
12.600663999999998,13.18707941579987,0.0735657501866196
12.603048,13.153283603967738,0.0734507637492229
12.605427999999998,13.12270059769552,0.0733197409474039
12.607836,13.093188526609945,0.0731829655048066
12.610224,13.055016426232635,0.0730686371201553
12.612604,13.018986196228608,0.0729432627965623
12.614999999999998,12.98295596622458,0.0728170776003563
12.617387999999998,12.949067606593829,0.0726799527676023
12.619768,12.910523419164186,0.0725509422937442
12.622163999999998,12.87318993654804,0.0724124977268669
12.624552,12.84051228173079,0.0722645617681064
12.626948,12.805972295793978,0.0721194301745607
12.629352,12.771292540230313,0.0719770166462021
12.631735999999998,12.746623288398728,0.0717992794413086
12.634116,12.72395613731356,0.0716138961003108
12.63652,12.702220151788172,0.0714260115134695
12.638908,12.678202526262645,0.0712515903727763
12.641288,12.65311396555048,0.0710817201874841
12.643691999999998,12.628025404838311,0.0709111009661655
12.64608,12.595580067446535,0.0707724927287106
12.648459999999998,12.56671962266702,0.0706300671061667
