Time,Force,Position
10.61854,1.7145386076589726,0.0951966146219714
10.620919999999998,1.7721726369930038,0.0947133701015566
10.62332,1.8288755007672568,0.094349619879322
10.625708,1.885438594914649,0.0940620547862354
10.628087999999998,1.942234006487519,0.0939364646450776
10.630484,2.0044766417921984,0.0937283972475189
10.632876,2.0690934648956327,0.09352757277471
10.635255999999998,2.1397165902383173,0.0931879312129528
10.637652,2.208617154088305,0.0929287650315223
10.64004,2.273141429393122,0.0927585440221928
10.642419999999998,2.3364096739140656,0.0924516424603255
10.64482,2.394138146904583,0.0921344915666079
10.647204,2.448840805790289,0.0918202490993648
10.649587999999998,2.5077346576239306,0.0913138346013566
10.651984,2.568118753524792,0.0907375420590539
10.654372,2.6277114534927355,0.0902091927258564
10.656751999999996,2.6925190597670103,0.0895499977047311
10.659147999999998,2.7633329682805368,0.0887960916220279
10.661535999999998,2.838523165339234,0.088013307246267
10.663919999999996,2.916227319823546,0.0872293466288062
10.666315999999998,2.997144279867773,0.0863632847081057
10.668703999999998,3.075407512859527,0.0855233427652984
10.671083999999995,3.1474321261865525,0.0847443772755452
10.673499999999995,3.210704162423235,0.0840156840392624
10.675887999999995,3.270298758249047,0.0832547938636769
10.678283999999998,3.3239342736638524,0.0825522083536547
10.68068,3.374543974973845,0.0818309966464319
10.683068,3.416493646992113,0.0812682814971473
10.685447999999996,3.456720757517684,0.0807281804292179
10.742783999999997,3.4409381648296957,0.0805379123406127
10.745179999999998,3.4399144514713,0.0804775786960383
10.747567999999998,3.44019399072502,0.0804518378719134
10.749951999999997,3.442987487404356,0.0804258672161349
10.754735999999998,3.4500175030020013,0.0803960863008836
10.757116,3.4583979930400064,0.0803181344302561
10.759515999999998,3.4655677782645125,0.0802763007578295
10.761903999999998,3.4768815346087125,0.08016378928972
10.764284,3.4891264565126905,0.0800435437508699
10.766683999999998,3.5061669758424205,0.079873555187544
10.769071999999998,3.523998891105069,0.0797157017671909
10.771455999999995,3.546207094912889,0.0795464680272244
10.773851999999998,3.576423701706376,0.0792694071082347
10.776239999999998,3.609433805179198,0.0789708593599852
10.77862,3.647519045331492,0.078603731990439
10.781019999999998,3.6866752206704247,0.0782136748310409
10.783407999999998,3.7227583600763015,0.0778724726942827
10.785804,3.7600522042956777,0.0775102645354623
10.7882,3.793062307768499,0.0772303553380494
10.790588,3.8280745119877375,0.0769259630685132
10.792972,3.86681137844609,0.0766046324142618
10.795368,3.904756848971524,0.0762762605346316
10.797756,3.9448441898702336,0.0759113213277919
10.80014,3.986654092261642,0.0755517686456736
10.802536,4.032607965772743,0.0751325614504592
10.804924,4.078561839283844,0.0747266068428649
10.807308,4.123584547235168,0.0743288648392298
10.809707999999995,4.1635321185070175,0.0740001202449747
10.812095999999997,4.203339920152009,0.0736839731733889
10.814476,4.239934916237085,0.0734267242005448
10.816875999999995,4.26945267489627,0.0732548416416829
10.819263999999997,4.2971081024359,0.0730981746317958
10.821648,4.318896997363138,0.0730019708134951
10.824043999999995,4.342687993036793,0.0728876619931823
10.826431999999995,4.363545722404255,0.0728044857320815
10.828816,4.385474386958354,0.0727066407159129
10.831211999999995,4.411407253005286,0.0725679611902323
10.833599999999995,4.433196147932525,0.0724827076095474
10.83598,4.456195747673263,0.0723712610475159
10.838379999999995,4.479474886667721,0.0722428807044747
10.840767999999995,4.499029363423065,0.072138733151694
10.843148,4.519654775365049,0.0720197057141784
10.845547999999996,4.54135112249367,0.0718888814867483
10.847935999999995,4.559183037756319,0.0717876280681348
10.85032,4.574081686712771,0.0717118472017362
10.852715999999996,4.586838465295947,0.0716657197260957
10.855103999999995,4.6015973446255405,0.0716015871772418
10.857488,4.621710899888326,0.0714686525863422
10.859883999999996,4.641964224777972,0.0713267771995849
10.862271999999995,4.662497088921338,0.0711671016538088
10.864656,4.689595333811395,0.0709152050432408
10.867055999999998,4.717764513888092,0.0706523948521181
10.869443999999998,4.745933693964788,0.0703880136647104
10.871824,4.767305175869316,0.0701743027225101
10.874219999999998,4.7874659529603445,0.0699842480168386
10.876611999999998,4.806555794864735,0.0698088620662349
10.878992,4.820850039343373,0.0696653351157889
10.881391999999998,4.837425923822149,0.0694857791781712
10.883779999999998,4.852139477181368,0.0693148521859178
10.886163999999996,4.866573491286866,0.0691647413035085
10.888559999999998,4.881007505392364,0.0690160929503678
10.890947999999998,4.897723159497999,0.0688349160027152
10.893331999999996,4.910714151364521,0.0686712295613849
10.895727999999998,4.9290598191642365,0.0684458444003872
10.898115999999998,4.949547357337231,0.0681970479505758
10.900499999999996,4.968591873271246,0.0679297067966038
10.9029,4.987636389205263,0.0676657618650443
10.905288,5.001605768459807,0.0674490230790964
10.907667999999996,5.017856787714489,0.0672023328098103
10.910068,5.031034771036115,0.0669828541082509
10.912456,5.045795546223576,0.0667792857282119
10.914839999999998,5.05962515585126,0.0665809252800215
10.917247999999995,5.0773191973449165,0.0663625632056101
10.919635999999995,5.101019541077824,0.0661002317563439
10.92202,5.129003625557286,0.0657954201510922
10.924415999999995,5.160712372275862,0.0654810060649252
10.926803999999995,5.198287651606829,0.0651343185703586
10.929184,5.233441521310796,0.0648267548582145
10.931579999999997,5.267384686201265,0.0645353743289861
10.933968,5.300815994412537,0.0642263099523193
10.936352,5.33317636743717,0.0639298113461684
10.938747999999997,5.365396970834944,0.0636484212174652
10.941136,5.3994799053522735,0.0633624527180524
10.94352,5.427137228749772,0.0631440023521618
10.945915999999997,5.450510811400716,0.0629687568031688
10.948303999999997,5.476258581850415,0.0628101528911754
10.950684,5.498933316367058,0.0626761182408338
10.953083999999995,5.524681086816757,0.0625191615335817
10.955471999999997,5.550149318012735,0.0623819510198772
10.957852,5.579621750701546,0.0622186676928897
10.960251999999995,5.605089981897525,0.0620843340199117
10.962639999999997,5.63256031383992,0.0619399487342208
10.96502,5.658028545035898,0.0618098183743745
10.967419999999995,5.6813549058586,0.061701540712299
10.969807999999995,5.700677065188467,0.0616196447312221
10.972188,5.719487367839137,0.0615198682198052
10.974584,5.733222533810334,0.0614536856938363
10.976972,5.752172606087864,0.0613481948229505
10.979356,5.779550390231643,0.0611771541029404
10.981752,5.8063690958679794,0.0610366565469066
10.98414,5.835981298183652,0.0608911529488591
10.986524,5.861449529379629,0.060776113518556
10.98892,5.889851026881803,0.0606505833185236
10.991311999999995,5.924398596250087,0.0604858652258605
10.993692,5.962019201551427,0.0602998326536248
10.996087999999997,6.000059115733347,0.0600946322102068
10.998476,6.042103231408102,0.0598685941773565
11.00086,6.081865707082717,0.0596689391067796
11.003255999999997,6.119486312384057,0.0594886603674459
11.005644,6.156035982498759,0.0593187726976105
11.008028,6.190583551867042,0.0591590161992546
11.010423999999997,6.217914114182578,0.0590460617462239
11.012811999999997,6.247246777244528,0.0589239635671437
11.015192,6.278581541052897,0.0587929105097571
11.017591999999995,6.310567931167324,0.05867412735412
11.019979999999997,6.337339414975418,0.05859232673487
11.02236,6.369186035462984,0.0584825481069035
11.024767999999998,6.395957519271078,0.0584025237529604
11.027155999999998,6.418165723078898,0.0583715449904693
11.029536,6.443586732446634,0.0583168087072861
11.031935999999998,6.467424949948532,0.0582530296182336
11.034323999999998,6.4961985345030415,0.0581691157448453
11.036703999999997,6.521899083124498,0.0581040969427323
11.039099999999998,6.544666365439758,0.058051265350621
11.041487999999998,6.572648554061351,0.0579680495006041
11.043871999999997,6.602632843429361,0.0578784109470479
11.046267999999998,6.634759003170647,0.0577765087025719
11.048655999999998,6.669166802912071,0.0576543047361999
11.051036,6.706135781907353,0.0575008663135201
11.053435999999998,6.747108962395468,0.0573329827244754
11.055823999999998,6.795299149936333,0.0571296414933627
11.058204,6.8548503156496405,0.0568677428325719
11.060599999999996,6.911607984683613,0.0566115569880323
11.062991999999998,6.965572157038252,0.0563608861287515
11.065372,7.01995563827347,0.0560936239320543
11.067767999999996,7.0804851913748,0.0557982302375542
11.070155999999995,7.138221247796794,0.0555104033786347
11.07254,7.2011722105251215,0.0551966083152288
11.074939999999998,7.262819920641332,0.054863389215111
11.077323999999996,7.321534364451348,0.0545429707692061
11.079708,7.383042304940699,0.0542244388452593
11.082103999999998,7.439754648004299,0.0539179227105196
11.084491999999996,7.497677695881396,0.0536015009117623
