Time,Force,Position
13.015392,2.531474789426595,0.1749868220913676
13.017780000000002,2.6764267437723843,0.1726677823594021
13.020159999999995,2.8130473257662816,0.1705378482396159
13.022563999999996,2.9359818594750937,0.1689292737985487
13.024952,3.0510968775112106,0.1674583743393265
13.027332,3.1538290998743586,0.1664175887125442
13.029731999999996,3.250836455109846,0.1653518929065884
13.03212,3.3439340525089856,0.1643493296632811
13.0345,3.435403532071915,0.1631369350652003
13.036896,3.523382562679078,0.1618927993559679
13.039288,3.606939978770696,0.1607013370408087
13.041668,3.681699491801597,0.1596647033127291
13.044064,3.744727835465587,0.1589122537014303
13.046447999999998,3.7981668801359434,0.1583326205383567
13.072744,4.087966865881689,0.1580084045857042
13.075128,4.125158683013102,0.1578952035302948
13.077508000000002,4.164352600890931,0.157723436158391
13.079899999999997,4.202383035783505,0.157539491171026
13.082284,4.244185354743435,0.1572058982968076
13.084663999999997,4.287617687397445,0.1567995974330737
13.08708,4.328163975573502,0.1564145266848848
13.089464,4.3735530830035545,0.1558530426326874
13.091844000000002,4.419501268941048,0.1552326114371097
13.094248,4.464006432639566,0.1546218390215652
13.096635999999997,4.509302992271001,0.1540103721113513
13.099016,4.554320012648717,0.1534209281103422
13.101419999999996,4.601199364145989,0.1528084531041296
13.103808,4.6459368452699845,0.152267238132079
13.106187999999996,4.689882930461061,0.1517343561093181
13.108584,4.733037619719219,0.1512072314890435
13.110968,4.773678351551763,0.1507130953495352
13.113347999999997,4.812503974092994,0.1502032611897294
13.115752,4.848723091409993,0.1496937096450281
13.118139999999997,4.881404537942983,0.1492034879294003
13.12052,4.912038557759181,0.1486598789143143
13.122923999999998,4.938715597910789,0.1481674904395395
13.125307999999997,4.964788233584581,0.1476245995684927
13.127691999999996,4.987043659220644,0.1471127256233258
13.130083999999997,5.003991630751757,0.1467030699277446
13.132472,5.015911687431641,0.1463664235206622
13.134851999999997,5.027319887432327,0.1460166400588516
13.137248,5.031930389260844,0.1458200948633626
13.139632,5.037891365529721,0.1455734582540002
13.142015999999998,5.041990010679042,0.1453619483070043
13.144411999999996,5.0446456335893854,0.1451551724791508
13.1468,5.04772056538031,0.1449156117045551
13.187427999999995,4.829272712218969,0.1448409801295001
13.194592,4.783330213855082,0.1448059743603643
13.196979999999996,4.772299788480341,0.144676630628596
13.19936,4.7651337949715735,0.1444617392739791
13.201763999999995,4.757967801462806,0.1442464294091894
13.204152,4.749079246461343,0.1440558753449727
13.206531999999996,4.738979986646379,0.1439051675021272
13.208936,4.731674223510752,0.1436994027202619
13.211323999999998,4.725159856308042,0.14348599091745
13.213704,4.728655992837416,0.1430349452326577
13.216104,4.735085395672986,0.1425209687940347
13.218488,4.741375028881696,0.1420166286000143
13.220867999999996,4.744219539105012,0.141555849030846
13.223264,4.749205919701606,0.1410335966354841
13.225651999999997,4.751770890671202,0.1405928521218097
13.228032,4.750191890521105,0.1402595293562814
13.230427999999996,4.749544055930784,0.139907306262105
13.232816,4.745031789474491,0.1396399331380086
13.235211999999995,4.742102314884035,0.1393575160205618
13.237603999999996,4.731256985106529,0.1393214188509327
13.239992,4.725067483127914,0.1391914633827583
13.242371999999996,4.719389837828495,0.1390772377382171
13.244768,4.715434754021772,0.1389371269675416
13.247155999999997,4.711060361334471,0.1388313768749699
13.249536,4.70654619902031,0.1387368085919227
13.251936,4.709621130811234,0.1384878387801277
13.25432,4.715349789654633,0.1381996459886998
13.266272,4.698220514242024,0.1381392742178454
13.268656,4.699943075734721,0.1381158121420661
13.271035999999995,4.705902156145728,0.1380411920209517
13.273443999999998,4.714235424355491,0.1379475792289714
13.275827999999995,4.729878247416618,0.1377296930627372
13.278208,4.743611517529947,0.1376040128512622
13.280611999999998,4.762512472121366,0.1374080261258139
13.282995999999995,4.782065053018841,0.13721700985517
13.285379999999996,4.809486267275124,0.1368513754204441
13.287776,4.838490273397243,0.1364801495756161
13.290163999999995,4.868937301758338,0.1361088144339063
13.306888,5.010818116028939,0.1360557220037179
13.328392,5.221777006315289,0.1360504680635421
13.330787999999998,5.245703979900067,0.1359835612692032
13.333176000000002,5.270050262365425,0.1358937798852942
13.335555999999997,5.293465379271005,0.1358218248143432
13.337955999999998,5.318370740243803,0.1356994828753225
13.340339999999998,5.355987553829403,0.1352971794322617
13.342723999999995,5.391369949243113,0.1348982871052538
13.34512,5.429033984656956,0.1344509122016972
13.347507999999998,5.468328033764879,0.1339390155840238
13.349888,5.504037190260549,0.1334662580270208
13.352283999999996,5.53429912302441,0.1330763744484353
13.354672,5.573128537281379,0.1324968473858874
13.357056,5.604089318179541,0.132069255761046
13.359451999999996,5.634398472771645,0.1316400031728122
13.36184,5.665918332177247,0.1311844037704908
13.364219999999996,5.698648896396349,0.1306998712296612
13.366619999999998,5.737665302108422,0.1300843588927092
13.369008,5.7774731037534135,0.1294733637462008
13.371403999999998,5.822356042077876,0.128772312268262
13.373799999999996,5.864305714096143,0.1281358394983712
13.376191999999996,5.90597584686069,0.1275235396598067
13.378571999999998,5.945504109251961,0.1269657903429676
13.380967999999996,5.975533724590344,0.1265899755328549
13.383356,6.004632174368949,0.1262295015899815
13.385736,6.029446883400999,0.1259561244546529
13.388132,6.045833880566801,0.1258484527266981
13.426355999999998,6.215275678720547,0.1257868126562117
13.428736,6.223189638049728,0.1257554872446305
13.431135999999997,6.229381035886213,0.1257385660603067
13.43352,6.240135713722972,0.1256275059258513
13.435899999999997,6.254522506000228,0.1254338418652948
13.438303999999995,6.265883484172672,0.1252441920979237
13.440692,6.282599138278307,0.1249580674929669
13.443072,6.299454562010804,0.1246655133767562
13.445476,6.319103482422636,0.1243453971520083
13.447863999999996,6.335819136528272,0.1240671183632421
13.450243999999998,6.356166905074403,0.1237088075930556
13.452639999999995,6.3758630473144775,0.1233451136385635
13.455028,6.395978498435132,0.122957667446856
13.457408,6.416233719182647,0.1225625348677854
13.459812,6.432904047317908,0.1222014350560643
13.462199999999996,6.445198086908,0.1218815847367789
13.464579999999998,6.4560491042591135,0.1215598470022431
13.466983999999997,6.469740840117808,0.1211595579493845
13.469372,6.483851884857081,0.1207360745270104
13.471751999999997,6.499453173663574,0.1202720398769123
13.474156,6.515613540977506,0.1197773799669442
13.476543999999995,6.531773908291441,0.1192928553310742
13.478924,6.547282649299317,0.118800662673947
13.481319999999997,6.558926958441219,0.1183602172546519
13.483708,6.568708936463564,0.1179427832715304
13.486087999999995,6.582495115978743,0.117471404956864
13.488484,6.593208259560866,0.1170484316384894
13.490868,6.602198841650294,0.1166379222823767
13.493248,6.605183121500471,0.1163101622467237
13.495652,6.609238336537287,0.1159647066161565
13.498039999999996,6.613153781947242,0.1156295908600975
13.500423999999995,6.618652019223033,0.1152909270590389
13.50282,6.624941652431742,0.1149513661220569
13.505207999999996,6.63230222082709,0.1145959341738585
13.507587999999998,6.649393753700801,0.1141294396559926
13.509983999999996,6.666065977693933,0.1136844922936309
13.512372,6.6823188928064825,0.1132611788353765
13.514755999999998,6.698943894971371,0.1128604991794004
13.517151999999996,6.716080753815456,0.1124746744941388
13.51954,6.732658534152101,0.1121211065957928
13.52192,6.748537466354445,0.1118053250875879
13.524316,6.758130557063818,0.1115814727533983
13.526703999999995,6.773170871505001,0.1113136960957472
13.529088000000002,6.791656308931576,0.1110272890435197
13.531484,6.8103740637836285,0.1107695706358584
13.533871999999995,6.827461804941602,0.1105591663288513
13.536251999999998,6.844409776472715,0.1103562313443256
13.538652,6.863731935802583,0.1101501701481982
13.541035999999998,6.884776656625147,0.1099329382184159
13.543436,6.907404169313548,0.1097142399297486
13.545831999999995,6.928960746815309,0.1095137224916563
13.548215999999996,6.949446389130432,0.1093290678150135
13.550599999999996,6.97272552812489,0.1091225432896083
13.552996,6.993723027119212,0.1089541906428208
13.555383999999997,7.006292814247285,0.1089031108593211
13.557764,7.019514227681415,0.1088575188551032
13.560159999999996,7.034458202608241,0.1088025302102527
13.562548,7.049262407908209,0.1087549188404021
13.564928000000002,7.065928944327731,0.1086921513521309
13.567324,7.084457811866811,0.1086145434386904
13.569711999999996,7.104849010525449,0.108521273783209
13.572091999999998,7.1288251017963375,0.1084023879013285
13.574492,7.149588387507313,0.108329725094984
13.576876,7.166487241352312,0.1082957739807823
13.579276,7.184317260757092,0.1082540070539525
13.581671999999998,7.204149380908289,0.1081907034633007
13.58406,7.225704062552181,0.1081191316197951
13.586439999999996,7.247398513822933,0.1080418521947586
13.588836,7.275890663265856,0.1079006740526548
13.59122,7.3066644527089135,0.1077277925189019
13.593599999999997,7.336087767711613,0.107582457667014
13.596004,7.366442248274089,0.1074296045249069
13.598388,7.393723692903512,0.1073143263384352
13.600767999999997,7.425940504585547,0.1071508345250056
13.603164,7.458716394775022,0.1069593454547069
13.605548,7.494705090524414,0.1067276584017184
13.607948,7.532975426273943,0.1064648580849178
13.610343999999998,7.57259623646383,0.10617785565075
13.612732,7.61035471553416,0.1059079280347508
13.615111999999996,7.644388532365377,0.1056675559837824
13.617515999999997,7.675489082890398,0.1054543795945944
13.6199,7.709942208602196,0.105198728133568
13.622284,7.743603938381076,0.1049432840200264
13.624679999999998,7.7781968337197345,0.1046795917740752
13.627063999999995,7.811206937192557,0.104417697300189
13.629447999999996,7.8432858751056,0.1041657318993689
13.631844,7.873502481899086,0.1039280487450674
13.634228,7.901856757573016,0.10370511456911
13.636607999999995,7.92262193914186,0.1035454103155709
13.638999999999996,7.9405936240313695,0.1034080552008304
13.641388,7.959915783361237,0.103245765591393
13.643768,7.979657251571686,0.1030659118525594
13.646164,7.999678259035854,0.1028745411735967
13.648551999999995,8.015695065007188,0.1027227153162138
13.650936000000002,8.03343443247122,0.1025642516003924
13.653332,8.049311468815693,0.102420144725743
13.655715999999998,8.059182202920917,0.1023324601156939
13.658096,8.06998410258592,0.1022397776335555
13.660495999999997,8.079063440758226,0.1021536623680824
13.662883999999998,8.087351382997614,0.1020673661933736
13.665264,8.097129569304222,0.1019504889703996
13.667676,8.10024982706552,0.1018840490141379
13.670063999999996,8.10392916333426,0.1017936906799234
13.672444,8.111100844416635,0.1016556149223755
13.674847999999995,8.119762769566229,0.1014881594646612
13.677236,8.125910737290209,0.1013274508208632
13.67962,8.13168661796185,0.1011489440275486
13.682015999999996,8.136810872327436,0.1009644989690909
13.684404,8.141003961133242,0.1007853998684942
13.686783999999996,8.142915409938912,0.1006364460566332
13.689183999999996,8.144035462811663,0.1004878943319097
13.691567999999997,8.143153414937997,0.1003574453047618
13.693951999999996,8.140548805571635,0.1002331082047657
13.696348,8.137572109152934,0.1000908723311607
13.698735999999997,8.133943786428178,0.0999428875216261
13.701119999999996,8.127661736650946,0.0998067022240852
13.703516,8.127525758739823,0.0996110791099648
13.705903999999997,8.120592082656533,0.0994687664574222
13.708284,8.112587471386604,0.0993380201373776
13.710684,8.108587061609507,0.0991714574884732
13.713071999999997,8.107659687765468,0.0989759818217566
13.715468,8.103938817242092,0.0987968363819381
13.717864,8.09928678115894,0.098623434483226
13.720251999999997,8.089839147650032,0.0984852677213396
13.722631999999996,8.077318478208074,0.0983759972072637
13.725028000000002,8.06707944876625,0.0982369752919711
13.727415999999998,8.053627613764512,0.0981325754994971
13.729796,8.044179980255608,0.0979930409114673
13.732191999999998,8.035151655627283,0.0978351492216997
13.73458,8.025611474319762,0.0976647278473053
13.736959999999996,8.015140127452463,0.0974997668163653
13.739356,8.0081611253988,0.0972877878334028
13.741743999999995,8.001182123345135,0.0970753558846913
13.744140000000002,7.993132186104832,0.0968739044172867
13.746536,7.985222018491388,0.0966663722149179
13.748923999999995,7.979313951624363,0.0964411352773595
13.751303999999998,7.970752157704862,0.0962272056989306
13.753699999999997,7.969547140464971,0.0959389091237387
13.756087999999998,7.970763532852077,0.095615419922028
13.758468,7.966904788559712,0.0953369601925794
13.760867999999997,7.961975109080707,0.0950713604378839
13.763255999999998,7.961841027027455,0.0947714708315439
13.765636,7.963429506466898,0.0944669933536929
13.76804,7.963387972212264,0.094195851852139
13.770427999999995,7.963206668330768,0.0939295433871786
13.772807999999998,7.959533019635635,0.0937092110953334
13.775208,7.966940809859226,0.0933953481340361
13.777592,7.968202528216707,0.093137457335306
13.779972,7.972117973626662,0.092869587844181
13.782367999999998,7.976964584596395,0.0925957136920045
13.78476,7.983813296312546,0.0923058353935038
13.78714,7.991965260640811,0.0920322150026963
13.789539999999995,7.999977455342217,0.0917640403803193
13.791928,8.012925017096235,0.0914598338358074
13.794308,8.026012348477114,0.0911508230938656
13.796712,8.04003084541777,0.0908381769873328
13.799099999999996,8.052559098291209,0.0905538885609573
13.801479999999998,8.062665941537647,0.0903050344349574
13.803875999999995,8.074635115903643,0.0900482790299323
13.806264,8.091819196575974,0.0897450552848835
13.808644,8.106209780568967,0.0894573624878344
13.811039999999998,8.122462695681516,0.089161821356899
13.813428000000002,8.140857481167345,0.0888485480637752
13.815807999999995,8.164886481840085,0.0884730331681638
13.818211999999995,8.193990619192299,0.0880597381266495
13.8206,8.223094756544512,0.0876439225181416
13.822983999999998,8.242048620537782,0.0873106453350791
13.825379999999996,8.2670087867703,0.0869344339794269
13.827768,8.291968953002817,0.0865602670685018
13.830151999999998,8.316789349608477,0.0861913009865442
13.832547999999996,8.339328106213998,0.0858485791647811
13.834936,8.356000330207129,0.0855444215196923
13.837316,8.375745590133315,0.0852173397398262
13.839715999999996,8.391207109312948,0.0849310926253323
13.842099999999997,8.407040715544918,0.0846637767511342
13.844479999999995,8.424457113642724,0.084401282779693
13.846876000000002,8.445877713233365,0.0841124625455275
13.849263999999998,8.463154341704312,0.0838559351112044
13.851659999999995,8.47800956054826,0.0836307887323149
13.854059999999995,8.493516405698266,0.083414900925973
13.856448,8.510606042714107,0.0832024788438401
13.858827999999995,8.525973118237253,0.0829938140956736
13.861224,8.535985517827207,0.0828321434268314
13.863616,8.545299069282859,0.0826985489409338
13.865995999999996,8.552191211111513,0.0825947736271672
13.868395999999995,8.565089655179422,0.0824532886658657
13.870779999999996,8.58213207036702,0.082280918825776
13.873163999999996,8.59223701775559,0.082150521107832
13.875568,8.604483835517438,0.0820035490941145
13.877955999999998,8.623807890705173,0.0818123695310311
13.880331999999996,8.645413585893047,0.0815988566042271
13.882739999999998,8.670232086640839,0.0813592184207363
13.885123999999998,8.695190357015488,0.0811171049650353
13.887507999999997,8.722290497763415,0.0808580696496756
13.889907999999998,8.748459472951563,0.0806028644599111
13.892296000000002,8.77011238996768,0.0803605417786068
13.894675999999995,8.787109479184906,0.0801361437079755
13.897072,8.807039834708327,0.0798952825100805
13.899459999999998,8.827901355791527,0.0796513487208986
13.90184,8.84475867538189,0.0794322443572601
13.90424,8.85961389422584,0.0792251677536501
13.906624,8.875912135308765,0.0790277457854942
13.909003999999996,8.895423181951603,0.078804729470457
13.9114,8.912280501541968,0.0785870147059136
13.913787999999997,8.925273389266358,0.0783871044117705
13.916168,8.93426207549792,0.0782120533054844
13.918571999999998,8.943902388035536,0.0780449127603864
13.92096,8.963273665051515,0.0778310375749255
13.923339999999996,8.97943213650758,0.0776434263977419
13.925744000000002,8.990235932030451,0.0774986471048906
13.928131999999998,9.001831123486241,0.077356771975733
13.930512,9.014217710874949,0.077217834558359
13.932907999999998,9.023111953450025,0.0771129909077075
13.935296,9.032006196025092,0.0770086762782636
13.93768,9.041179977853885,0.0768946406708093
13.940075999999998,9.05393865229493,0.0767740799884692
13.942464,9.072284320094646,0.0766369134836307
13.944843999999996,9.092632088640778,0.0764896367402692
13.947248000000002,9.114470101254128,0.0763212040910733
13.949635999999998,9.138449984240756,0.07613767782916
13.952016,9.163640572040883,0.0759416420281051
13.95442,9.189250468721593,0.0757326479993162
13.956807999999995,9.216862466148717,0.075515340978298
13.959187999999996,9.246616333949117,0.075283686095567
13.961591999999996,9.284658143988906,0.0750031305859325
13.96398,9.321908558095778,0.0747207773028073
13.966360000000002,9.357156871456231,0.074449552614322
13.968759999999996,9.38467632108474,0.0742111379564786
13.971148,9.41033343959369,0.0739776699840694
13.973528000000002,9.432265895863528,0.0737540724517382
13.975932,9.453406956200448,0.0735298728177949
13.978319999999997,9.471614750231172,0.0733187844763299
13.980703999999996,9.490241853142477,0.0730930453484002
13.983095999999996,9.50980012161356,0.0728661137874619
13.985484,9.528287454898004,0.0726465482192852
13.987868,9.54612316187639,0.0724213383547821
13.990263999999996,9.559442810682746,0.0722050441304514
13.992652,9.571459206876986,0.0719759445265821
13.995031999999997,9.578400466391752,0.0717729330084572
13.997436,9.58655243072002,0.0715593325321463
13.999823999999997,9.594704395048286,0.0713460162665523
14.002204,9.600202632324075,0.0711356182032374
14.004599999999996,9.602767603293673,0.07093746342711
14.006988,9.607474444636548,0.0707269239377178
14.009367999999997,9.60538358780725,0.0705414346733783
14.011767999999996,9.607296932470788,0.0703389697333151
14.014151999999996,9.60883819008199,0.0701204169043051
14.016535999999997,9.613452483626247,0.0698865572975469
14.018932,9.622070978663336,0.069635683558461
14.021316,9.634181818514062,0.0693556382346438
14.023699999999998,9.643079852804872,0.0690952724310941
14.026095999999995,9.650255325602986,0.06883357189434
14.028484,9.659712438401238,0.0685547675520439
14.030864,9.665584658587235,0.068279741859748
14.033268,9.670805252467176,0.0679970351724748
14.035655999999996,9.672161414481142,0.0677264151753073
14.038035999999998,9.670304770935196,0.0674741354264545
14.040431999999996,9.668959984068442,0.0672340244735847
14.04282,9.671479629067663,0.066981361298696
14.0452,9.67199717332047,0.0667378056843454
14.047596,9.672654487200134,0.0664899111268834
14.049983999999997,9.67396342738586,0.0662492417032258
14.052363999999995,9.673549806078883,0.0660073824100711
14.054760000000002,9.66792127846558,0.065792859654199
14.057147999999998,9.66401531234497,0.065578979287774
14.059531999999995,9.656105144731528,0.0653814441202715
14.061923999999998,9.64963799935706,0.0651939619436445
14.064312,9.6414482924899,0.065005297969443
14.066696,9.629254384129904,0.064832121671261
14.069091999999998,9.619714202822385,0.0646587793319587
14.071475999999995,9.615528697448052,0.0644554354328542
14.073859999999996,9.615207623939696,0.0642411063699868
14.076256,9.61446724155076,0.0640406769107086
14.078643999999995,9.617591291027797,0.0638300605656511
14.081027999999996,9.62150673643775,0.0636220004369891
14.083424,9.626353347407486,0.0634116315375816
