Time,Force,Position
14.185472,3.1453173398489445,0.1646565145815244
14.18786,3.3688818639443934,0.1634642564936969
14.190244,3.589375247964657,0.1623452944621437
14.19264,3.809218901536732,0.1610721351471528
14.195028,4.021243039436111,0.1600162390255304
14.197412,4.2198606683041255,0.1594003153480244
14.199808,4.410426464073968,0.1588218992811834
14.202196,4.5862824982003305,0.1584011518494242
14.20458,4.751293202549186,0.1580154041499558
14.206976,4.903176937120397,0.1577510616356493
14.209364,5.046357212287377,0.1574429750043156
14.211748,5.183115668050266,0.1570316299789168
14.214147999999998,5.30972764216995,0.1565962799992952
14.216535999999998,5.425029651661172,0.1560962012209145
14.21892,5.529952862083711,0.15552960269936
14.221315999999998,5.623845647131509,0.1548804886887241
14.223703999999998,5.704566136431289,0.1541956915986324
14.226088,5.770624085915829,0.1535596638669441
14.228488,5.820157164465576,0.1530056132199501
14.230876,5.8652233025294045,0.1523354689450911
14.233256,5.903773177532654,0.1516528369816739
14.235651999999998,5.938041207647216,0.1509457263505578
14.238039999999998,5.9642555088057385,0.1503262163197816
14.24042,5.983998872874055,0.1497855644732597
14.242815999999998,5.997503617277644,0.149340713657002
14.245203999999998,6.010776044255756,0.1488689833956273
14.247588,6.018461477875198,0.14849617328883
14.249983999999998,6.029639256308277,0.1480292052418209
14.252371999999998,6.0396535517561,0.1475495318659372
14.254756,6.049854838659027,0.1470122696205557
14.257151999999998,6.056238915524224,0.1465022600370845
14.259539999999998,6.056663911978412,0.1460693308771621
14.26192,6.053131928768008,0.1456684900583743
14.264316,6.045735513691632,0.1453356913291176
14.266704,6.033403731562641,0.145095553842298
14.269084,6.021444036485989,0.1448751812812611
14.27148,6.016654126633844,0.1445525629017713
14.273868,6.0155416571925695,0.1442184941974667
14.276252,6.020341046334061,0.1438658953936488
14.278648,6.027095314393724,0.1435260958640153
14.28104,6.032499108013029,0.1432272642795051
14.28342,6.038135219057812,0.1429601942616956
14.285816,6.046704596408789,0.1426408857304721
14.288208,6.0515493115206525,0.1423781312564877
14.290592,6.060445449953594,0.1419922149434419
14.292987999999998,6.063382507975528,0.1416702195115861
14.295376,6.065295852639067,0.1413215261262675
14.29776,6.064695239876991,0.1409993697556346
14.300155999999998,6.063303231181996,0.14068254682126
14.302547999999998,6.0628423880467786,0.140352220531119
14.304932,6.061682696777261,0.1400656666828208
14.307327999999998,6.060336014052641,0.1398358424930311
14.309715999999998,6.059314196552116,0.1396750807326034
14.3121,6.064903085768655,0.13945286112315
14.3145,6.0808273439413725,0.1391156408689743
14.316888,6.096052753979789,0.1388231322954385
14.319271999999998,6.104992322525235,0.1386615372110878
14.321672,6.112349099204845,0.138511443081155
14.32406,6.114677961033225,0.1384101132601108
14.326439999999998,6.113701469503072,0.1383380205502239
14.328836,6.115798013905976,0.1382077980915855
14.331224,6.115520370510123,0.1380925369374389
14.333607999999998,6.11617389267405,0.1379643811186287
14.336004,6.123345573756425,0.1377429016146663
14.338392,6.131121659316615,0.1375741062520958
14.340771999999998,6.147091243459707,0.1373416826274535
14.343172,6.169252225439284,0.137081767334685
14.34556,6.195230417456592,0.1368099718985774
14.347939999999998,6.224606510631047,0.1365507403412487
14.35034,6.257008417910317,0.1362884990753899
14.352728,6.294205922615336,0.1359572313851234
14.355107999999998,6.335547398440051,0.1355539981726899
14.357508,6.379729592772344,0.1350687349521346
14.359896,6.422748304119381,0.1345760061768141
14.362275999999998,6.455943503189435,0.1342001541050413
14.364676,6.492491277446267,0.1337593022000211
14.367064,6.532763713942212,0.1332688266432383
14.369443999999998,6.570894280064881,0.132817189832263
14.371844,6.610328098799664,0.1323707897179637
14.374232,6.651577026825761,0.1319451969904524
14.376616,6.6922668763444175,0.1315572341868345
14.379012,6.736541618475328,0.1311323969432233
14.3814,6.778534720606099,0.1307576265727957
14.383784,6.817315017176956,0.1304477452572839
14.386191999999998,6.855443687441754,0.1301372555033423
14.38858,6.8893358387882415,0.1298640144496413
14.390964,6.924485916776471,0.1295305842819749
14.393359999999998,6.9563306414061685,0.1292216438624514
14.395747999999998,6.985848400065354,0.1288839639800016
14.398132,7.012200574992868,0.1285652668165282
14.400527999999998,7.036969958054546,0.1282587150674496
14.402915999999998,7.05242768551844,0.1280577929102677
14.405296,7.0674661041017535,0.1278812546602989
14.407692,7.083156148991125,0.127711610175345
14.41008,7.1012203816792505,0.1275309580693155
14.41246,7.113929938434183,0.1274398650230614
14.414856,7.125848099256197,0.1273526378727333
14.417244,7.144424188623521,0.1271868012752068
14.419628,7.167423788364258,0.1269459916959825
14.422024,7.189399674746601,0.1266829347226168
14.424412,7.2110034740766045,0.1264031714446423
14.426796,7.22580957523444,0.12620776222462
14.429192,7.242897316392414,0.1259712916086808
14.43158,7.259473200871191,0.125723716388422
14.433964,7.272603962364574,0.1255021927819985
14.43636,7.289087299044732,0.1252238466014796
14.438748,7.296491297552585,0.1250717731958928
14.441132,7.303895296060439,0.1249196997903061
14.443528,7.3085983456875745,0.1248299508615731
14.448296,7.308645567515818,0.1247900269954964
14.450699999999998,7.315722804941707,0.1246915726981797
14.455468,7.314746313411555,0.1246285726072648
14.457867999999998,7.311488181881264,0.12460697947312
14.479375999999998,7.220855424221626,0.1245992893603826
14.481768,7.2133154478026515,0.1245313517582042
14.484147999999998,7.200979873957926,0.1245179687001152
14.486544,7.190646400859616,0.1244790270315239
14.488936,7.17859036626861,0.1244525695417369
14.491315999999998,7.17030621574496,0.1243467201557972
14.493716,7.161230669288392,0.1242433932009651
14.496104,7.153365827645322,0.1241156402975615
14.498483999999998,7.1437784245095575,0.1240003029599113
14.500884,7.135913582866489,0.1238722332459423
14.503272,7.130330381223557,0.123702154375207
14.551064,6.788233979356149,0.1237014669522093
14.553452,6.769707007674939,0.1237002714714156
14.555836,6.754532611180505,0.1236390131279925
14.567799999999998,6.646396595198051,0.1236343059996845
14.57018,6.626426601277864,0.1236299510971438
14.57258,6.611252204783429,0.1235672637391466
14.574967999999998,6.600733636087884,0.1234524745035897
14.577355999999998,6.599014866310926,0.1232197524959007
14.579756,6.60209169395972,0.1229254051246016
14.582144,6.605820147914573,0.1226370800711994
14.584532,6.607127192242427,0.1224017595437817
14.586928,6.605500970264085,0.1222049558963792
14.58932,6.606808014591942,0.121969194109521
14.591704,6.607555980412355,0.1217650333455182
14.594103999999998,6.612168378098741,0.1215116711131464
14.596491999999998,6.618503337277825,0.1212467581745652
14.598879999999998,6.620554555710354,0.1210532537304468
14.601276,6.624840192314777,0.1208603559445813
14.603668,6.632291412650873,0.1206585707614725
14.606056,6.644910317465059,0.1204210136630371
14.608452,6.666049481944109,0.12009020672279
14.61084,6.692635870154968,0.1197039229469751
14.613228,6.720944819858525,0.1193076214340396
14.615628,6.745901194375304,0.1189726561389627
14.618016,6.767365224078449,0.1187031663845389
14.620416,6.791622750460928,0.1184069798824162
14.622816,6.817742607962966,0.1180951391048229
14.625204,6.842651760651503,0.1178121649722511
14.627603999999998,6.870214640392515,0.1175123482212812
14.630004,6.898149607185864,0.1172346815822567
14.632392,6.9245943299119945,0.1169940894149245
14.634792,6.954623945250378,0.1167230970312628
14.637204,6.985165417267959,0.1164672961148482
14.639596,7.014635954098902,0.1162283757362963
14.641996,7.042616246862626,0.1160283519103495
14.644403999999998,7.066312798879794,0.1158935656480507
14.6468,7.09187168201652,0.1157386456451158
14.649204,7.116639169220329,0.1155870594802076
14.689851999999998,7.336499885513226,0.1155485509899204
14.692252,7.349674077119114,0.115533142945164
14.69464,7.367783635777614,0.1154627357629419
14.697019999999998,7.383611554435976,0.1154291679781644
14.69942,7.403303904960312,0.1153546606891508
14.701808,7.424858586604205,0.1152653050513287
14.704187999999998,7.446553037874958,0.1151692857296314
14.706588,7.46866679802629,0.1150556039952154
14.708976,7.494784759670456,0.1148945849145744
14.711356,7.523835987620818,0.114703407095226
14.713752,7.550465805944184,0.1145586571349354
14.71614,7.579656803521407,0.1143666238857843
14.718524,7.604843599605795,0.1142201935766868
14.72092,7.628959460503546,0.1140884852794011
14.723308,7.65628812696121,0.1139139590606396
14.725687999999998,7.685107037486095,0.1137058984835587
14.728088,7.712343156145144,0.113504361889547
14.730472,7.742792080364108,0.1132632690845855
14.732855999999998,7.782879421262819,0.1128977060377797
14.735252,7.815517437683304,0.1125935251984934
14.73764,7.858725036343313,0.1121573115520313
14.740019999999998,7.896997267950709,0.1117753113766526
14.742416,7.931684606945855,0.1114227141956934
14.744803999999998,7.969212664448577,0.1110116615790334
14.747187999999998,8.007020261205021,0.1105921698598639
14.749584,8.036447367923458,0.1102379455608711
14.751972,8.061498186096726,0.1099060282507339
14.754368,8.0818931764711,0.1096123562040544
14.756764,8.103406323860357,0.1092724678259461
14.759152,8.12147434826422,0.1089504438048489
14.761532,8.136237019309553,0.1086386342508964
14.763928,8.144341761809574,0.1083828370186849
14.766316,8.154356057257399,0.1080766697135966
14.768695999999998,8.161856395279607,0.1077782353425582
14.771092,8.165492301435842,0.1075148361689372
14.821276,7.577313298685536,0.1073005476857116
14.823664,7.546775618383694,0.107280215456285
14.826044,7.524897967373576,0.1071804938852783
14.82844,7.501669841923101,0.1071074443341386
14.830828,7.476719154979928,0.1070410560456327
14.833212,7.452839403223392,0.1069609816139356
14.835608,7.426817781093582,0.1069085314930717
14.837996,7.405731526016381,0.106805420894758
14.84038,7.381851774259847,0.1067236755293899
14.842776,7.354759216943396,0.1066840988401643
14.845164,7.33139132186606,0.1066144787591197
14.847544,7.307883657161863,0.1065505132239166
14.849944,7.285027618763724,0.1064918681168513
14.852328,7.266036012231559,0.1063976059770915
14.854712,7.24876696719209,0.1062946098652712
14.857108,7.237364454765009,0.1061332060745522
14.859496,7.225961942337931,0.1059711773877308
14.861876,7.216281991403549,0.105800500456607
14.864272,7.2027376086031945,0.1056655180963616
14.86666,7.193057657668812,0.10549354110112
14.869044,7.194179606399432,0.1052121923941459
14.87144,7.1920887495701376,0.1049744866141
14.873828,7.183851820874731,0.1048072475190283
14.876212,7.177896532179462,0.1046048915400694
14.878612,7.171382164976753,0.1044290701818517
14.881,7.169663395199795,0.1042106651632674
14.88338,7.174090697288948,0.1039228438475982
14.88578,7.17823846012438,0.1036497780089658
14.888168,7.183596927773311,0.1033556777554122
14.890552,7.192168200982159,0.1030182696751769
14.892948,7.19808574713853,0.1026955037261082
14.89534,7.203211897361983,0.1023731445428686
14.89772,7.206615486092742,0.1020574924326709
14.900123999999998,7.211090010010138,0.101727922154049
14.902511999999998,7.216495699487311,0.1013922888685452
14.904892,7.216406943404432,0.101131515279881
14.907287999999998,7.215759108814112,0.1008971311113238
14.909675999999996,7.218324079783709,0.1006223983456261
14.91206,7.225684648179057,0.1003056513975147
14.914455999999998,7.230903346201129,0.1000166111773166
14.916843999999998,7.232909238663283,0.0997704907633927
14.919228,7.231981864819244,0.099550409363135
14.921623999999998,7.234267296535119,0.0992892598852925
14.924015999999998,7.237623663437634,0.0990156377617599
14.926396,7.242190735153646,0.0987217827533446
14.928795999999998,7.240891274257269,0.0984813676607446
14.931183999999998,7.234376907054559,0.098300711126138
14.933564,7.225860439105432,0.098139627466399
14.935963999999998,7.221720259701477,0.0979598400660289
14.938351999999998,7.22423800884283,0.0977306958418359
14.940732,7.232342751342853,0.0974655432801767
14.943132,7.244032386455129,0.0971838690340591
14.945519999999998,7.258375748619882,0.0968904030064464
14.947903999999998,7.276443773023746,0.0965756097412249
14.9503,7.294511797427609,0.0962627548429646
14.952687999999998,7.318865663324445,0.0958825558949482
14.955071999999998,7.346572104408056,0.0954603183600583
14.957468,7.370646431051171,0.0950953075477448
14.95986,7.397234715119899,0.0947299050261924
14.962239999999998,7.425545560681326,0.0943595843347224
14.96464,7.454368262921949,0.0940047298357514
14.967024,7.488777958521242,0.0936162859331708
14.969407999999998,7.522768345239954,0.0932477521019397
14.971804,7.557130819011005,0.0929020982288316
14.974192,7.590142818341696,0.0925804583591885
14.976575999999998,7.630604142150613,0.0922162448395517
14.978972,7.674510588944924,0.0918421927343512
14.98136,7.718928892418432,0.0914800688876489
14.983743999999998,7.761205325518661,0.0911467629775709
14.98614,7.7969163778722015,0.0908933720648288
14.988528,7.828203919852328,0.090694251287021
14.990911999999998,7.857070052205455,0.0905316735922768
14.993308,7.888450141984198,0.0903674599762302
14.9957,7.917967900643384,0.0902168917680165
14.998079999999998,7.949068451168405,0.0900700649358324
15.00048,7.980820627999486,0.0899336077346523
15.002868,8.012944891882903,0.0898178312844042
15.005252,8.053077558751987,0.089642650999022
15.007648,8.092279060061294,0.0894758207562137
15.010036,8.135344993236574,0.0892875678666855
15.01242,8.179761400852213,0.0890804025393322
15.014816,8.223106873281214,0.0888860636277507
15.017204,8.271108173509106,0.0886716264517406
15.019588,8.319761100043056,0.0884655869260835
15.021988,8.373069854375897,0.0882381655554735
15.024376,8.422234637589044,0.0880474668831333
15.026756,8.470468255242414,0.0878618054716164
15.029156,8.525639340694811,0.0876325549473774
15.031544,8.579599721333711,0.0874192185570827
15.033928,8.635981511599608,0.0871759503948916
15.036324,8.698369604104755,0.086893935401728
15.038716,8.763970502169819,0.0865858219032888
15.041096,8.829059543555683,0.0862708797598634
15.043492,8.893729276060968,0.085974744124713
15.045884,8.957328073379614,0.0856905355575974
15.048264,9.01971616588476,0.0854248137886891
15.050663999999998,9.084385898390048,0.0851405691230996
15.053052,9.143189098282942,0.0848950133402081
15.055436,9.200781593362338,0.0846658766629975
15.057831999999998,9.257442922881957,0.0844453616418873
15.060219999999996,9.315826813894269,0.0842270797964916
15.0626,9.37486233121264,0.0840165837969436
15.064999999999998,9.433106452598093,0.0838089872061162
15.067387999999998,9.488696846931072,0.0836074343352956
15.069768,9.547779586077686,0.0833767949069079
15.072167999999998,9.6092837348513,0.0831218638803562
15.074555999999998,9.676933955491023,0.0828320235679143
15.076936,9.7380660172123,0.0825697706792422
15.079335999999998,9.800548553373932,0.0822911589102178
15.081723999999998,9.863031089535564,0.0820151197731738
15.084104,9.92006640196539,0.0817575527884686
15.086503999999998,9.973516821782962,0.0815106831287481
15.088891999999998,10.022963040107696,0.081286974109391
15.091272,10.072688797686157,0.0810555654348286
15.093668,10.122973633772054,0.0808079235222716
15.096056,10.16995311649942,0.080559976499797
15.09844,10.213068167360811,0.0803315993343305
15.100835999999996,10.254320887102647,0.0801092647687971
15.103227999999998,10.295061750165283,0.0798776379364654
15.105608,10.33449936061581,0.0796372950039736
15.108007999999998,10.36834997770766,0.0794161283166454
15.110395999999998,10.401176881441115,0.0791757395352008
15.11278,10.427625395882988,0.0789517535981693
15.115175999999998,10.4529104273396,0.0787112816545225
15.117568,10.470606364691124,0.0785001693797684
15.119948,10.487790445363457,0.0782806464775343
15.122363999999996,10.49659403599778,0.0780870218404764
15.124752,10.506608331445602,0.0778825706716887
15.127132,10.516110770214226,0.0776688300263001
15.129528,10.523099251557236,0.0774548012977315
15.131916,10.530227502527108,0.0772367817699457
15.1343,10.537635292750698,0.0770105726870431
15.136696,10.54546239185487,0.0767712871179625
15.139084,10.550915303160288,0.0765273291339014
15.141464,10.550501681853316,0.0763067485153116
15.143864,10.55222993091962,0.07607283686307
15.146252,10.551723761814031,0.075829318908946
15.148636,10.55177667121588,0.0755684498670744
15.151032,10.54717375281884,0.0753193057769
15.15342,10.539358028861884,0.0750905069006996
15.1558,10.528888577852452,0.0748637923359329
15.158196,10.513343990163548,0.0746614280296394
15.160584,10.498590798407562,0.0744600957699346
15.162968,10.487422499263827,0.0742532106625622
15.165364,10.473041394560184,0.0740656236441293
15.167752,10.452514217990425,0.073909156286508
15.170136,10.432918206980446,0.0737496400346002
15.172532,10.41066846891799,0.0735923599167489
15.17492,10.382412428616286,0.0734614334431955
15.1773,10.352294057195024,0.0733343701617669
15.1797,10.320173585027344,0.0732156622211678
15.182084,10.284048911366831,0.0731140798418909
15.184468,10.248995172892958,0.0730048687941421
15.186864,10.211799564045808,0.072908052659559
15.189252,10.179679091878128,0.072786014370002
15.191636,10.142483483030976,0.0726877037294587
15.194032,10.108732997169218,0.0725879957531268
15.19642,10.0760534464941,0.0724805412573945
15.1988,10.048169493244732,0.0723570607050415
15.2012,10.014419007382973,0.0722550212402096
15.203588,9.98360178782741,0.07214116396309
15.205968,9.957068309018402,0.0719999617079346
15.208364,9.935889506142583,0.0718253098819955
15.210752,9.910846271400793,0.0716632941378516
15.213136,9.891017942965334,0.0714723269375931
15.215532,9.875054046395851,0.0712676462947176
15.21792,9.854946178706673,0.0710838278105545
15.220299999999998,9.834419002136917,0.0709125236761763
15.222696,9.819758358179548,0.0707186715701462
15.225088,9.807751441274652,0.0705222297680891
15.227467999999998,9.793742423623346,0.0703335345460786
15.229864,9.78224736339765,0.0701465682062054
15.232252,9.7664685624254,0.0699856220551994
15.234635999999998,9.751481157386069,0.0698263090074865
15.237032,9.731278846040404,0.0696954606499439
15.23942,9.716943067307133,0.0695421375583255
15.241803999999998,9.695530051147966,0.0694217170577607
15.244204,9.6734181868545,0.0693237071057603
15.246592,9.647302121068204,0.0692428536361244
15.248976,9.628914919013852,0.069135394884409
15.251372,9.61145888251928,0.0690253285598994
15.253764,9.593443767517268,0.0689331940417582
15.256144,9.57100514214184,0.0688716407777656
15.258544,9.54949768232619,0.0688076261159261
15.260932,9.524777416950627,0.0687628882383829
15.263316,9.498986216388422,0.0687244023265122
15.265712,9.479992713998389,0.0686625212904948
15.2681,9.462070146794993,0.068593733615294
15.270484,9.444007809964736,0.0685292043833503
15.27288,9.427016408321116,0.0684578058388766
15.275268,9.41561200003617,0.0683745494019333
15.277652,9.404347361378084,0.068286552509624
15.280048,9.398949255332385,0.0681775169578754
15.282439999999998,9.396624185219745,0.0680533880556256
15.28482,9.404169849212328,0.0678922017676352
15.287216,9.407711311712076,0.0677479288416169
15.289604,9.41404627089116,0.0675967762590217
15.291988,9.420660769323964,0.0674365273869782
15.294384,9.429137598876324,0.0672718706824822
15.296772,9.436403723615184,0.0671186491739816
15.299156,9.442179604286826,0.0669857244851459
15.301552,9.446093153838913,0.0668563983684696
15.30394,9.449866933764138,0.0667314663269089
15.306324,9.456434210368698,0.0666011920359238
15.30872,9.464863818092816,0.0664669925564512
15.311108,9.477297627309769,0.0663167298182054
15.313492,9.484656299847243,0.0661894424668588
15.315887999999998,9.492666598690782,0.0660695158467429
15.318276,9.49946619272082,0.0659608758228
15.32066,9.504775542683635,0.0658726627343092
15.323055999999998,9.509433266340398,0.0657775166068141
