Time,Force,Position
14.95748,3.042777783128353,0.1628179011679274
14.959875999999998,3.2454468353174444,0.1610592047630886
14.962263999999998,3.440668458886179,0.1597596885936969
14.964644,3.626580322714999,0.1586305833599693
14.967043999999998,3.8061156931101,0.1575165913626071
14.969431999999998,3.977412238951926,0.1566357203538558
14.971812,4.138467859494059,0.1559540385196238
14.974208,4.28448695731075,0.155551647210757
14.98376,4.7554447437142,0.1553678943773355
14.98614,4.854775273204461,0.155320144965269
14.98854,4.948428157395303,0.1552110464271416
14.990924,5.032027107741556,0.1551115287079396
14.993308,5.102918397190746,0.1550624764189199
14.998096,5.2139800960479175,0.1549636838647787
15.00048,5.25703654993385,0.1549022958914716
15.002876,5.294927215199564,0.1547742636028523
15.00526,5.325742538897258,0.1546713824293659
15.007644,5.353579270318383,0.1545404877361308
15.01004,5.377878330955498,0.1544217486335555
15.012432,5.403295548607495,0.1542202880933406
15.014812,5.427689052901096,0.1539958409732833
15.017212,5.448637434209304,0.153824657187466
15.0196,5.471774907719032,0.1535503197853518
15.02198,5.499103574176697,0.1531200781913298
15.024376,5.527690167276105,0.1525981551951368
15.026764,5.558745391830754,0.1519503984210095
15.02916,5.58840481597467,0.1512624917237411
15.031555999999998,5.61787914452135,0.1504957247120047
15.033939999999998,5.645119054896138,0.1497512939285326
15.036324,5.66397847523292,0.1491631654384473
15.038719999999998,5.683257204450284,0.1485545443729628
15.041107999999998,5.705189660720121,0.1479107469821773
15.043488,5.726842577736238,0.1472891404561566
15.045884,5.758086689603858,0.1464855680830298
15.048272,5.789191031844618,0.1456994159671374
15.050652,5.816663259644883,0.145022593580589
15.053055999999998,5.844787113751203,0.1443532015068597
15.055443999999998,5.871979802297747,0.1437072129377209
15.057824,5.896099454911235,0.1431247414303689
15.060219999999996,5.920778186032165,0.1425134976299071
15.062608,5.944013894914118,0.1419085359017276
15.064988,5.966225890437675,0.1412784197451236
15.067384,5.980709022229287,0.1407881082229174
15.069772,5.994540527714841,0.1402991072984094
15.072167999999998,6.008931111707835,0.1397779879239576
15.074564,6.019317494207996,0.1393344791832428
15.076952,6.028632941521518,0.1389166226348995
15.079335999999998,6.03673768402154,0.138533239418246
15.081727999999998,6.0428403257751455,0.1381878006539112
15.084115999999998,6.050665529021448,0.1378197232426968
15.0865,6.057000488200532,0.1375047497496032
15.088895999999998,6.060262411446558,0.1372508716338705
15.091283999999998,6.065107126558423,0.1369880033335929
15.093668,6.065016474617676,0.1368136684592275
15.096068,6.064646283423207,0.1366575030320743
15.098456,6.065906105922819,0.1364436375739772
15.100835999999996,6.064512201369955,0.1362617069771326
15.103231999999998,6.061395735324396,0.1360981986850756
15.105615999999998,6.060840448532693,0.1358632034581579
15.108,6.059074456927491,0.1356603104421017
15.110395999999998,6.060241731628485,0.1354102342716622
15.112783999999998,6.06247994151612,0.1351385504794207
15.115164,6.0708642232698615,0.1347530790555358
15.117559999999996,6.07631523871741,0.1344157264080059
15.119948,6.081207175657518,0.1341149303599168
15.122343999999998,6.089823774836739,0.1337629785758896
15.124748,6.101373640322153,0.1333676093156259
15.127132,6.111992340247792,0.1329850533684479
15.129516,6.12167987461365,0.1326133011178522
15.131912,6.134068357860226,0.1321657860411483
15.1343,6.141940782934773,0.1317709900184795
15.136679999999998,6.151163682449678,0.131337488741853
15.139076,6.159083329352467,0.1308976310709381
15.141464,6.169144846628534,0.1304164363630011
15.143843999999998,6.175761240919207,0.1299671477083837
15.14624,6.178885290396242,0.1295968973850855
15.148628,6.183731901365976,0.129209020043331
15.151011999999998,6.189230138641767,0.1288256417883696
15.153408,6.194448836663838,0.1284604297828403
15.155796,6.197805203566352,0.1281208373738442
15.158176,6.196505742669975,0.1278443585409566
15.160571999999998,6.193716037706378,0.1276141114495845
15.162959999999998,6.186782361623088,0.1274584512302028
15.16534,6.1827819518459926,0.1272572664508208
15.167735999999998,6.1782696853897,0.1270429347922793
15.170123999999998,6.169381130388237,0.1268716839602381
15.172508,6.153694877214604,0.1268012421420446
15.174903999999998,6.13893978960075,0.1267181798936341
15.177291999999998,6.127537277173671,0.1265644286111192
15.179688,6.112921959186678,0.1264708285800393
15.18208,6.100448511572961,0.1263362113451721
15.184468,6.087975063959243,0.1262007317504758
15.186851999999998,6.0773639474650825,0.1260405541595678
15.189248,6.06167769429145,0.1259644238371459
15.191636,6.048133311491093,0.1258470632862587
15.194015999999998,6.038081273504374,0.1256509161399877
15.196412,6.027377609211596,0.1254490505607536
15.1988,6.015230922679842,0.1252445116043197
15.20118,6.0004305090956125,0.1250662536018146
15.20358,5.984698929951606,0.1248993245476124
15.205963999999998,5.966825480434324,0.124773659061001
15.208348,5.947369239051203,0.1246551492789251
15.210743999999998,5.93005486804136,0.1244939255401006
15.213131999999998,5.9096674610984605,0.1243861992323517
15.215528,5.884065147849231,0.1243759486586579
15.217924,5.860325165719557,0.1243406184553624
15.220312,5.839797989149799,0.1242412383051231
15.222696,5.818619186273983,0.1241349096201817
15.225092,5.793156642651612,0.1241130359054352
15.22748,5.770627365335439,0.1240435275617153
15.22986,5.751031354325458,0.123926157084731
15.232264,5.7305041777557,0.1238196026567156
15.234648,5.7049018645064695,0.1237997200083237
15.237028,5.685445623123349,0.1236701453935546
15.239432,5.666501238419427,0.1235541204712904
15.24182,5.649279415208201,0.1234208001856024
15.2442,5.631917822370115,0.1232954957953278
15.246596,5.618001352517421,0.1231391510488971
15.248984,5.60766977527698,0.122943559583487
15.251364,5.601062860275653,0.1227004879840317
15.253764,5.599251542700078,0.1223884916835226
15.256152,5.59944232587092,0.1220421087688464
15.258532,5.597491238668485,0.1217366783719221
15.260924,5.596611086652688,0.1214090251324276
15.263312,5.600806071316364,0.1209911146232525
15.265691999999998,5.605652682286097,0.1205791891127743
15.268096,5.613013250681444,0.1201513631413899
15.270484,5.619954510196213,0.1197501030685119
15.272863999999998,5.6318311367635925,0.1192711672192874
15.27526,5.6406347273979165,0.1188462175437543
15.277648,5.64915877877852,0.1184425032061682
15.280027999999998,5.660336557211598,0.1180150358705106
15.282424,5.673376666764233,0.1175609822217199
15.284812,5.685206071503369,0.1171412450850412
15.287208,5.696244080309588,0.1167239663715579
15.289604,5.703138117996112,0.1163799049993603
15.291992,5.710963321242415,0.1160245526079566
15.294376,5.712782222249468,0.1157632628329027
15.296772,5.71339041844302,0.1155318138599397
15.29916,5.708271851651043,0.1153768224348647
15.301544,5.700220018552872,0.1152645012247363
15.30394,5.695473538813232,0.1151338252865923
15.306324,5.693660325379788,0.114960417116852
15.308708,5.691567572692623,0.1148044087084755
15.311104,5.691197381498155,0.1146355960440725
15.313488,5.690035794370768,0.1144687928635712
15.315872,5.685940940937186,0.1143440618510701
15.318268,5.6835686489963,0.1142062482192697
15.320656,5.679985652241918,0.1140972962803739
15.323035999999998,5.67826498660709,0.1139664445178708
15.325436,5.675473385785625,0.1138552908284136
15.327824,5.669608749031103,0.113793703891257
15.330203999999998,5.666537608955917,0.113700194806362
15.3326,5.660393432947676,0.1136557768228618
15.334988,5.659836250298104,0.113548549638887
15.337371999999998,5.663143499514505,0.113391204647696
15.339768,5.667242144663826,0.1132327592568509
15.342156,5.677347092052396,0.1129857191908339
15.344552,5.6866606435080485,0.1127400199351553
15.346947999999998,5.704634224255426,0.1123858421709748
15.349336,5.7261926976150574,0.1119994819594746
15.351716,5.747099544668631,0.1116119295504437
15.354119999999998,5.768658018028261,0.111235107101306
15.356507999999998,5.796222793627143,0.1107791375853441
15.358888,5.822576864412525,0.1103541290382483
15.361287999999998,5.850373957436884,0.1099353193877634
15.363671999999998,5.879753842327079,0.1095138623947748
15.366056,5.9100648927770525,0.1090862039315146
15.368451999999998,5.939305008040387,0.1086780918579468
15.370836,5.971338619983058,0.1082459320207629
15.37322,6.003884088604923,0.1078297072540297
15.375616,6.039223053906127,0.1073863867190582
15.378004,6.072559918460912,0.1069730110606028
15.380384,6.108690279695031,0.1065303510072113
15.38278,6.135741302756846,0.1062134180907609
15.385172,6.160790225072244,0.1059253647292171
15.387552,6.185559608133921,0.1056552040172457
15.389948,6.20897851675524,0.1054210833884527
15.392336,6.23612208761567,0.1051531212009721
15.394716,6.25791098254291,0.104973568928311
15.397112,6.27890848153723,0.1047968892717239
15.425795999999998,6.33868248538667,0.1047160857198574
15.428183999999998,6.341056673185424,0.1047145613503865
15.430564,6.347574832103872,0.1046568871582836
15.432959999999998,6.35395322139546,0.104606784044228
15.435344,6.358469279567491,0.1045730633283721
15.437724,6.362845568112663,0.1045470257850116
15.440127999999998,6.366802547777254,0.1045442273210536
15.442515999999998,6.371039066695564,0.1045261642293445
15.444896,6.376858377479711,0.1045073461746708
15.447299999999998,6.389056077555446,0.1044401425230615
15.449687999999998,6.404559130989713,0.1043637729585079
15.452068,6.427371739275347,0.1042309953289606
15.454463999999998,6.4579132112929285,0.1040211279656018
15.456848,6.491108410362986,0.1038002475592033
15.459232,6.526677797231795,0.103581242132038
15.461636,6.565692307085998,0.1033466408705964
15.464023999999998,6.610433579925733,0.1030652269954793
15.466404,6.658480206123997,0.1027802061537383
15.468799999999998,6.709040789747879,0.1024918452859248
15.471187999999998,6.75811112930454,0.1022406897266451
15.473568,6.812908231846731,0.1019438153580732
15.475972,6.86807742144126,0.1016712306881504
15.47836,6.930835705140876,0.1013436647912853
15.48074,6.998110047012522,0.1009913474962498
15.483148,7.0699004470562015,0.1006122688413219
15.485532,7.145974587846434,0.1001856417397998
15.487911999999998,7.224190599009943,0.0997405629915615
15.490312,7.307714064278403,0.0992747081803249
15.492696,7.390166594360223,0.0988263672665501
15.495079999999998,7.46875469257607,0.0984162319681367
15.497476,7.547482560418778,0.0980044758949419
15.499864,7.624767406022509,0.0975948111742672
15.502243999999996,7.699258754946905,0.0972140542574177
15.504639999999998,7.7686749671918305,0.0968862291946029
15.507027999999998,7.834366517197641,0.0965840934935872
15.509411999999998,7.898475275337616,0.0962839210880502
15.511807999999998,7.954063773812726,0.0960473708378211
15.514195999999998,8.004205048556024,0.095841530363564
15.516576,8.049690495500432,0.0956660807951614
15.518971999999998,8.095735020952281,0.0954664980902764
15.521359999999998,8.133119517112407,0.0953325021114559
15.52374,8.17106309177997,0.0951763089038033
15.526135999999996,8.20141757234245,0.0950750969230929
15.528524,8.228746238800115,0.0949686695874173
15.530908,8.25677375339208,0.0948356428659772
15.533303999999998,8.283078706491352,0.0947112095514751
15.535692,8.304076205485673,0.0946083138675097
15.538087999999998,8.319114624068986,0.0945199994926549
15.540484,8.332989559667043,0.0944140056884486
15.542872,8.347563343399402,0.0942801590448416
15.545251999999998,8.36376714082584,0.0941152200212012
15.547648,8.376106506386304,0.0939764915806928
15.550036,8.383929813774737,0.0938572896617477
15.552419999999998,8.391520803737693,0.093714804689948
15.554816,8.400741807394729,0.093539673418751
15.557204,8.410242350305484,0.0933540644267746
15.559587999999998,8.424957799522572,0.0931221337987506
15.561984,8.441815119112936,0.0928692593389886
15.564372,8.459883143516802,0.0925999410930237
15.566751999999996,8.476880232734027,0.0923416535458894
15.569147999999998,8.497229897138027,0.0920450601097175
15.571535999999998,8.512132337810222,0.0917729147857335
15.573916,8.525451986616577,0.091498935212807
15.576315999999998,8.536629765049655,0.0912464290935374
15.578703999999998,8.539938910123928,0.0910498880335383
15.581084,8.537241752958948,0.0908992330851734
15.583479999999998,8.531471559860911,0.0907736574545273
15.585867999999998,8.524630431576238,0.0906582114948375
15.588264,8.518720468851344,0.0905378629255827
15.59066,8.510808405380033,0.0904326001404889
15.593048,8.49488793892305,0.0903876802151616
15.595427999999998,8.478315846160015,0.0903362747998015
15.597824,8.461883523023838,0.0902790904995164
15.600212,8.44545119988766,0.0902215625578329
15.6241,8.149276441947578,0.0902144092722619
15.626496,8.119435713922167,0.0902024273243074
15.628884,8.090665921083394,0.0901804578521325
15.631268,8.06883359604365,0.0901070383931709
15.633664,8.046861501377046,0.0900394471541134
15.636052,8.019674500404111,0.0900193146263399
15.638431999999998,7.993139125737232,0.0900056928250374
15.640828,7.96939724774969,0.089978024841562
15.643216,7.94816932718776,0.0899470747615186
15.645595999999998,7.931597234424723,0.0898910466040776
15.647996,7.917818638341021,0.0898200384969914
15.650379999999998,7.903480963749878,0.0897722345595473
15.652763999999998,7.89165724658435,0.0897212032693367
15.65516,7.8844893572177135,0.0896458393397186
15.657552,7.877693554903413,0.0895889038599351
15.659931999999998,7.872620314081811,0.0895279763274696
15.662336,7.868058929939405,0.0894797043048784
15.664724,7.864940568035976,0.0894392971637715
15.667103999999998,7.863684537252105,0.0893892086987171
15.6695,7.868574578334343,0.089286797346995
15.671892,7.876909742401973,0.0891773884324805
15.674271999999998,7.888690029454998,0.0890611961531728
15.676668,7.904055209120274,0.0889320053606647
15.679056,7.916067813598775,0.0888410556176757
15.681435999999998,7.929942749196832,0.0887403427377141
15.683832,7.951406778899977,0.0885959587509274
15.68622,7.974733139722677,0.0884427630086771
15.688603999999998,8.001923932411353,0.0882659041306232
15.691,8.029254494726887,0.0880842197889526
15.693388,8.052441085922727,0.0879392245769586
15.695771999999998,8.077350238611267,0.0877932181785043
15.698168,8.107194758352415,0.0876135084305264
15.700551999999998,8.136759738839844,0.0874466168865435
15.702952,8.171120316753024,0.0872539226129669
15.705348,8.207622765039481,0.087041084580434
15.707736,8.247058479632134,0.0868125612576848
15.710116,8.286354424597926,0.0865893346532438
15.712512,8.327512700683275,0.0863592534346643
15.7149,8.370393538261322,0.086128315307905
15.71728,8.412715297331928,0.0859228563828281
15.71968,8.45238332935006,0.0857260964813057
15.722068,8.490189030248631,0.0855392702935064
15.724448,8.525852860773929,0.0853718272044826
15.726848,8.56566066241892,0.0851734389893853
15.729236,8.6113349966763,0.0849430615723638
15.73162,8.654355603881207,0.0847219401223705
15.734016,8.694582714406778,0.0845131904409649
15.736404,8.729874457879736,0.0843353133682933
15.738784,8.767168302099112,0.0841464574627949
15.74118,8.809537282997962,0.0839237291628124
15.743568,8.846179500911278,0.083730559767317
15.745948,8.886174294011374,0.0835101039889376
15.748344,8.924865834499352,0.0832777289094921
15.750728,8.960112252001936,0.0830531494411135
15.753124,8.995079130250799,0.082839563563639
15.755523999999998,9.02711274219347,0.0826442940826803
15.757908,9.062359159696056,0.0824243709257268
15.760288,9.095883015705946,0.0822081221059842
15.762691999999998,9.1266133750365,0.0820034025760364
15.765079999999998,9.15389861138166,0.0818032174215103
15.76746,9.181044078099962,0.0816082210058139
15.769856,9.20940024963176,0.0814010701792211
15.772244,9.23845526929786,0.0811691682634646
15.774624,9.262714691538209,0.0809608087795693
15.77702,9.280455954860107,0.0807779171537601
15.779408,9.300059549301563,0.0805896698984715
15.781788,9.32273617967608,0.0803823175852753
15.784184,9.349696550797146,0.0801426039927154
15.786572,9.374654821171797,0.0799160834199821
15.788964,9.398821695613526,0.079690871160968
15.791363999999998,9.42899487229451,0.0794335108723728
15.793748,9.450740337109243,0.0792363532580064
15.796132,9.472857888976318,0.0790557705492818
15.798527999999996,9.49255403121639,0.0789006694248429
15.800916,9.513880187150544,0.078719788408864
15.803292,9.534275177524917,0.0785424265035486
15.805688,9.553878771966376,0.0783651183648296
15.808076,9.57082863935536,0.0781920634398609
15.810472,9.58926875081156,0.077997933857001
15.812867999999998,9.609710963014177,0.0777936516789386
15.815255999999998,9.630712253724235,0.077571113159464
15.81764,9.6487802781281,0.0773625373490656
15.820035999999998,9.66871063365152,0.0771495303715927
15.822419999999996,9.686778658055385,0.0769413905800194
15.824804,9.70363597764575,0.076744952524873
15.827199999999998,9.716908404623862,0.0765559035524595
15.829587999999998,9.72738733492264,0.076375806063878
15.831968,9.737866265221417,0.0761969817455734
15.834371999999998,9.742618432534664,0.0760385868965584
15.836759999999998,9.74057290167574,0.0759086647350214
15.83914,9.730658737458011,0.0758144742625335
15.841544,9.721443421374586,0.0756966339612968
15.843932,9.709062521559488,0.0755707775649691
15.846311999999998,9.696309534692048,0.075428546324483
15.848707999999998,9.679692115958638,0.0753015212363295
15.851095999999998,9.663494006105807,0.0751601549513636
15.853479999999998,9.642500298827224,0.0750363733639983
15.855876,9.620435656362003,0.0749193907844848
15.858259999999998,9.597300078710145,0.0748091338332555
15.86064,9.57244193956559,0.0746989277633435
15.863039999999998,9.546093556353815,0.0746095492639875
15.865427999999998,9.521887043515315,0.0745052255407142
15.867808,9.495678429930402,0.0744101896061655
15.870203999999998,9.471611686718765,0.0743001977593246
15.872592,9.450617979440182,0.0741730274992304
15.874972,9.427901710668904,0.0740455323047832
15.877368,9.408258477830682,0.07390073516292
15.879756,9.383819647566703,0.073772497535374
15.88214,9.363524788422426,0.0736195642530925
15.884532,9.34616319558434,0.0734537108332104
15.88692,9.333876739425724,0.0732606734217821
15.889319999999998,9.322241909573169,0.073073998092148
15.891716,9.311258706026669,0.072893429299524
15.894104,9.301998063972867,0.0727122075262728
15.896484,9.293109508971405,0.0725470553952384
15.898879999999998,9.278726508409887,0.0724223880520098
15.901267999999998,9.266205838967926,0.0722921512731247
15.903651999999996,9.260622637324994,0.0721301276122821
15.906052,9.254899666055206,0.0719728664004038
15.90844,9.249828321091472,0.0718225785198682
15.910819999999998,9.247038616127874,0.0716531156493106
15.91322,9.241455414484944,0.0714907161323918
15.915608,9.233870112095596,0.0713375470536557
15.917987999999998,9.225865500825664,0.0711984240967615
15.920384,9.2162780976899,0.0710543043757048
15.922771999999998,9.20813371679311,0.0709193112295099
15.925152,9.19477442958999,0.070814945608446
15.927552,9.18513980462598,0.0707009465797151
15.929935999999998,9.179090072274224,0.0705826135213541
15.932316,9.171829635108972,0.0704758159739837
15.934711999999998,9.160564996450884,0.0703874528845234
15.9371,9.150511062606297,0.0702869882145311
15.939484,9.14474086950826,0.070158227120607
15.941879999999998,9.139110446037083,0.0700246308437747
15.944267999999996,9.139114237752825,0.0698472151161493
15.946663999999998,9.146474806148172,0.0696254902419984
15.94906,9.155837475289935,0.0693950657804427
15.951444,9.164408748498785,0.0691645056885729
15.953827999999998,9.172048856147851,0.0689360628869912
15.956224,9.177966402304223,0.0687067178814836
15.958612,9.182813013273956,0.0684846665325581
15.960992,9.186169380176471,0.0682825158199855
15.963387999999998,9.190596682265625,0.0680731068753238
15.965775999999998,9.198236789914692,0.0678438644872646
15.968156,9.20531781905632,0.0676333781286432
15.970551999999998,9.213749322638307,0.0674066667525294
15.972939999999998,9.225393631780213,0.0671592493128026
15.975324,9.2338251353622,0.0669318571151669
