Time,Force,Position
15.282863999999996,2.8723927160642813,0.1646391082068096
15.285244,3.0653761297453825,0.1634273957396274
15.287639999999996,3.259757239695087,0.1621506397247403
15.290028,3.455675815540253,0.1606158411812265
15.292428,3.646521150563816,0.1593292128432155
15.294823999999998,3.835785589579412,0.1579882864797587
15.297212000000002,4.0070802395633685,0.1573337596292154
15.299596,4.170974682755211,0.1567009270523779
15.301995999999995,4.322393782475467,0.1563059682931558
15.304384,4.4651094227914925,0.1558947719600587
15.306767999999998,4.599912999636207,0.1554338305441142
15.309163999999996,4.723451937822834,0.1550465824027637
15.311555999999996,4.832513431791458,0.15482943510587
15.313935999999998,4.92602654635544,0.154781652434772
15.316331999999996,5.011440605993007,0.154723065507415
15.321103999999998,5.15764479940693,0.1546643752662796
15.366507999999996,5.334150563981484,0.154553740510804
15.368896,5.31734804965084,0.1544805981259811
15.37128,5.299521821961799,0.1543802682068961
15.37368,5.282162124981582,0.1541948385773603
15.376067999999997,5.260705678709916,0.1540583468522745
15.380848,5.207457417210399,0.1539367634204347
15.383232,5.180413977580062,0.1539028091480628
15.385616,5.156675891308257,0.1538248902852332
15.388011999999996,5.135823849514403,0.1537363141165081
15.390395999999996,5.122234140743673,0.1535678701676233
15.392779999999997,5.112042333130094,0.1534019732572155
15.395176,5.108740771487301,0.153130203782649
15.397563999999996,5.110699442121213,0.1528222473369416
15.399947999999997,5.120759063539409,0.152360447858934
15.402344,5.131470311263663,0.15189993349084
15.404731999999996,5.146837386786809,0.1513424751130228
15.407115999999997,5.157129325630484,0.1509155836995906
15.409512,5.160344027048269,0.1506681028771572
15.411899999999996,5.161416858092776,0.1504807931580126
15.414283999999997,5.16435202025684,0.1502563455190334
15.41668,5.16994090947338,0.1499909553200899
15.419067999999996,5.178695382421592,0.1496992081608915
15.421451999999997,5.187402633541559,0.1494625950177374
15.423848,5.197924993952841,0.1492435012996209
15.426235999999996,5.217991327387386,0.1488874667444488
15.428619999999995,5.241735101232797,0.1485137834159634
15.431016,5.2682251499293,0.14814867214047
15.433403999999996,5.293736811237784,0.1478578920745261
15.435783999999998,5.3225538259048,0.1475337423827024
15.438179999999996,5.3492289701985385,0.1472646598122988
15.440568,5.379116920052192,0.1469236710086002
15.442951999999998,5.4132886106524,0.1464860788347597
15.445347999999996,5.450301019760187,0.1459571860157277
15.447736,5.48852413368147,0.1454026178199113
15.450116,5.5266074779758965,0.1448553729688219
15.452512,5.562129643016463,0.1443900820935942
15.454899999999997,5.602307635855922,0.1438454105941651
15.457284,5.643928650934358,0.1432893803909521
15.45968,5.687132457878628,0.1427230802222721
15.462067999999997,5.72870625112882,0.142221058942214
15.464447999999996,5.76371466363232,0.1418845015586891
15.466848,5.797791910576041,0.1415741931796827
15.469235999999997,5.835873359012597,0.1411874999753051
15.47162,5.876888073755348,0.1407463693322724
15.474016,5.906961119206236,0.140524952298343
15.476403999999995,5.935591142418148,0.140305536772394
15.478788000000002,5.960915812271527,0.1401213552448276
15.481184,5.987870495818987,0.1398775824028133
15.483571999999995,6.013382157127469,0.1396417208072376
15.485951999999996,6.040244292876311,0.139363459724306
15.495528,6.098244721689072,0.1392763761996839
15.497915999999996,6.114677044825248,0.13922950785441
15.500299999999996,6.1324598424017855,0.1391421694442828
15.502699999999995,6.148380308858766,0.1390833631176545
15.505088,6.1679328897562415,0.1389336037893732
15.507472,6.184691973974382,0.1388235775976161
15.509867999999996,6.205083172633019,0.1386232394824823
15.512256,6.2312483561054295,0.13828774658846
15.51464,6.251826546219169,0.1380324527007097
15.51704,6.2705424052133525,0.1378082393931092
15.519424,6.288746407528337,0.1375750811748002
15.521808,6.313515790590015,0.1372043046681579
15.524203999999996,6.341497979211606,0.1367733278615461
15.526592,6.369200628579478,0.136358157404248
15.528976,6.395552803506991,0.1359838085454112
15.531371999999998,6.41762123768795,0.135693263521148
15.533755999999997,6.441831542242188,0.1353650171190534
15.536139999999996,6.468043947542841,0.135001934845586
15.538536,6.494535892097215,0.1346214626658506
15.540923999999997,6.521027836651588,0.134240142512618
15.543307999999996,6.544586514899766,0.1339052396641503
15.545704,6.559857250908557,0.1337242395602378
15.548096,6.5772698572906245,0.1335042444137351
15.55048,6.594542694045832,0.1332928832793153
15.552875999999998,6.609394121174042,0.1331408912252814
15.555264,6.627178814608446,0.1329438136680577
15.557648,6.641610932856075,0.1328172316099852
15.574379999999998,6.720884608201141,0.1327733357781536
15.576768,6.734291117232505,0.1327522178024982
15.579152,6.752912532570203,0.1326426413802551
15.581551999999997,6.7689727686540415,0.1325958743897617
15.583939999999998,6.785033004737881,0.132549387925908
15.586323999999998,6.805888838247472,0.1324411965941541
15.588719999999997,6.829538168436399,0.1323005699161393
15.591111999999995,6.859845427170635,0.1320771832314724
15.593496000000002,6.8970901537039,0.1317554694288416
15.595892,6.9359176721030025,0.1314349942848053
15.598279999999995,6.97781822643516,0.1310718355252411
15.600663999999997,7.0207897159539545,0.1306924801951483
15.60306,7.067905176592443,0.130259106559776
15.605447999999996,7.119956004283544,0.1297646581732408
15.607831999999997,7.174940098280842,0.1292343485628529
15.610228,7.234347702651553,0.1286342039414413
15.61262,7.292544602208765,0.1280574161914874
15.614999999999997,7.349530796952479,0.1275099516560848
15.617399999999996,7.411452358748804,0.1269041240985493
15.619788,7.476167417224464,0.1262749103337336
15.622172,7.54260503719282,0.1256372333743732
15.624572,7.603687981227984,0.1250906963692538
15.626959999999997,7.66248928526301,0.1245893127971958
15.629343999999996,7.723432459671315,0.1240579372231875
15.631743999999998,7.7863777348260355,0.1235056519876126
15.634132,7.845179038861063,0.1230192760725115
15.636508,7.905191047709588,0.1225193144954105
15.638911999999998,7.961897703199578,0.1220467147291668
15.6413,8.014879696450455,0.1216169601406458
15.643679999999996,8.064556336342802,0.1212098763670812
15.646076,8.110648083622895,0.1208355187467196
15.648463999999995,8.15715913978357,0.1204461335603812
15.784639999999996,7.496659096350158,0.1201568162069999
15.787019999999998,7.488512819595497,0.1201518528369371
15.789415999999996,7.485534227318926,0.1201152307894627
15.791807999999996,7.486140527654608,0.1200507706340293
15.794187999999998,7.49205428209524,0.1199480703127283
15.796583999999996,7.4983401235882114,0.1198635048801651
15.798972,7.504858282506661,0.1198032982904308
15.801352,7.516591347731443,0.1196729594966348
15.803748,7.529115808889142,0.1195393102428246
15.806131999999998,7.544293997099314,0.1193870473025892
15.808515999999996,7.564779639414437,0.1191955296074346
15.810919999999996,7.586568534341674,0.1190151550510531
15.813308,7.61566698412028,0.1187695421076934
15.815692,7.647279391324501,0.1185130729876631
15.818087999999996,7.67940365520792,0.1182695215167336
15.820476,7.715252581330451,0.1179943725200552
15.822856000000002,7.748819867452845,0.117759025145944
15.825255999999996,7.785972046187491,0.1174981772390714
15.827644,7.818840484175585,0.1173005913118054
15.830024000000002,7.857295915522346,0.1170560577865409
15.832423999999996,7.894121333175032,0.1168546750104653
15.834812,7.936254204932665,0.1166229176687687
15.837196,7.978247307063439,0.1164004318968763
15.839599999999995,8.022894136246688,0.1161636876606021
15.841983999999997,8.068472130989715,0.1159241103925113
15.844364,8.115121060919382,0.1156716451646053
15.846759999999996,8.16591396196874,0.1153719229424128
15.849148,8.217358489324157,0.1150808723272867
15.851532,8.27266744854555,0.1147538225574377
15.853927999999996,8.327045242207161,0.114437676266643
15.856311999999996,8.378629539189436,0.1141446579601131
15.858691999999998,8.430493375425435,0.1138434971920295
15.861095999999996,8.481705585355375,0.1135399895483087
15.863484,8.529984528979119,0.1132654197775731
15.865863999999997,8.576261371856445,0.1130108971558633
15.86826,8.617323308427439,0.1128169597243103
15.870647999999996,8.660107806491132,0.1126157591809653
15.873027999999998,8.703543930860882,0.1124224911428523
15.875436,8.749913321536825,0.1122040295692565
15.87782,8.790276409973519,0.112046560966998
15.880204,8.827985771357739,0.1119034794410634
15.901696,9.023362331416283,0.111865987771524
15.904092,9.04724397903069,0.11183059665715
15.906479999999997,9.068052590712036,0.1118257415599898
15.908876,9.089420280900828,0.1118000533888989
15.911271999999997,9.112929841462892,0.1117509075490013
15.91366,9.140071516465454,0.111651056729604
15.916039999999995,9.173778572214708,0.1114768380285534
15.918436,9.207904936844542,0.1112887944784102
15.920823999999996,9.24273014960868,0.1110778318370644
15.923207999999995,9.273318843454504,0.110882995783257
15.925604,9.31033314842016,0.1106220592554182
15.927988,9.35163119413237,0.1103170975014587
15.930368,9.395210879844717,0.1099828696582796
15.932764,9.4417710536915,0.1095978430484277
15.935156,9.484746334926031,0.1092313195531561
15.937536,9.527069989854509,0.1088578671796042
15.939932,9.568230161797729,0.1084718701234209
15.942319999999995,9.611951512994803,0.1080493458913932
15.944716,9.64887516601971,0.1076798146476493
15.947111999999995,9.680211825685948,0.1073486360037336
15.9495,9.707823823113072,0.1070410803640788
15.951884,9.728777891994888,0.1067805280941454
15.954279999999995,9.748428708264589,0.1065102929937341
15.956668,9.762864618227956,0.1062901698947425
15.959047999999996,9.775857505952349,0.1060672016369555
15.992508,9.518521641558582,0.1058924191672624
15.994887999999996,9.491661401667606,0.1058768784648842
15.997284,9.466291405843853,0.1058352065541733
15.999671999999997,9.44120094927382,0.1057836321003276
16.002052,9.418252363077066,0.1057100350368898
16.004455999999998,9.401869157627,0.1055666381167442
16.006844,9.385625721803798,0.1054176442335892
16.009223999999996,9.37180369560759,0.1052367565127836
16.01162,9.36026330941152,0.1050288319344013
16.014007999999997,9.353798059894922,0.1047772052255268
16.016391999999996,9.35012630705766,0.104507312780372
16.018788,9.346454554220395,0.104237007175941
16.021175999999997,9.341991405450218,0.1039659573597274
16.023556,9.330451019254149,0.1037545248865968
16.025956,9.320121337871576,0.1035266974738335
16.028343999999997,9.311653987608562,0.1032865061598916
16.030724,9.300904997345407,0.1030731671337161
16.033119999999997,9.2895043807762,0.1028548157066148
16.035508,9.28411006644624,0.102588119040326
16.037887999999995,9.2782964432357,0.1023362046539863
16.040287999999997,9.276207482264276,0.1020625960472661
16.042676,9.271836881292712,0.1018146671247024
16.045055999999995,9.26732651069429,0.1015716101646515
16.047452,9.267891276775336,0.1012857569030548
16.049839999999996,9.268316273229525,0.1010054421349447
16.052223999999995,9.26338659375052,0.1007782131602865
16.05462,9.256315043898235,0.1005715926153741
16.057007999999996,9.24831232848618,0.100369983613552
16.059404,9.24138054826076,0.1001577130876218
16.061799999999998,9.234308998408476,0.0999509088773775
16.064188,9.228587922996551,0.0997228781949791
16.066572,9.220864746838211,0.0995096142258403
16.068967999999998,9.216586693665263,0.0992856654825039
16.071356,9.21724400754493,0.0990242715700005
16.073735999999997,9.216550846984235,0.0987836807930499
16.076132,9.217440478289374,0.0985427502205437
16.078519999999997,9.218050570340791,0.0983118856348643
16.080903999999997,9.216890879071276,0.0981175707974809
16.083304,9.209445346308788,0.0979806727106134
16.085692,9.203070748732934,0.0978330348653409
16.088071999999997,9.192412410410528,0.0977267509863565
16.090468,9.184827108021178,0.0975942688016742
16.092855999999998,9.178033201564748,0.0974617043284159
16.095239999999997,9.166955554361762,0.097370240980541
16.097636,9.155738137531916,0.0972837520070917
16.100023999999998,9.146662591075346,0.0971764731903211
16.102407999999997,9.140380541298113,0.0970539130289838
16.104804,9.13260824745366,0.0969569957389975
16.107191999999998,9.123485479168846,0.0968805938188088
16.109572,9.110358509391205,0.0968344953149026
16.111972,9.097743396292756,0.096798810429083
16.114359999999998,9.088341088754223,0.0967321674862728
16.11674,9.078287154909631,0.0966598446117696
16.11914,9.068884847371104,0.0965928850591411
16.121527999999998,9.06162441020585,0.0965055235908097
16.123908,9.05399188598826,0.0964020075765285
16.126308,9.048780771397665,0.0962678216996077
16.128695999999998,9.043197569754732,0.0961172564218664
16.131076,9.037102511432604,0.0959551886615699
16.133476,9.031147222737332,0.0957875447440118
16.135863999999998,9.025331703668924,0.0956140488287088
16.138244,9.0163033790406,0.0954707895664691
16.140644,9.00541272329272,0.0953370796840842
16.143031999999998,8.996384398664397,0.0951932371456705
16.145412,8.984283038103017,0.0950745678498677
16.147807999999998,8.966966771235306,0.0950019338012495
16.150196,8.946437698807678,0.09496033060401
16.15258,8.928841892686245,0.094898281076289
16.154984,8.911246086564812,0.094836106555921
16.157371999999995,8.892439575629883,0.0947901132161779
16.181252,8.726571294941174,0.0947509456150524
16.183647999999998,8.721822919343664,0.0947478794007474
16.186036,8.72587434266474,0.0946859975675204
16.18842,8.735233220090768,0.0946065619039968
16.190815999999998,8.748456529382766,0.0945039331476575
16.193208,8.767406601660296,0.0943681628519494
16.195591999999998,8.798089739162608,0.0941565048037304
16.197987999999995,8.837991984464084,0.0938750949022661
16.200372,8.879896330511976,0.0935821973776235
16.202756,8.924594173239205,0.0932768156884542
16.205155999999995,8.977020879698381,0.0929248613600348
16.207544,9.02823688134406,0.0925883910317654
16.209924,9.082386149295932,0.092237372493038
16.21232,9.135324712434304,0.0919004919782507
16.214708,9.184770930759042,0.0916018468594819
16.217092,9.240502990576749,0.091252172193249
16.219488,9.29409318002118,0.0909240700707154
16.221876,9.348894074279109,0.0905799893205943
16.224255999999997,9.400901471857706,0.0902509988515649
16.226656,9.45276909980944,0.0899297291985122
16.229043999999995,9.502774396641618,0.0896193918778725
16.231423999999997,9.554781794220212,0.0892996721064076
16.23382,9.60157428549248,0.0890253064033404
16.236211999999995,9.64264001377921,0.088781621559715
16.238591999999997,9.678630605386472,0.088574946026156
16.240992,9.714621196993727,0.088370840370316
16.243379999999995,9.746467817481294,0.0882012818466609
16.245764,9.768815790915976,0.0881073365568952
16.24816,9.78715956285782,0.0880391563871853
16.250547999999995,9.807505435546084,0.0879596761263784
16.252927999999997,9.82719968192829,0.0878760319417654
16.255324,9.85131743868391,0.0877549599576424
16.257711999999998,9.872362159506473,0.0876555304739464
16.260092,9.899413182568289,0.0875210821281939
16.262492,9.931818881563292,0.0873452453484583
16.264879999999998,9.961151544625247,0.0871915266912702
16.26726,9.98983258138114,0.0870324178314837
16.269659999999995,10.021726423696949,0.0868500675334723
16.272047999999998,10.056833071572674,0.0866447614038344
16.274428,10.0919397194484,0.0864406953436263
16.276823999999998,10.128117302510764,0.0862297149313101
16.279212,10.162153015199848,0.0860368823335484
16.281591999999996,10.196608036769511,0.0858312919403885
16.283988,10.235998425391791,0.0855999655933962
16.286375999999997,10.278601619573989,0.085345491708726
16.288759999999996,10.317340381890206,0.0851100016424287
16.291156,10.351563086034398,0.0848874209601276
16.293543999999997,10.388207199805583,0.0846391137841727
16.295924,10.42685341432319,0.0843797336922319
16.298324,10.460424492161325,0.0841518813622139
16.300711999999997,10.4909225340664,0.0839445521345338
16.303092,10.517136835224925,0.083769824050362
16.305487999999997,10.543490906010309,0.0835912887727954
16.307876,10.56318704825038,0.0834408868581223
16.310255999999995,10.57901875862448,0.0833083768693155
16.312655999999997,10.59405907306566,0.0831750864075409
16.315039999999996,10.610170322693484,0.083034665379604
16.317423999999995,10.626421341948165,0.0828915311058757
16.31982,10.640530490829567,0.0827641872208753
16.322207999999996,10.653056847845138,0.0826347669987977
16.324588,10.6697271759804,0.0824821431020492
16.326988,10.686025417063323,0.0823163422148424
16.329375999999996,10.698319456653415,0.0821706509945763
16.331759999999996,10.709961869937448,0.0820204699896784
16.334156,10.719602182475064,0.0818807964012738
16.336543999999996,10.732734839826316,0.0817119100899018
16.338927999999996,10.747869597923986,0.0815329465596856
16.341324,10.762212960088736,0.0813526714885464
16.343711999999996,10.777627257440129,0.0811661835424634
16.346092,10.793321094045234,0.0809708735774963
16.348492,10.809294469904064,0.0807674977363088
16.350879999999997,10.824476449829977,0.0805626067958596
16.35326,10.837935868263193,0.0803593864853069
16.355655999999996,10.853397387442822,0.080146157429338
16.358044,10.873002877742149,0.0799101046944595
16.360423999999995,10.88981487136214,0.0796820524277358
16.362823999999996,10.905835469049212,0.0794532714128523
16.365212,10.91370789412376,0.0792672696666104
16.367596,10.921208232145968,0.0790677416599619
16.369991999999996,10.92698600867548,0.0788693303731801
16.372383999999997,10.918237223300876,0.0787278847766203
16.374764,10.906415401993216,0.0786026798099107
16.377164,10.900088026245612,0.0784387504027072
16.379551999999997,10.887102721952695,0.07829721892347
16.381932,10.87653882728678,0.0781336920760006
16.384327999999996,10.861970731128029,0.0779887240543766
16.386719999999997,10.845540303849724,0.0778485934234872
16.3891,10.830460351011777,0.077692974107897
16.3915,10.809002008882237,0.0775505622978547
16.393887999999997,10.787171579700365,0.0773933326999827
16.396271999999996,10.76427021533185,0.0772424091487102
16.398671999999998,10.741927929470778,0.077074160385248
16.40106,10.715860981370591,0.0769151722528097
16.403444,10.689282176591208,0.0767454185600604
16.405839999999998,10.656045443266516,0.0765965230097737
16.408228,10.62467104106138,0.0764420173764986
16.410612,10.588501041430494,0.0763032926684842
16.413007999999998,10.556614782546164,0.076137108243474
16.415396,10.520165243661555,0.0760057723568914
16.41778,10.485578035896506,0.0758686313282281
16.420175999999998,10.45979062705004,0.0756952955352069
16.422564,10.434142987830436,0.0755168642324901
16.424948,10.404071838237416,0.0753692598697521
16.427343999999998,10.377585581256652,0.0752153347546846
16.429736,10.343090921290216,0.0750977674385505
16.432116,10.307245786883424,0.0749952439763551
16.434515999999995,10.270469486916854,0.0748946385443062
16.436904,10.230340611763507,0.074818133378673
16.439287999999998,10.195658960341971,0.0747303991098153
16.441683999999995,10.164282662278966,0.0746450130628701
16.444072,10.134117069029465,0.0745477090218816
16.446455999999998,10.104463332459156,0.0744602739737382
16.448856,10.082678229247657,0.0743398210936496
16.451243999999996,10.060473817155572,0.0742318132785201
16.453623999999998,10.042133836929466,0.0741092686735574
16.456024,10.02500456151686,0.0739752067735211
16.458411999999996,10.012670883530005,0.0738244110992283
16.460791999999998,10.002339306289562,0.0736644091960046
16.463192,9.999504275355592,0.0734575492297595
16.465579999999996,9.995738078861844,0.0732528653378736
16.467959999999998,9.992111651994954,0.0730438995502693
16.47036,9.988205685874345,0.0728430052304794
16.472747999999996,9.98658135975387,0.0726242341047814
16.475147999999997,9.98723867363354,0.0723880608485619
16.477544,9.992691584938957,0.0721349811617245
16.479935999999995,10.005361503297124,0.0718451426712696
16.482315999999997,10.020964687961484,0.0715439392592621
