Time,Force,Position
19.413768,5.1276091558650965,0.1705671094874008
19.416168,5.655120557126595,0.1689121363137005
19.418555999999995,6.193709605591078,0.16782696755074
19.420936,6.741980500847813,0.1670744487197771
19.423331999999995,7.300260003978764,0.1664201465379076
19.42572,7.863939509013281,0.165953197330642
19.428104,8.43339299886157,0.1653934528341134
19.430499999999995,9.014349132367034,0.1644038529069394
19.432888,9.595681144640572,0.163348303932638
19.435272,10.170965320420224,0.1621777952209573
19.437667999999995,10.73186839149623,0.1611107587356327
19.440056,11.268054988912407,0.1602474522721055
19.442436,11.79181725640098,0.1592532775573823
19.444835999999995,12.29821982690934,0.1582632093972465
19.447224,12.784376655959528,0.157289368262452
19.449604,13.247913555752795,0.1563378110503831
19.452003999999995,13.687387504050156,0.1553957075623554
19.454392,14.10107593935893,0.1544707681986957
19.456776,14.489630487985163,0.15355933388293
19.459171999999995,14.845042746943191,0.1527192335578805
19.46156,15.170618069591546,0.1519361754671215
19.46394,15.47524880264743,0.151137505686672
19.466336,15.76354355208149,0.150306649609517
19.468723999999995,16.03280136901301,0.1494775231129467
19.471108,16.28539644124075,0.1486483027738708
19.473504,16.518767589510844,0.1478403940440766
19.475891999999995,16.73272782236819,0.1470726746929507
19.478276,16.92788154429061,0.1463705890255658
19.480675999999995,17.10390199419613,0.1457451723181777
19.483064,17.268657805443564,0.1451379760877703
19.485448,17.420099655458245,0.1445760311280154
19.487848,17.56725966058425,0.1440107783303359
19.490236,17.707623863395952,0.1434538854580287
19.492619999999995,17.83718806240052,0.1429285127642447
19.495016,17.955812487971095,0.1424363882721635
19.497404,18.065871327906432,0.1419704222979173
19.499787999999995,18.16815597813945,0.1415267162228558
19.502184,18.26317829534934,0.1411079209415682
19.504576,18.34786524360306,0.1407324426539895
19.506955999999995,18.437022924058432,0.1403107384067876
19.509356,18.52464503447621,0.1398808552733687
19.511744,18.608077847803926,0.1394553481102567
19.514128,18.687972990347625,0.1390359600569242
19.516528,18.76311975729382,0.1386295682000331
19.518916,18.82965371677653,0.1382576898914697
19.5213,18.89358117103501,0.1378836438411115
19.523696,18.959046091188952,0.1374818899458688
19.526087999999994,19.01804007425269,0.1370982361583065
19.528472,19.078990832092465,0.1366778648532403
19.530868,19.133330883215176,0.1362772626224525
19.53326,19.18413326355388,0.135876471340916
19.535644,19.229535641989017,0.1354862258257235
19.538048,19.269490796692345,0.1351211032474753
19.540432,19.30814269878356,0.1347545901176081
19.542812,19.34800530568827,0.1343799787342871
19.54522,19.38414325035387,0.1340227753387242
19.547604,19.42000165576574,0.1336721746553819
19.549988,19.456139600431342,0.1333172029134399
19.552384,19.49749245140327,0.1329315406240049
19.554768,19.533118539389672,0.1325756750063398
19.557151999999995,19.567813461816293,0.1322258287732479
19.559548,19.59850418275008,0.131898678136642
19.561936,19.62402721920577,0.1315889967138409
19.564316,19.651320038982416,0.1312604485184833
19.566711999999995,19.679591246147076,0.1309138465276205
19.5691,19.704696869580054,0.1305730297703514
19.57148,19.723563873348315,0.1302555912752089
19.57388,19.745690904504738,0.1299050666797787
19.576263999999995,19.762510481556205,0.129573520691907
19.578648,19.784544964914005,0.1292132430311927
19.581044,19.81114272827208,0.1288229385605647
19.583431999999995,19.83802003088388,0.1284283901306133
19.585812,19.86573595125684,0.1280190178284097
19.588207999999995,19.892940014950597,0.1276062574352178
19.590596,19.9160473293529,0.1272023425532365
19.59298,19.941855592635925,0.126775771988924
19.595375999999995,19.962263854015383,0.126353747179412
19.597764,19.976992574237563,0.1259414950771176
19.600144,19.98403965255604,0.1255492700808627
19.602543999999995,19.98540718971722,0.1251661658928014
19.604928,19.97816191941492,0.1248058419313913
19.607312,19.96910153982131,0.1244375883186849
19.609708,19.955804641309385,0.1240788305063953
19.612096,19.937479827946238,0.123731194212909
19.61448,19.91664105715747,0.1233887463681974
19.616876,19.895290429689503,0.1230413597218651
19.619264,19.87328817591548,0.1226916266647662
19.621644,19.845279619902204,0.1223706824846315
19.624044,19.816898976836598,0.1220420122624499
19.626428,19.782279714106256,0.1217323075198714
19.628812,19.743144393203888,0.1214367657939094
19.631208,19.69949301412948,0.1211550225865654
19.633596,19.65132557688305,0.1208868682133396
19.63598,19.60078395183786,0.1206200849007702
19.63838,19.54824022604626,0.1203615571307018
19.640764,19.491180442082623,0.1201162976081645
19.643148,19.43970765147765,0.1198492065418054
19.645544,19.39088858792516,0.1195731276801046
19.647932,19.347656517731338,0.1192754156362509
19.650312,19.30894050570955,0.1189619940057011
19.652708,19.27595125667329,0.1186241550001291
19.655096,19.246966209129862,0.118266705449866
19.657476,19.222916528639047,0.1178860816627868
19.659876,19.19951847445429,0.11750624808303
19.662264,19.176120420269537,0.1171254623013871
19.664648,19.15244282683106,0.1167489761323366
19.667044,19.1319780389525,0.1163542014664959
19.669432,19.116588387753414,0.1159347670019815
19.671812,19.098637557300464,0.1155337456470554
19.674208,19.084830697967213,0.1151113705234019
19.6766,19.067671263447185,0.114707803534877
19.678984,19.0515827641138,0.1142969881324309
19.68138,19.03628566071332,0.1138841762667923
19.683768,19.022571349178683,0.1134693373478095
19.686148,19.010998908017324,0.1130415815753563
19.688548,19.00086948909494,0.112614099739392
19.690936,18.988877739053,0.1121929809803065
19.69332,18.977956924197706,0.1117654255649142
19.695716,18.965034008595985,0.1113467418914123
19.698104,18.95197132336741,0.1109301959229888
19.700488,18.93956026444489,0.1105155038391834
19.702884,18.921654759962315,0.1101313551684056
19.705272,18.900396680292967,0.1097661953643515
19.707652,18.87992999655653,0.1093998283516652
19.710052,18.85797306875288,0.1090459733747577
19.71244,18.83480543613573,0.1086993857477598
19.71482,18.806934753891447,0.1083826899456732
19.717216,18.77128798608698,0.1081100148511056
19.719604,18.73922611089476,0.1078270056988391
19.721988,18.701902107567964,0.1075842472982245
19.724384,18.670676954279035,0.1073276905794333
19.726772,18.64140667990828,0.1070772386196622
19.729156,18.617164320388756,0.1068190194793093
19.731552,18.59301450866785,0.1065731907267109
19.73394,18.570540036611398,0.1063391550275857
19.736324,18.550579521980552,0.1061011576396699
19.73872,18.53136318145438,0.1058780777156619
19.741108,18.51582428133909,0.1056588617701989
19.743488,18.49930699383577,0.1054576207324453
19.745892,18.48595529006413,0.1052553138846407
19.74828,18.474698234837515,0.1050576039983266
19.75066,18.469400260021917,0.1048502873406297
19.753056,18.47099253117709,0.1046310066780923
19.75544,18.47533107718337,0.1044189885159267
19.757819999999995,18.48483730766773,0.1041980844806487
19.760224,18.50258425856324,0.1039554035029137
19.762612,18.52656982912348,0.1036989178358401
19.764992,18.56172938640105,0.1034099221013253
19.767388,18.60098569297008,0.1031189426708358
19.769776,18.64904179845769,0.1027967202190417
19.772155999999995,18.69896023506486,0.1024709361093877
19.77456,18.75553660021734,0.1021261565783518
19.776948,18.809831325369675,0.101795737628894
19.779332,18.86799048238799,0.1014536355513347
19.781728,18.92922267533936,0.101100204823194
19.784112,18.99497092646276,0.100738885008157
19.786492,19.063000817586296,0.1003664172125091
19.788892,19.12916837759028,0.1000010467928438
19.79128,19.198129434273596,0.0996284951897018
19.793656,19.26494862058363,0.0992674825411392
19.796052,19.33004524540097,0.0989105068803666
19.79844,19.398634215031954,0.0985366785239354
19.800819999999995,19.461496421677406,0.0981813894583221
19.803216,19.52705957720357,0.0978089669376695
19.805603999999995,19.5927625023566,0.0974361084103163
19.807984,19.653530060457005,0.0970824328395641
19.8104,19.70964179075853,0.0967416241188114
19.812788,19.75658163508913,0.0964231191739152
19.815168,19.80342893162112,0.0960947642985783
19.817564,19.843618299607797,0.0957863785049721
19.819952,19.88022277498221,0.0954858222842135
19.822332,19.907096285878268,0.0952159725290189
19.824728,19.938533076774604,0.0949240660637051
19.827116,19.970389176551517,0.0946267869665878
19.829496,20.001733419649224,0.0943261843081639
19.831912,20.02777020864199,0.0940351322131898
19.8343,20.048871630582145,0.0937598443333365
19.83668,20.07053213102974,0.0934759514618457
19.839076,20.096755911477608,0.0931710726445519
19.841463999999995,20.124330166365837,0.0928577177739543
19.843848,20.1541860612542,0.0925342763576581
19.846244,20.177244257970397,0.092231084178007
19.848631999999995,20.205657130619784,0.0919068492497284
19.851016,20.23006580177634,0.0915967085512309
19.853412,20.25289168106706,0.0912868301963359
19.855799999999995,20.27613686923836,0.090970556605303
19.85818,20.3016636974098,0.090643653050181
19.860575999999995,20.332125892633847,0.0903024937611893
19.862964,20.355510850432005,0.0899846953612691
19.865344,20.379966743416805,0.0896626998148933
19.86774,20.4073559027078,0.0893335009728188
19.870128,20.438237406812423,0.0889868062180945
19.872508,20.462181443118027,0.0886612480485917
19.874904,20.47825684606482,0.0883578305140478
19.877292,20.489536651585865,0.0880664016381923
19.879676,20.49909389561421,0.0877762896012252
19.882072,20.514005815575743,0.0874658703231756
19.88446,20.525844699604228,0.0871658337736914
19.886855999999995,20.528092388781204,0.086888846379103
19.889252,20.526615415719068,0.0866189976274917
19.891639999999995,20.517269809298124,0.0863699012971208
19.894023999999995,20.505130706197846,0.0861254591928078
19.89642,20.48940671048532,0.0858859995252921
19.898807999999995,20.469026886973896,0.0856547584145766
19.901188,20.44999753790283,0.0854149713928745
19.903583999999995,20.42938539696593,0.0851738074560591
19.905972,20.40905279528276,0.084928026338324
19.908356,20.38713740173374,0.0846809865909536
19.910751999999995,20.368295044117783,0.0844238860967257
19.91314,20.35066339131532,0.084160486507783
19.91552,20.330657550714104,0.083895315260181
19.917919999999995,20.313724746045946,0.0836208856564103
19.920303999999994,20.29693171100464,0.0833435461634508
19.922688,20.28642451745631,0.0830450195165288
19.925084,20.280061295027675,0.0827333795030887
19.927468,20.276351799651515,0.0824190974777365
19.929852,20.266775771662964,0.0821185569568867
19.932248,20.25747928292813,0.0818131679441871
19.934636,20.253118161245915,0.0814951943012555
19.937016,20.25210961475047,0.0811635964282946
19.939412,20.26018040642733,0.0808072108807798
19.941804,20.2711844644104,0.0804433510504221
19.944199999999995,20.27911548646041,0.0800881391164904
19.946596,20.292261414816743,0.0797162945292992
19.948984,20.301263372053388,0.0793573054283049
19.951364,20.310916955596085,0.0790013832684947
19.953768,20.321361935071703,0.0786470343260461
19.956156,20.330596209733823,0.0782986099849746
19.95854,20.339039088463025,0.0779493685244382
19.960936,20.34482824013975,0.0776021100465852
19.963324,20.348335751816343,0.0772641093050546
19.965703999999995,20.3478390620001,0.0769364077052703
19.9681,20.35055517774378,0.0765979985879282
19.970488,20.34898755274089,0.0762737993347253
19.972871999999995,20.34420712217809,0.0759603137460749
19.975268,20.338775065309235,0.07564382024654
19.977656,20.337486979560072,0.075315358636094
19.980036,20.338200994557333,0.0749822587382006
19.982436,20.337844074367943,0.0746528368393703
19.984824,20.332551787125947,0.0743335422645466
19.987204,20.322603672085062,0.0740206854999072
19.9896,20.318010232977368,0.0736913966693424
19.991988,20.315418894616087,0.0733569738228845
19.994367999999994,20.307752419575337,0.073034439201057
19.996768,20.301156879721223,0.0727080712992442
19.999151999999995,20.291767843187777,0.0723845731001016
20.001535999999994,20.276652043668804,0.0720695651270087
20.003932,20.26260717933647,0.0717509410233345
20.006319999999995,20.25070418537741,0.0714256280249956
20.0087,20.241315148843967,0.0711011865755029
20.011104,20.233788443430075,0.0707742188998419
20.013492,20.22798429950888,0.070447260705351
20.015876,20.22082968114733,0.0701279844469715
20.018272,20.21488576759927,0.0698028227351658
20.020664,20.20894185405122,0.0694772986669438
20.023044,20.202718401249445,0.0691560838544436
20.02544,20.19407353882067,0.0688454614375777
20.027832,20.18435774120526,0.0685380329708212
20.030212,20.17357100840321,0.0682334667251529
20.032612,20.17037336970625,0.0679191892601991
20.035,20.168618753248268,0.0676095842916629
20.03738,20.162440626416867,0.0673149580885923
20.03978,20.159195765891663,0.0670156598098497
20.042168,20.163539999471546,0.0667073060605786
20.044548,20.16867562898435,0.0664002040092106
20.046948,20.180748726296176,0.0660811604252391
20.049336,20.19761742103376,0.0657556292004832
20.05172,20.216488216517757,0.065427035577886
20.054116,20.23093550162833,0.0651122930060536
20.056504,20.246593491552417,0.0647932556843657
20.058888,20.261599855170445,0.0644708798734925
20.061284,20.278748089161745,0.0641436872556765
20.063672,20.296827488712825,0.0638161740832143
20.066052,20.31676921938346,0.063487579933818
20.068452,20.33978398598715,0.0631531975944626
20.07084,20.361867587031067,0.0628196759058713
20.07322,20.386093058448253,0.0624809075096274
20.075616,20.410178760238587,0.0621446456071815
20.078004,20.43426446202892,0.0618084097360387
20.080383999999995,20.45234386158,0.0614830017700197
20.08278,20.46735022519802,0.0611636935816722
20.085168,20.47914378325613,0.0608521952408813
20.087551999999995,20.488795470940964,0.0605466263604995
20.089948,20.494582726759816,0.0602462202566596
20.09234,20.50130114813845,0.0599454797085297
20.094719999999995,20.50173372802412,0.0596588873138278
20.09712,20.50309747346956,0.0593722109632043
20.099508,20.499246312608665,0.059096362155827
20.101887999999995,20.50140145398703,0.0588111635396586
20.104284,20.49927285461884,0.0585362989455649
20.106672,20.496445407116347,0.0582715263055179
20.109055999999995,20.48453862144155,0.0580210129773919
20.111452,20.47277160539361,0.0577685036730785
20.11384,20.460725050091952,0.0575202050099901
20.11622,20.444115214790017,0.0572858845561482
20.118616,20.43136981135406,0.0570478054962871
20.121004,20.421417904597437,0.0568088828892623
20.123388,20.41118645858709,0.056573929633792
20.125784,20.405471070748767,0.0563392957272293
20.128172,20.40147824440315,0.0561056564650061
20.130556,20.398416583617305,0.0558712437233972
20.132952,20.39949889395116,0.0556289664576394
20.13534,20.40016189540444,0.0553928158965727
20.137719999999995,20.400405587977133,0.0551627849968633
20.14012,20.400229971669244,0.0549390704776667
20.142508,20.402196225734635,0.05471040325894
20.144887999999995,20.400670134986385,0.054492968439642
20.147288,20.403008476104112,0.0542720538534071
20.149676,20.401994242035062,0.0540604700629988
