Time,Force,Position
19.480668,2.0823213563211813,0.1795706597373154
19.483048,2.2605893207851944,0.1784957490677631
19.485451999999995,2.464085615588232,0.1772546751853518
19.487836,2.69835001226072,0.1756308636310346
19.490216,2.9582601522949434,0.1744334195799501
19.492612,3.249822337930153,0.1730025019481927
19.495,3.575690296218823,0.1716923140132333
19.49738,3.934001696041397,0.1706210185844177
19.499776,4.323825371838097,0.1697513192900313
19.502164,4.743858070996806,0.1691083425613636
19.504544,5.191306296838191,0.1687822813877598
19.506944,5.667055888951655,0.1684194239415734
19.509332,6.160631708754159,0.1682700144050341
19.511728,6.677435654007143,0.1681216829164313
19.514123999999995,7.216491233180449,0.1678137553927486
19.516512,7.773748918810874,0.1673223515422824
19.518896,8.347812910487681,0.1666958387336638
19.521291999999995,8.939708817427139,0.1657131123354383
19.52368,9.537890565859565,0.1646189693700744
19.52606,10.132721634963085,0.1636047073293352
19.528456,10.724576007647908,0.1625086439556942
19.530843999999995,11.303724615293534,0.1614089446344604
19.533224,11.862300720399029,0.1603604707683485
19.535628,12.396162247702565,0.1593657040841758
19.538016,12.903122000860492,0.1583518216855158
19.5404,13.377500438715526,0.157364644109601
19.542796,13.806261243430766,0.1565327735484468
19.545184,14.19340861649905,0.1557975004221221
19.547564,14.539594184226434,0.1551364996311167
19.54996,14.845329803292117,0.154547058590349
19.552347999999995,15.112849891867992,0.1540106393610842
19.554732,15.346715834096464,0.1535258588066855
19.557128,15.558985560426407,0.1530131219172369
19.55952,15.73997343234983,0.1525902395393044
19.5619,15.897453639569056,0.1522291220343921
19.564304,16.036174557681594,0.1519073604695749
19.566692,16.155949195232342,0.1516466699407475
19.569072,16.26036244483355,0.1514227534304456
19.571468,16.357282939844026,0.1511720588558177
19.573856,16.445779514703997,0.1508985468967714
19.576236,16.523151220532736,0.1506326938835619
19.578632,16.597638777741395,0.1503268773052153
19.581019999999995,16.66626169819553,0.1500161405220459
19.583404,16.728181364133984,0.1497207357791777
19.585795999999995,16.78591173298237,0.1494290465265088
19.588184,16.844992576271114,0.1491251968099803
19.590564,16.91166251366495,0.1487743570473823
19.592963999999995,16.980147560350094,0.1484295500133173
19.595348,17.05603470968522,0.1480598273413639
19.597732,17.13448114241634,0.1477099816556792
19.600128,17.217768498543585,0.1473610608150385
19.602516,17.304733295081697,0.1470084221005761
19.604912,17.390068077925736,0.1466805368949189
19.607308,17.48248009819566,0.1463037366580742
19.609696,17.574147944360902,0.1459149583304875
19.612075999999995,17.666841399742417,0.1454934504972482
19.614472,17.756184175795024,0.1450580680828062
19.61686,17.838591379906468,0.1446276352974666
19.61924,17.9115018328229,0.1442274922637349
19.621635999999995,17.974496225663728,0.1438630037278038
19.624024,18.033161551787632,0.1435031152177463
19.626404,18.08251522231375,0.1431956297973204
19.6288,18.130146331347174,0.1428963262817867
19.631188,18.17628719631338,0.1426150379716103
19.633572,18.2230324657574,0.1423521546023961
19.635968,18.266145620760923,0.1421231157248846
19.638355999999995,18.308280388376428,0.1419161017639816
19.640752,18.35334842229812,0.1416924179869617
19.643148,18.39669389472712,0.1414772705445227
19.645536,18.446092891223618,0.1412101655959363
19.647915999999995,18.49381654805566,0.1409346801150174
19.650312,18.540423943730683,0.140639843446072
19.6527,18.58633438712928,0.1403173031771054
19.65508,18.62339970563892,0.1400181962499749
19.657484,18.659488532618404,0.1396974573903798
19.659872,18.68603338657463,0.1394143354042257
19.662251999999995,18.70890080011998,0.1391351037725299
19.664652,18.726972616239586,0.1388817099031137
19.667036,18.74318210123963,0.1386377670810995
19.669416,18.76111414773237,0.1383874379187106
19.67182,18.779837590158035,0.1381358230153475
19.674208,18.798700802210558,0.13788099930578
19.676587999999995,18.81691238795701,0.1376252406726967
19.678984,18.83461211702428,0.1373655364682612
19.681372,18.84877417530754,0.1371053914483152
19.683755999999995,18.86526509541917,0.1368128897794959
19.686152,18.87970858881402,0.1365043052560624
19.68854,18.88982301549193,0.136197065725052
19.69092,18.890812778027176,0.1359150371875807
19.693316,18.880815545300177,0.1356674619903271
19.695704,18.867560181042887,0.135413098363344
19.698088,18.850767146001587,0.1351576747146334
19.700484,18.82945805278825,0.1349208288330914
19.702872,18.811920843642287,0.1346508317529307
19.705252,18.787074079644945,0.134411816827091
19.707648,18.763717559714824,0.1341565846347222
19.710035999999995,18.738358939038285,0.1339121471742463
19.71242,18.71262823130941,0.1336599200412699
19.714816,18.685594270968416,0.1334043378411339
19.717208,18.654463561335977,0.1331580434520235
19.719588,18.62324030390492,0.1328984650706979
19.721984,18.594345908302245,0.1326056295471577
19.724371999999995,18.56228592896789,0.1323175270454284
19.726755999999995,18.530273171461783,0.1320131090908118
19.729152,18.50268392432909,0.1316771268296828
19.731539999999995,18.47029907977065,0.1313641779319753
19.733936,18.43577236483893,0.1310642440319658
19.736332,18.398964009907072,0.1307800552784844
19.73872,18.37053614501321,0.130457331354951
19.7411,18.348346899784087,0.1301101034947502
19.7435,18.33132533903305,0.1297461908616016
19.745884,18.316258657200184,0.1293865593377958
19.748268,18.30198337130024,0.1290249925116105
19.750664,18.28421574058666,0.128689489301524
19.753052,18.271755563978022,0.1283344039247018
19.755436,18.260086783302317,0.1279777908928802
19.757832,18.24948893781324,0.1276136767972501
19.76022,18.24461785530969,0.127222508676755
19.762604,18.241097247246508,0.1268183715004994
19.765,18.244514106982347,0.1263772902073799
19.767388,18.24485793078513,0.1259534254408869
19.769768,18.24436313682676,0.1255468067719836
19.772164,18.25131766734661,0.1251090149298152
19.774552,18.25878405454566,0.1246759912347
19.776936,18.26196670099815,0.1242701147694791
19.77934,18.267803074503124,0.1238550142016195
19.781728,18.277503879874075,0.1234215075131338
19.784108,18.296144253790462,0.1229429925748249
19.786504,18.311851361400656,0.1224794979008205
19.788892,18.326627303451072,0.1220205735985275
19.791276,18.33660764807574,0.1215838751760836
19.793672,18.34407403527479,0.1211528320480321
19.79606,18.34888669542136,0.1207292808890826
19.798444,18.356260534821796,0.1202842106972118
19.80084,18.36177204310267,0.1198467567506508
19.803228,18.365141681010268,0.1194219623479541
19.805612,18.36622967891773,0.1190121093147279
19.808012,18.360380209026165,0.1186361190175
19.8104,18.35248141655993,0.1182855154179989
19.81278,18.344023545586264,0.1179466239099329
19.815176,18.33793986241135,0.1176046992826271
19.817564,18.33250780554249,0.1172648265553847
19.819944,18.32172107274045,0.1169569749830177
19.82234,18.31158596624446,0.1166511067863394
19.824728,18.303313190868025,0.1163377963963758
19.827112,18.29303831474517,0.1160338511637195
19.829508,18.28062156824905,0.1157422457976499
19.831896,18.261127584327028,0.1154859750922608
19.83428,18.24270453559165,0.1152230771476763
19.836676,18.22493311316233,0.1149620415937232
19.839068,18.2118175185319,0.1146838776674109
19.841448,18.20307821244664,0.1143942832485135
19.843848,18.200577526026112,0.1140864815064528
19.846236,18.19802961777734,0.1137946361922378
19.848616,18.20013753732746,0.1134867626279176
19.85102,18.206901284676476,0.1131627273856733
19.853407999999995,18.22046273019765,0.1128107818955077
19.855788,18.241613269823915,0.1124304994750931
19.858191999999995,18.26783894612965,0.1120263879866501
19.86058,18.294204392062248,0.1116211145951053
19.86296,18.32457403948769,0.1111992502561827
19.865359999999995,18.35787695321931,0.1107670612800491
19.867748,18.398257104376825,0.1103043611240453
19.870132,18.441430752213677,0.1098346060275465
19.872528,18.48818929266278,0.1093573468944097
19.874916,18.543328323149893,0.1088552243691692
19.8773,18.604985512555448,0.1083347370100072
19.879696,18.671018990506177,0.1078057283562792
19.882084,18.739147117001934,0.1072830243818431
19.884464,18.80992897055017,0.106756957183588
19.886864,18.87656685297872,0.1062521635391608
19.889252,18.94106286503398,0.1057606065820225
19.891632,19.009423308955224,0.1052596553258427
19.894028,19.079785853622884,0.1047525963206036
19.896415999999995,19.144933491984204,0.1042717794490695
19.8988,19.208079029599112,0.1038013371566191
19.901196,19.27015363202738,0.1033395639468068
19.903583999999995,19.33488196150812,0.1028767614695387
19.905968,19.40161239173528,0.1024097662904691
19.908364,19.4689944482685,0.1019477822988975
19.910751999999995,19.53530556961508,0.1014942522700496
19.913136,19.599754359842105,0.101048721613516
19.915532,19.66126988376293,0.100617242420135
19.917919999999995,19.718641436564067,0.1002049356311452
19.920304,19.775081823805422,0.0997978547642048
19.9227,19.826214756941827,0.0994036915471459
19.925092,19.87469396302576,0.0990174021376721
19.927472,19.924803182803764,0.0986191747167116
19.929868,19.978544517022275,0.0982024937981161
19.932255999999995,20.031634224934724,0.0977859351244549
19.934639999999995,20.089659299899782,0.0973544954441538
19.937036,20.15010578449184,0.096910921396721
19.939428,20.20268363572509,0.0964948443197486
19.941807999999995,20.25861406214512,0.0960659041148405
19.944208,20.3200389341252,0.0956134893897947
19.946596,20.38360567647856,0.0951540156345623
19.94898,20.446381022899,0.0946967608293602
19.951376,20.50063610965457,0.0942631547409551
19.953764,20.55102676454417,0.0938426438355621
19.956148,20.60169695868749,0.0934196882423752
19.958544,20.64957365615148,0.0930043456535264
19.960936,20.693865461003213,0.0925956379885574
19.96332,20.73121979805592,0.0922083535824625
19.965716,20.767410652123363,0.0918136877019892
19.968104,20.800016613578563,0.0914257633948951
19.970488,20.82926999984698,0.0910532235099706
19.9729,20.853867558316505,0.0906912920412942
19.975283999999995,20.873389980106563,0.0903470233932858
19.97766,20.883321207045118,0.0900274155340079
19.980056,20.886734275065216,0.089721285898294
19.98244,20.885771054540147,0.0894206431360266
19.98482,20.87787036621605,0.0891398508086677
19.987216,20.870528756399395,0.0888496800221425
19.9896,20.852385246917745,0.0885890201934232
19.99198,20.83144824075675,0.0883341044307981
19.994372,20.808137046797,0.0880778706662114
19.996759999999995,20.78110119059814,0.0878284790873535
19.99914,20.75355347772008,0.0875733369514812
20.001532,20.722420872229765,0.0873224909001986
20.00392,20.684630338194147,0.0870856989599783
20.0063,20.647259113039105,0.0868416197143917
20.008692,20.612960923817123,0.0865872157138137
20.01108,20.583226014595414,0.086311668066168
20.013459999999995,20.55442227093349,0.0860336697662623
20.015851999999995,20.52361642652514,0.085760514100281
20.018235999999995,20.49444059581087,0.0854737449370099
20.020616,20.46340243397704,0.0851892985003298
20.023012,20.431572876210296,0.0849035425710352
20.025396,20.40039494474961,0.0846194641448374
20.027776,20.374943776274453,0.0843225032005439
20.030168,20.35042377335908,0.0840234142495621
20.032556,20.33204984230981,0.0837049620843422
20.034935999999995,20.313536141633683,0.0833882617790185
20.037332,20.30009757763703,0.0830558493197806
20.03972,20.28223550326696,0.0827406550060625
20.0421,20.259810148896616,0.0824445960065343
20.044516,20.23831596008605,0.0821462917421503
20.0469,20.22026689426088,0.0818456874987176
20.04928,20.20300922436863,0.0815449171721215
20.051696,20.186822489663008,0.0812392182218326
20.05408,20.169285280517038,0.0809415095636863
20.05646,20.145601999504947,0.0806613112528671
20.058856,20.117215668865725,0.0804022798976947
20.06124,20.08761863341301,0.0801485730198852
20.06362,20.06388813057268,0.0798809251421096
20.066012,20.03866738366513,0.0796231531597952
20.068404,20.01903363011625,0.0793559813470292
20.070784,20.00019127250029,0.0790890096789079
20.07318,19.988286382683366,0.0788049879628086
20.075572,19.96795378100019,0.0785476687454684
20.077952,19.946410474503512,0.0782959038647171
20.080364,19.920443657633424,0.0780607786484978
20.082752,19.89205543113633,0.0778368122306057
20.085132,19.86324789575867,0.0776192122210418
20.087544,19.83458013000785,0.0773984972354407
20.089928,19.810707961682795,0.0771679979489076
20.092308,19.78841858522357,0.0769389587134478
20.094708,19.76412710801793,0.0767145899564933
20.097092,19.743700062678272,0.0764822390581564
20.099472,19.72951163700333,0.0762449315355285
20.101864,19.714903902447823,0.0760140037735395
20.104251999999995,19.705463852370396,0.0757813760984654
20.106632,19.705614997144465,0.0755312293593748
20.109044,19.71107359602349,0.0752780586708938
20.111432,19.71303985008888,0.0750404142072402
20.113812,19.72017378863236,0.074802093817049
20.116208,19.729681914974595,0.0745676581167936
20.118596,19.74556843060841,0.0743275566160815
20.120976,19.75782283180174,0.0741052203953809
20.123392,19.781950067846704,0.0738573517881737
20.125775999999995,19.80924288762334,0.0736140387606036
20.128156,19.843053866318428,0.073363051976783
20.130572,19.885664643932092,0.0730956308990418
20.13296,19.929718443784743,0.0728331140189914
20.13534,19.98080225923504,0.0725686131876077
20.137732,20.036402132857365,0.0723022109351149
20.14012,20.090511762412472,0.0720462143298251
20.1425,20.14899768051275,0.0717899459300832
20.144896,20.207576146411643,0.0715469747615931
20.147279999999995,20.26401274193726,0.0713119133970701
20.14966,20.325105165261764,0.0710722192871595
20.15206,20.38899108526561,0.0708302379210634
20.154444,20.446870703030203,0.070602421523977
20.156824,20.504750320794795,0.0703761734469296
20.15924,20.565283665611865,0.0701496586796073
20.161624,20.62595678005579,0.0699223474510852
20.164007999999995,20.68234615375317,0.0697086238788128
20.166404,20.729656189278234,0.069515190015998
20.168788,20.777105994430165,0.0693200573323146
20.171184,20.822413929208818,0.0691327339984711
20.173576,20.864788597681272,0.0689508202721948
20.175964,20.90329883428775,0.0687757233550326
20.178344,20.936454394961043,0.0686167677329969
20.180736,20.968539020447693,0.0684611509807942
20.183124,21.000903185188065,0.0683023580294577
20.185516,21.028331982875827,0.0681530155505388
20.187912,21.060696147616195,0.0679954948455939
20.1903,21.089707737169796,0.0678493645169231
20.19268,21.118998865977108,0.0676996290466973
20.195076,21.148010455530702,0.0675544154280811
20.19746,21.17809298027094,0.0674071556409341
20.199856,21.20645294351848,0.0672601186783581
20.202248,21.23667523788557,0.0671116186308996
20.204636,21.266617992998945,0.066967974050871
20.207016,21.29684028736604,0.0668208566815034
20.209412,21.32520025061358,0.0666759673724919
20.211796,21.353979522741696,0.0665251715323484
20.214175999999995,21.39262952897504,0.066358658766454
20.21658,21.433793492634,0.0661943581195525
20.218968,21.47174465073304,0.0660390621427987
20.221348,21.51356024069805,0.0658790334071132
20.223744,21.558029557715543,0.065719305283245
20.226132,21.60450097547945,0.0655564714287293
20.228516,21.65297449398977,0.0653905594831017
20.23092,21.69837497656704,0.0652317658201736
20.233304,21.74577755989073,0.0650700307297819
20.235684,21.7882447761618,0.0649165113721488
20.238088,21.833412941313597,0.0647500779540528
20.240476,21.8776499409056,0.0645850322542701
20.242856,21.922166479751336,0.0644165041329578
20.245252,21.95960578117118,0.0642611936657392
20.24764,21.99904718333744,0.064103231932692
20.25002,22.0396992903172,0.0639412574711437
20.252412,22.07569556949807,0.0637830355443543
20.2548,22.10913066942508,0.0636363211129015
20.257196,22.138421798232397,0.0634982117675198
20.259595999999995,22.16850432297263,0.0633617083364109
20.26198,22.19164937991384,0.0632362074389311
20.26436,22.21507397610876,0.0631073458876786
20.266756,22.23756740674391,0.0629791795522418
20.269144,22.25540500958017,0.0628544181520016
20.271524,22.26644491424425,0.0627380017188812
20.27392,22.27869552372184,0.0626174882845512
20.276308,22.289363341333587,0.0624945956929618
20.278692,22.297237662266003,0.0623735812136069
20.281096,22.303109882452,0.0622559067132351
20.28348,22.31126374263814,0.0621313484867845
20.28586,22.314202696517945,0.0620175071549618
20.288256,22.315139549651327,0.0619068259881244
20.290644,22.31514523722493,0.0617968308496714
20.293028,22.31822396073159,0.0616811552559123
20.295424,22.314504986066087,0.0615733365642815
20.297808,22.30850437140045,0.0614725067384068
20.300208,22.302224217481086,0.0613753577202527
20.302603999999995,22.293430106136103,0.061275931953366
20.304988,22.29013044035118,0.0611621620945795
20.307368,22.28697054419312,0.0610465988271028
20.309764,22.281156920982585,0.0609305376554046
20.312152,22.266683268480318,0.0608230676151485
20.314532,22.250487054485355,0.0607145579627155
20.316928,22.239505746796723,0.0605956859016233
20.319316,22.229735143921594,0.0604720944444732
20.3217,22.21223567731452,0.0603564424404941
20.324096,22.192594340334168,0.0602455234804845
20.326484,22.171882068167164,0.0601367869552479
20.32888,22.147305364134205,0.0600318146731843
20.331275999999995,22.11765352342176,0.0599349588248018
20.333659999999995,22.0901435530826,0.0598329713917398
20.336044,22.057698215690827,0.0597370551283398
20.33844,22.02138844643308,0.0596447902351043
20.340827999999995,21.98149378456308,0.0595522624128107
20.343208,21.9453237849322,0.0594574643693415
20.345612,21.907710763062337,0.0593575663278103
20.348,21.86851494932664,0.0592544337199242
20.35038,21.830669610031297,0.0591445937966783
20.352776,21.78546749405635,0.0590494632711711
20.355163999999995,21.735609550282508,0.0589563206318313
20.357544,21.688545103188,0.0588613951968244
20.359948,21.64427415277283,0.0587646434170214
20.362336,21.60386763422364,0.0586637780901058
20.364716,21.55009803675558,0.0585862050723768
20.367112,21.50033264078035,0.0585024843253417
20.369499999999995,21.45415213741738,0.0584185656008691
20.371884,21.408902799614182,0.0583338965866927
20.37428,21.366866267370906,0.0582416479709743
20.376664,21.32683183587405,0.0581461885834567
20.379048,21.290801605870023,0.0580447050634673
20.381452,21.25756487254533,0.0579417534096928
20.38384,21.233127938139223,0.0578287943618876
20.38622,21.211344730785594,0.0577162402645208
20.388616,21.19314641604421,0.0576037151076265
20.391003999999995,21.17508787092969,0.0574891452518095
20.393384,21.159683052867656,0.0573752023766546
20.395784,21.149073832231363,0.0572570852789646
20.398171999999995,21.136462510848656,0.0571414231767218
20.400552,21.127855390958786,0.0570199069573404
20.402952,21.1251148036813,0.0568920009372102
20.405336,21.125307482710006,0.0567610703879953
20.40772,21.13085483767191,0.0566183997473218
20.410124,21.133468926327616,0.0564788463102316
20.412512,21.152239590581523,0.0563154497364703
20.414891999999995,21.171801650768344,0.0561541524190852
20.417292,21.18964114946247,0.0559914290427194
20.41968,21.205618317037043,0.0558292683913519
20.422059999999995,21.22117617573103,0.0556732236445061
20.424456,21.239807070358072,0.0555123459389432
20.42684,21.257227260171614,0.0553558466525636
20.42922,21.268920686999632,0.0552033117449454
20.431628,21.27688945158853,0.0550523458096232
20.434012,21.28513775543116,0.0548974027885194
20.436395999999995,21.292454893714,0.0547428039579168
20.438792,21.298561327183343,0.0545924827737374
20.44118,21.29959262397321,0.0544494440477427
20.443563999999995,21.299552985576447,0.0543088018202954
20.44596,21.305891736471267,0.0541681387618424
20.448344,21.31744539367242,0.0540185790999707
20.450728,21.32136273494024,0.0538865363876452
20.453123999999995,21.32048447878232,0.0537578182816538
20.455512,21.31704504337053,0.0536396011444012
20.457896,21.315747478332028,0.0535168945794427
20.460291999999995,21.30644151030785,0.0534042204367434
20.46268,21.29126900967129,0.0532967709379015
20.46506,21.278890005714057,0.053188448749631
20.467464,21.273308699929,0.0530746592918532
