Time,Force,Position
21.104304,4.451877663265118,0.1734411739553837
21.106684,4.938795554522314,0.1732203202347201
21.109088,5.464769489888349,0.1726157146659436
21.111476,6.025423180818051,0.1719476631037988
21.113856,6.616287790967632,0.1712080345923184
21.116252,7.238249159926497,0.1701625476568307
21.11864,7.881111688365328,0.1691174624975702
21.121024,8.547204238112506,0.1678580752872707
21.12342,9.226378431666957,0.1666485036124395
21.125804,9.914444971938606,0.1653762077655991
21.128188,10.607913409971692,0.1640294420069069
21.130584,11.298730016810172,0.1627446234848803
21.132972,11.985219452789591,0.1615011478556446
21.135352,12.66347196007361,0.1602760522128288
21.137752,13.334048513027527,0.1589784782977404
21.140136,13.986428647097942,0.1576657911896995
21.14252,14.616098199970684,0.1563099634330483
21.144924,15.207414348584624,0.1550607042053244
21.147312,15.750413811035925,0.1539904486983727
21.149692,16.24179123396605,0.1530726729021331
21.152088,16.69099804259965,0.1521797086378915
21.154476,17.100640742160948,0.1513269345480101
21.15686,17.46559697414224,0.150565167552945
21.159256,17.789823718208105,0.1498707071465904
21.161644,18.07350606995578,0.1492492904118002
21.164024,18.325349384647367,0.148676719834104
21.16642,18.5539192479181,0.1481209556843764
21.168808,18.762613560925136,0.1475844739468684
21.171188,18.95254858482549,0.1470808653059075
21.173588,19.131965040030284,0.146564889135388
21.175972,19.3039359624726,0.1460193581860818
21.178372,19.46310667621924,0.145474898308009
21.180768,19.612457669404623,0.1449032654422954
21.183156,19.753711503521476,0.144297702974412
21.185536,19.876810453009444,0.1437304044831099
21.187932,19.984920101600213,0.1431893587720455
21.19032,20.079296480077662,0.142689429569907
21.192704,20.161382610680747,0.1422236644334918
21.1951,20.240582696805884,0.1417601737492666
21.197488,20.31913115662497,0.1412954410017084
21.199868,20.398191473123248,0.1408356012516332
21.202272,20.472688509621253,0.1404109766018225
21.20466,20.54914042503743,0.1399904420181778
21.20704,20.624334413811862,0.1395953011272925
21.20944,20.70818843187803,0.1391584628857352
21.211828,20.791530593264987,0.1387218879486068
21.214212,20.867889960882547,0.1382999062695426
21.216608,20.930516058386782,0.1379121351441468
21.218996,20.984251705031685,0.1375205784427656
21.221376,21.023090598578,0.1371574727419482
21.223776,21.039955501599845,0.1368603564856128
21.22616,21.04765041450863,0.1365623307110513
21.228544,21.03784017323673,0.1363240608583515
21.23094,21.01089686483649,0.1361509469966589
21.233324,20.980136346398517,0.1359817666726874
21.235708,20.94937582796054,0.1358119386262347
21.238104,20.918196000641988,0.1356491060110929
21.240492,20.895489211160054,0.1354616967925112
21.242872,20.874457761342576,0.1352825330399543
21.245268,20.858454226376324,0.1350898554344758
21.247656,20.84203138252949,0.1349046516553796
21.250036,20.82775040905594,0.1347063816631194
21.252432,20.813237118156916,0.1344992678015708
21.254824,20.800540832407066,0.1342591994665051
21.25722,20.77951127844745,0.1340399852149588
21.259616,20.74749472922561,0.133849878053871
21.262004,20.713011444406398,0.1336518218809071
21.264384,20.67736467660192,0.1334481285943617
21.266792,20.63934372099869,0.1332475452948162
21.269176,20.60132276539546,0.1330462704441996
21.27156,20.56832972464346,0.1328314493375254
21.273956,20.537151793182776,0.132622257886623
21.276344,20.51751993549177,0.1323728814976688
21.278724,20.510505086757075,0.1320771137947108
21.28112,20.507307448060114,0.1317775675839963
21.283508,20.50541306197527,0.1314807219241797
21.285888,20.50575309406232,0.1311826389395846
21.288284,20.50623289577623,0.1308825873294969
21.290672,20.509413646370856,0.1305601026601151
21.293056,20.507426712487398,0.130252354132322
21.295452,20.50669770524567,0.129921791115406
21.29784,20.50280311427228,0.129595568341132
21.30022,20.497745040313628,0.1292640476558343
21.302616,20.489102073742725,0.1289446521841603
21.305008,20.47766561049249,0.1286352261675194
21.307388,20.47195591022778,0.128300273575702
21.309784,20.468899937015543,0.1279568692079687
21.312172,20.472641661975487,0.1275830212910488
21.314552,20.476895243614617,0.127212523333206
21.316952,20.483290695627023,0.1268292155400088
21.31934,20.495180593199496,0.1264131707785529
21.32172,20.506698403719614,0.1259902667393219
21.324116,20.512396903455603,0.1255801684286997
21.326504,20.508132121287744,0.1252039452363806
21.328888,20.498699654641783,0.1248409606067622
21.331284,20.48437904277148,0.1244857549572079
21.333672,20.46451865937073,0.1241365285852678
21.336052,20.439630361118752,0.1237976274689895
21.338452,20.411157170254523,0.1234697070254415
21.34084,20.38347537532321,0.1231399166889753
21.343236,20.353232401138047,0.1228290462880546
21.34564,20.32471198844557,0.1225129539769036
21.348024,20.29563249724566,0.1222063355419611
21.350404,20.26678532347123,0.1219082209420671
21.3528,20.246737948615383,0.1215712885560107
21.355188,20.22934430081201,0.1212265867208171
21.357568,20.208086221142658,0.1208973964422505
21.359972,20.1831034792342,0.1205814646883713
21.36236,20.16040237732588,0.1202507473208305
21.36474,20.13812058429813,0.1199119029313121
21.367136,20.11053133716544,0.1195873203554044
21.369524,20.086806521898723,0.1192467735430609
21.371904,20.06252262812456,0.1189151889370714
21.374308,20.043685958082207,0.118565627038805
21.376692,20.025500914345912,0.1182166892950932
21.379072,20.013274951020623,0.1178545817351439
21.381476,20.008079003292984,0.1174735927103113
21.383864,20.006048639297017,0.1170892324986067
21.386248,20.003598966420466,0.1167118463828809
21.388644,20.00249976798428,0.1163232868138969
21.391032,20.00154033917495,0.1159315648560857
21.393412,20.004585111858457,0.1155227031424797
21.395816,20.008980358982324,0.1151031861447979
21.398204,20.012863749426987,0.1146788322118861
21.400588,20.010089211326346,0.1142792863052165
21.40298,20.003869550240307,0.1138871688624999
21.405372,20.001654090647108,0.1134774958454864
21.407752,19.999159091800184,0.1130725947080196
21.410152,19.99545338813976,0.112675668508839
21.41254,19.991980001904817,0.1122881635254189
21.41492,19.99111312089411,0.1119084066241308
21.417316,19.98754529100268,0.1115499695946353
21.419704,19.98770212335036,0.1111793948271941
21.422084,19.98757941644432,0.1108138628662233
21.424488,19.99318347252381,0.1104284082311325
21.426876,19.995714492670256,0.110056915787397
21.42926,19.998105743189832,0.1096887391147561
21.431656,20.001428159269185,0.1093179870560561
21.434044,20.007404302401017,0.1089410784687723
21.436424,20.01468369814496,0.108568597964443
21.43882,20.02848125280736,0.1081773111138744
21.441208,20.03892623228298,0.1078051309809983
21.443588,20.047601428437652,0.1074504414447733
21.445984,20.05730033795073,0.1071047079525232
21.448372,20.07067668787468,0.1067623965773678
21.450752,20.084797211903297,0.1064340345292126
21.453152,20.097147952610975,0.1061235032365236
21.45554,20.11187288111741,0.1058125795528429
21.45792,20.12883222779574,0.1055037345249509
21.460316,20.14937646708632,0.1051876421741952
21.462708,20.172853972683097,0.1048623503145378
21.465088,20.19619170865301,0.1045396715249848
21.467484,20.220181070928987,0.1042200915288994
21.469876,20.244822059511023,0.1039031671416132
21.472252,20.26503953771964,0.1036092277166279
21.474648,20.288330051861312,0.1033032684280032
21.477036,20.312272192309045,0.1030007476075921
21.479416,20.3357950238762,0.1027060279708206
21.48182,20.359178085816485,0.1024143139826652
21.484204,20.381210673316414,0.1021325937230624
21.486584,20.397097188950237,0.1018761115071278
21.488988,20.412704165330336,0.1016245352645587
21.491376,20.43217557357641,0.1013612103415772
21.493756,20.45299745626284,0.1010886563288132
21.496152,20.474238647829857,0.1008097860024436
21.49854,20.49697008346409,0.1005193592791776
21.50092,20.521703619844743,0.1002223030086415
21.503316,20.5435038899192,0.0999351074658293
21.505704,20.564512764060733,0.0996485717064094
21.5081,20.580586271149656,0.0993791243755432
21.510504,20.593726511932385,0.0991198752747967
21.512888,20.60980001902131,0.0988518641689912
21.515268,20.628015396483512,0.0985757077442229
21.517672,20.64851241394585,0.0982888764175749
21.52006,20.67115130178146,0.0979930254658603
21.52244,20.693790189617083,0.0976982123047237
21.524844,20.71498605521372,0.0974019066068755
21.527228,20.73846356081049,0.0970952094356961
21.529612,20.764082936780547,0.0967805667093759
21.532008,20.795056988683797,0.0964449044472575
21.534396,20.828964306893237,0.0961009767829825
21.536776,20.865153265102816,0.0957467505130912
21.539172,20.901481992939257,0.0953918498514614
21.541556,20.935668850402426,0.095046034247252
21.54394,20.96757406786545,0.0947118235741303
21.546336,21.002272782007807,0.0943727613628706
21.54872,21.035109165030608,0.0940385078131959
21.5511,21.072880915106023,0.0936904720773093
21.553496,21.11065266518144,0.0933431953031767
21.55588,21.15335978230946,0.0929823703542439
21.558264,21.19378525943735,0.0926324745123821
21.560656,21.22941513913949,0.0922952773601873
21.563044,21.25675707660224,0.0919875337375303
21.56544,21.28288830925149,0.0916873673158797
21.567836,21.31288397376672,0.0913784815178239
21.570224,21.341249624587864,0.0910833132581744
21.572608,21.36491222578188,0.0908112226730708
21.575004,21.385222251789116,0.0905543186075951
21.577388,21.403390407423075,0.0903063730142487
21.579772,21.41927692305689,0.0900699794134101
21.582168,21.434092503504075,0.0898380795147983
21.584556,21.44648667432425,0.089618934982993
21.586936,21.454876643651605,0.0894117309646735
21.589332,21.467270814471792,0.0891932320910293
21.59172,21.479944524545697,0.0889704371766935
21.594116,21.488753802753628,0.0887574900372883
21.596512,21.500356577640897,0.0885396278826895
21.5989,21.50716375510241,0.0883331028515142
21.60128,21.514110702190784,0.0881246826377308
21.603676,21.51519111666677,0.0879311408162502
21.606064,21.517761775209973,0.087727147189175
21.608444,21.527689210432783,0.0874987215821765
21.61084,21.54418202640229,0.0872449342490908
21.613228,21.557881345692454,0.0869964626793472
21.615608,21.565853901997095,0.0867607413842602
21.618008,21.571452270502984,0.0865234518526603
21.620392,21.581474149382288,0.0862685768512515
21.622776,21.591775567515302,0.0860094425822391
21.62518,21.600074884901904,0.0857557888842083
21.627568,21.60278720892984,0.0855119777958024
21.629948,21.604987676278576,0.0852634992353885
21.632352,21.609469783627443,0.0850056005906935
21.634736,21.61716469653624,0.0847366772552818
21.63712,21.623788674258385,0.0844721472175325
21.639516,21.633485687913584,0.0841991357126601
21.641904,21.643322471195653,0.0839241072321528
21.644284,21.648503426678825,0.0836569842236983
21.64668,21.65661764846819,0.083383330958672
21.649068,21.664592100630696,0.083112122243658
21.651448,21.67657075428604,0.0828307243523468
21.653848,21.6905515086878,0.0825446820842841
21.656236,21.697966882342868,0.0822829341381428
21.658616,21.70696504786377,0.082023315748951
21.661016,21.717965314131096,0.0817588156922022
21.6634,21.731898846704613,0.0814881698964396
21.66578,21.753561243010072,0.0812027078483058
21.668188,21.77815690562173,0.0809119618224532
21.670572,21.803823503420027,0.0806181591486676
21.672956,21.830421266778103,0.080322982458384
21.675352,21.86060392274843,0.0800242945530324
21.67774,21.893300536144373,0.0797264777870645
21.68012,21.92306388323412,0.0794352805176975
21.682516,21.95161652551037,0.0791503395640591
21.684904,21.97937777185369,0.0788653822946931
21.6873,22.003134816704197,0.0785903827763535
21.689696,22.028614423047387,0.0783153613084993
21.692084,22.05795846125656,0.0780334225510055
21.694464,22.086091794652223,0.0777575283476339
21.696868,22.113154192861256,0.0774852891241049
21.699256,22.13807472069701,0.0772201442774632
21.701636,22.16271570927904,0.0769598800525746
21.704032,22.18763623711479,0.0766954391629505
21.70642,22.20976326827121,0.0764355722745533
21.7088,22.231750529800767,0.0761782098411464
21.711196,22.252666856143687,0.0759246519561862
21.713588,22.26678548431444,0.0756841791991689
21.715968,22.275037579872794,0.0754550789448807
21.718364,22.28408107136408,0.0752272253285784
21.720752,22.29740830360191,0.0749873443076912
21.723136,22.31194624065324,0.0747427742897527
21.725532,22.324621846585018,0.074500976938173
21.727916,22.340090949196128,0.0742560964184116
21.7303,22.351555850314405,0.0740194253810119
21.732696,22.3638121473656,0.0737840934407645
21.73508,22.376580301095984,0.073553576290051
21.737464,22.390279620386156,0.073322612571515
21.739864,22.39983496855663,0.0731018970764133
21.742252,22.408459151167328,0.0728823520924616
21.744632,22.41787472971094,0.0726638469417723
21.747032,22.430223574560756,0.0724406205668385
21.74942,22.43749728273109,0.0722283610010543
21.7518,22.45021821463324,0.0720124131715208
21.754196,22.46144890246817,0.0718055036135414
21.756584,22.47347098623602,0.0715999107169974
21.758964,22.481488868511036,0.0714020701859307
21.761364,22.492160477838528,0.0712033926616306
21.763752,22.50813954127096,0.0710030495962113
21.766148,22.52491000063632,0.070804268052147
21.768544,22.53697741037454,0.0706234266479872
21.770932,22.54955667679196,0.0704479768645346
21.773312,22.564929439888715,0.0702702558655048
21.775708,22.581233368545245,0.0700921530438867
21.778096,22.60819942723992,0.0698988878278367
21.78048,22.63209245000154,0.0697124159464773
21.782876,22.663342249442763,0.0695090630870457
21.785264,22.692589948137577,0.069309980182639
21.787648,22.728495575377696,0.0691033943818047
21.790044,22.76733446892401,0.0688929143524578
21.792432,22.810317333590017,0.0686742535324304
21.794812,22.85115832788275,0.0684617579594877
21.797212,22.901870056280707,0.0682341372426093
21.799596,22.950859223185965,0.0680075043174919
21.80198,23.00185049083764,0.0677777548814775
21.804384,23.0525622192356,0.0675524496094997
21.806772,23.110863041738646,0.0673194639580557
21.809156,23.16688222424155,0.0670941291663499
21.81156,23.22197024118468,0.0668705842053865
21.813948,23.27412499182161,0.0666518352110007
21.816328,23.32856138245868,0.0664263325839354
21.818728,23.37927311085664,0.0662042931378512
21.821116,23.42476993294826,0.0659939922935887
21.823496,23.467985115039745,0.065791401149525
21.825892,23.504402598959064,0.0655987892303904
21.82828,23.545755449930997,0.0653993983872949
21.83066,23.57975152422331,0.0652169922923884
21.83306,23.61439922482169,0.0650379698586411
21.835444,23.64639319836759,0.0648599715464576
21.837828,23.679038798219555,0.06468572220876
21.840224,23.706469491765176,0.0645226874515318
21.842612,23.73590228605722,0.0643569408871525
21.844992,23.75718690773675,0.064206037667079
21.847388,23.776329659042982,0.0640604212997754
21.84978,23.79468101441631,0.0639138894684509
21.85216,23.814522613856848,0.0637599102159604
21.85456,23.83250188217784,0.0636077800335783
21.856948,23.85490466087224,0.0634445728239225
21.859328,23.8745139428873,0.0632834312928677
21.861724,23.895054390462143,0.0631218255960034
21.864112,23.91545506841013,0.0629623723230222
21.866496,23.941722278970506,0.0627962726050741
21.868892,23.971062525463932,0.0626249868401082
21.87128,24.000542541584224,0.0624521358093923
21.873664,24.02480765139818,0.0622890850633959
21.87606,24.044789020465583,0.0621357667159788
21.878448,24.06369945434635,0.0619847170476047
21.880828,24.079816391547773,0.0618353908398329
21.883232,24.093511919122207,0.0616944617786402
21.88562,24.099618352591552,0.0615596455553856
21.888,24.10507315975484,0.061421729054277
21.890396,24.105732369492376,0.0612882930763247
21.89278,24.10774205367027,0.0611488768995433
21.89516,24.10495614042241,0.0610136485508161
21.89756,24.102170227174547,0.060878478402988
21.899944,24.093098472433724,0.0607552319870935
21.902324,24.077089249893863,0.0606407358909046
21.904732,24.049998588435283,0.0605422178434288
21.907116,24.01811232955095,0.0604476457892884
21.909496,23.98157024286773,0.0603552399423952
21.9119,23.94051209801247,0.0602631926667548
21.914288,23.88571878718601,0.0601865740975699
21.916668,23.82561802225461,0.0601087847997323
21.919064,23.76193236471095,0.060030646310908
21.921452,23.701739051980937,0.0599416426196851
21.923832,23.638380155519247,0.0598468166852356
21.926228,23.57478894163208,0.0597429000842771
21.928616,23.51054610143885,0.0596353351658614
21.930996,23.442066742327317,0.0595240892614868
21.933396,23.37465831840241,0.0594099658647077
21.93578,23.30445639779818,0.0592964999108902
21.93818,23.232252376447526,0.059185157910379
21.940576,23.15539252729798,0.0590752983570864
21.94296,23.07974338296194,0.0589606296580907
21.945344,23.0011609723197,0.0588485161503037
21.94774,22.92593113686424,0.0587271718815743
21.950128,22.853262480662632,0.0585950172333151
21.952508,22.787810831513774,0.0584499728202935
21.954904,22.72436128311133,0.0583014598813157
21.957292,22.66784920250792,0.0581439030009686
21.959676,22.61012641709101,0.0579896891332799
21.962072,22.56041203465977,0.0578238964619071
21.96446,22.51041811297481,0.0576609429379507
21.966844,22.46307791834232,0.0574980976663119
21.969248,22.415597954082973,0.0573365679822211
21.971636,22.37063194724924,0.0571769343797751
21.97402,22.325246631534927,0.0570222817698796
21.976416,22.28107202063411,0.0568628751201176
21.978804,22.24341556865174,0.0567003648875576
21.981188,22.210694483721987,0.0565319137389318
21.983584,22.181418521777623,0.0563653012187869
21.985968,22.155215595766315,0.0561933012795978
21.988348,22.131386857553764,0.0560252590587781
21.990744,22.10914091120704,0.0558598526525937
21.993128,22.083170302621216,0.0556950537249882
21.995512,22.052124557355917,0.0555370551152581
21.997916,22.021450899142952,0.055385888457446
22.000304,21.991708406489764,0.0552341450976829
22.002684,21.965830345702557,0.0550788808530126
22.00508,21.93180411230281,0.0549352004730912
