Time,Force,Position
27.354464,15.833134698498723,0.139781077183949
27.356852,16.03986654915611,0.1394921654295868
27.359236,16.23975727152882,0.1391683272212313
27.36164,16.427452189683663,0.1388549880860231
27.364028,16.601088972501085,0.1385613036128297
27.366412,16.76131924628714,0.1382904311702156
27.368807999999994,16.912566521415247,0.1380049855997262
27.371196,17.05441148900482,0.1377104818691575
27.37358,17.184479961257114,0.1374125358076726
27.375975999999994,17.303283794851314,0.1371171663961019
27.378364,17.41310462978757,0.1368038786816516
27.380748,17.512080134946313,0.1364825840458564
27.383143999999994,17.606309160365424,0.1361269597704827
27.385535999999995,17.692858439738693,0.135754108812231
27.387916,17.770097959372052,0.1353836649878436
27.390316,17.839051432623894,0.135024856883001
27.392703999999995,17.902512356173546,0.1346626687874554
27.395084,17.960061421140434,0.1343067860759577
27.397479999999995,18.011558857897707,0.1339606359523102
27.399871999999995,18.06086909831132,0.1336011725139775
27.402252,18.09770209939548,0.1332943310345293
27.404652,18.13062534264329,0.1329799469934433
27.407039999999995,18.158428123241254,0.1326692156780576
27.40942,18.180179275629605,0.1323645923796988
27.411824,18.20053462760721,0.1320444025063933
27.414212,18.21283625062878,0.1317414723635486
27.416591999999994,18.217875540627222,0.1314553278127385
27.418988,18.21979646872224,0.1311592376660211
27.421375999999995,18.220973222712576,0.1308488639982178
27.423759999999994,18.216982292224827,0.130555388573993
27.426156,18.206473202818632,0.1302915315025287
27.428543999999995,18.189026645613403,0.1300657289739418
27.430924,18.167203799863007,0.1298551211805745
27.433319999999995,18.14603258041867,0.1296457637932807
27.435708,18.125792526534106,0.129431803989943
27.438088,18.10769434302282,0.1292034878658118
27.440484,18.09052732507132,0.1289707861013696
27.442872,18.07270868081376,0.1287362810763189
27.445256,18.054378179876995,0.1284972238422794
27.447652,18.031112311887615,0.1282840787043319
27.45004,18.01147855833874,0.1280407239292562
27.452424,17.993707135909418,0.1277889730318838
27.45482,17.971651972733547,0.1275647056827488
27.457212,17.953181702169925,0.1273264281607192
27.459592,17.93536305791236,0.1270895924083826
27.461991999999995,17.923131407013468,0.1268276497346395
27.46438,17.910852534286327,0.1265812998344625
27.466764,17.89759527417117,0.1263547451511323
27.469159999999995,17.885221957787547,0.1261402132062628
27.471552,17.874431433269763,0.1259228264825095
27.473932,17.86922790211065,0.125680850563897
27.476327999999995,17.871753234683478,0.1254004422152834
27.478716,17.879446251734397,0.125104931747807
27.481096,17.884997398412033,0.124823211584692
27.483492,17.890548545089676,0.1245415447087297
27.485879999999995,17.892886886207403,0.1242806212378448
27.488264,17.895364996951994,0.124017138591917
27.490663999999995,17.897423798816,0.1237622536122518
27.493047999999995,17.89505909030659,0.1235371887527727
27.495432,17.902425346275546,0.1232644950186184
27.497828,17.9090927541102,0.1230061845886746
27.500215999999995,17.914409687504495,0.1227608245613915
27.5026,17.922659887204983,0.1225004919350988
27.504999999999995,17.92862844690534,0.1222565068050256
27.507388,17.932966992911613,0.1220307691815178
27.509768,17.937677625970228,0.1218129838482178
27.512168,17.94439035977525,0.121584578421665
27.514556,17.953105194326696,0.1213456343353347
27.516936,17.96009746738545,0.1211117694418693
27.519332,17.970674633056454,0.1208658012939958
27.521719999999995,17.981112029100597,0.1206233680383889
27.524104,17.988616158838543,0.1203955649202787
27.5265,17.992535395964236,0.120180429959809
27.528887999999995,18.000598604209625,0.1199422552103361
27.531272,18.01038437394771,0.1196998614703496
27.533668,18.025245280365265,0.1194312258393744
27.53606,18.039826647529097,0.1191687252895036
27.538439999999994,18.055758489133293,0.118894495233384
27.540836,18.07876756816337,0.1185840237926951
27.543228,18.09604988420793,0.1182994172696643
27.545607999999994,18.112168717267227,0.1180078315664399
27.548004,18.12777569364733,0.1177117872024148
27.550391999999995,18.145384770773845,0.1174063891056013
27.552775999999994,18.1676968975275,0.1170681264758184
27.555176,18.19205834685581,0.1167045485788796
27.557559999999995,18.215256313198864,0.1163348229813983
27.559943999999994,18.236871487676087,0.1159666935874007
27.562344,18.260628532526585,0.1155873256680758
27.564732,18.286667217377214,0.1151936717500505
27.567116,18.312473584802376,0.1147913451171234
27.569512,18.335765994801918,0.1143942721840681
27.5719,18.3584067784954,0.1139951408651589
27.574284,18.373970324763,0.1136290623897535
27.57668,18.383667338418206,0.1132889304771413
27.579068,18.390570855394078,0.1129591015208705
27.581452,18.392678774944194,0.1126493399852856
27.583848,18.391993197814976,0.1123493509412717
27.586236,18.388234584752706,0.112064608504836
27.58862,18.380611539824457,0.1117962477757294
27.591016,18.37205732933644,0.1115309083511463
27.593408,18.367599868139862,0.1112601257781907
27.595788,18.361000536570018,0.1110009670325216
27.598188,18.353470039440385,0.1107452838073936
27.600576,18.34123649268362,0.1105215853277488
27.60296,18.327652471486505,0.1103091090176299
27.605356,18.31779311252849,0.1100840978487645
27.607744,18.30979608469004,0.1098526281481205
27.610128,18.298865790545392,0.109633403354664
27.612524,18.285514086773752,0.1094311517713642
27.614912,18.27053236930803,0.1092454183977585
27.617296,18.25699367408128,0.1090613671394239
27.619692,18.24582916665328,0.1088760520252949
27.62208,18.24947076038313,0.1086289427882393
27.624464,18.25963051303141,0.108360722276167
27.62686,18.27579656791896,0.1080672279834898
27.629248,18.291683083552776,0.1077788270899162
27.631632,18.31222542698549,0.1074757487399591
27.634028,18.336352663030457,0.1071635020372506
27.63642,18.358058489448425,0.1068675756869453
27.6388,18.38120733810537,0.1065738182287583
27.641196,18.40463572601604,0.1062760436973373
27.643588,18.43337156803165,0.1059664141798497
27.645968,18.462619266726456,0.1056625965073066
27.648368,18.494660462100605,0.1053502291042628
27.650756,18.526933974900228,0.1050484724173895
27.653136,18.554364668445857,0.1047803451316464
27.655536,18.581376053110905,0.1045206629428337
27.657924,18.610621855947848,0.104263576107106
27.660304,18.641729989904345,0.1040012860227224
27.662704,18.6747004549804,0.1037342080696891
27.665091999999994,18.710464416735796,0.1034597892917718
27.667476,18.74715954405096,0.1031837191017444
27.669872,18.77649789468652,0.102944528651175
27.672259999999994,18.80262343976217,0.1027221842142451
27.674644,18.82418570483753,0.102527231734263
27.67704,18.850264028084936,0.1023218229031442
27.679427999999994,18.876854208011533,0.1021224752035148
27.681812,18.906237884617468,0.101916272058429
27.684208,18.94442136014199,0.1016795851600827
27.6866,18.985677871599563,0.1014310407643285
27.68898,19.026515074176555,0.1011914504839465
27.691379999999995,19.06670065044749,0.1009508121610955
27.693768,19.106234600412368,0.1007084263146913
27.696148,19.146839485563884,0.1004619936996605
27.698547999999995,19.189865780342394,0.1002012769514148
27.700936,19.23452208881499,0.0999257199091766
27.70332,19.27917839728758,0.0996506312004308
27.705715999999995,19.320389582774784,0.0993810099924887
27.708108,19.36253193382176,0.0991100403458968
27.710491999999995,19.399738917816126,0.0988566832409695
27.712892,19.434012635504292,0.0986141513384514
27.71528,19.465353086886275,0.0983820213577049
27.717659999999995,19.496181681589054,0.098145139775391
27.72006,19.528500520359053,0.0978965424225369
27.722448,19.55937633689008,0.0976454536364371
27.724827999999995,19.587738195995485,0.0973975670129774
27.727228,19.61293447136922,0.0971501094215425
27.729616,19.632543753384283,0.0969175575780308
27.731995999999995,19.643772545361344,0.0967069473951344
27.734396,19.65006597028579,0.096513238357198
27.736784,19.65198310666507,0.0963263409490835
27.739163999999995,19.651246515991872,0.0961441928386454
27.741564,19.649578759758896,0.0959643758851357
27.743952,19.644326110913667,0.0957913600027629
27.746331999999995,19.636559504642825,0.0956204352088031
27.748732,19.62707033687928,0.0954514801829007
27.75112,19.62107351392937,0.0952639466190137
27.753504,19.61735833097961,0.0950646169185176
27.7559,19.609266859484663,0.0948715338795498
27.758288,19.60080330093739,0.0946704394250859
27.760672,19.588103223471805,0.0944727596797554
27.763068,19.576241763767385,0.0942603681961572
27.765456,19.565870548130174,0.0940360331205391
27.76784,19.548701634320807,0.0938313952308398
27.770236,19.53260365569807,0.0936218498428035
27.772628,19.510918683716664,0.0934248191549218
27.775008,19.48751115024256,0.093229247989368
27.777408,19.46359176008925,0.0930280449544015
27.779796,19.43874120437617,0.0928283609596929
27.78218,19.41580020161089,0.0926090549818351
27.78458,19.39099686772606,0.0923932892377506
27.786967999999995,19.36232910197525,0.0921879526824447
27.789352,19.333940875478163,0.0919773340268893
27.791751999999995,19.30396985711524,0.091765422554874
27.79414,19.2678527668862,0.0915753976109896
27.79652,19.231735676657166,0.0913847743886793
27.798924,19.185887621949767,0.0912221351470872
27.801308,19.13789769686909,0.0910680127212855
27.803688,19.08869706697492,0.0909202683834383
27.806084,19.04336086894672,0.090760887533116
27.808471999999995,19.003891203530905,0.090583252155247
27.810852,18.96465385554057,0.0904153018304601
27.813256,18.920713457923096,0.0902722856671887
27.815644,18.883710528104658,0.0901067909350419
27.818024,18.844565727912936,0.0899498262963788
27.82042,18.812078856266528,0.0897753961876263
27.822807999999995,18.778893136485816,0.0896127639259332
27.825188,18.74822137413072,0.0894484324798391
27.827583999999995,18.72034310845496,0.0892774551218941
27.829972,18.689624124271617,0.0891273525760273
27.832352,18.66169863676761,0.0889705702375184
27.834751999999995,18.637358041875864,0.0888076332606987
27.83714,18.609385332543617,0.0886653067876799
27.83952,18.583647041383266,0.0885264088682467
27.841916,18.56763971470128,0.0883594044861549
27.844304,18.553075410258263,0.0881956480179736
27.846684,18.54768299178617,0.088013953635511
27.849084,18.54401313480678,0.0878306400025742
27.851468,18.544067940066498,0.087639047171028
27.853852,18.544634602005413,0.0874532136529274
27.856248,18.5404982143172,0.0872926838202013
27.858636,18.53035552438973,0.0871511018558842
27.86102,18.523146100768454,0.0870007536077787
27.863416,18.513655037147046,0.0868618608832654
27.865804,18.50388443427191,0.0867276116817231
27.868184,18.49476545770284,0.086596555559167
27.870584,18.488859286693685,0.0864519720689711
27.872968,18.48267357643081,0.0863124103224004
27.875352,18.48007275878019,0.0861678189245291
27.877748,18.481987999301595,0.0860161237702338
27.880136,18.48827952836817,0.0858600951151797
27.882515999999995,18.498435489300725,0.0856943984642632
27.884916,18.51380635653961,0.0855092313953774
27.887304,18.53117932452491,0.0853180783997373
27.889683999999995,18.54519971732343,0.0851430304327065
27.892084,18.55828894456218,0.0849699209056193
27.894472,18.569376071054517,0.0848035502694785
27.896852,18.579392262360205,0.0846415638949626
27.899248,18.592341719972097,0.084472199438597
27.901636,18.601938602397205,0.0843180925123286
27.90402,18.620475053367763,0.0841384770939227
27.906416,18.64981340400332,0.0839295463602158
27.908804,18.68301618650485,0.0837117175344706
27.911188,18.71887269605886,0.0834915977063436
27.913584,18.7604559685984,0.0832588124967699
27.915972,18.802039241137937,0.0830272103245727
27.918352,18.84506553591645,0.082800235178185
27.920752,18.890093931441385,0.0825682149835242
27.92314,18.93218906066012,0.0823446976166971
27.92552,18.9724218587593,0.0821251376277243
27.927916,19.010932095365774,0.0819075669603038
27.930304,19.047300461598983,0.0816991779105425
27.932683999999995,19.08338928857847,0.0814963214887572
27.935084,19.11933834593109,0.0812965287035639
27.937468,19.15770881291072,0.081084711423238
27.939851999999995,19.19901254619653,0.0808662694404149
27.942248,19.239385113922573,0.080649969953163
27.944636,19.28068884720839,0.0804323326225607
27.947016,19.31905931418801,0.0802228110968147
27.949416,19.36413493154118,0.0799857876891694
27.951804,19.401621454789268,0.0797647477975767
27.954184,19.432450049492047,0.0795577276997686
27.956584,19.459553981955715,0.0793574400426521
27.958968,19.487077223299963,0.0791510513908133
27.961352,19.51529931277851,0.0789343053012819
27.963747999999995,19.53858603520444,0.0787297259690448
27.966131999999995,19.559498569831625,0.0785229963672953
27.968516,19.579479938899027,0.078318372475343
27.970912,19.59974084722015,0.0781094416144864
27.973299999999995,19.62042106442185,0.0778938702902992
27.97568,19.639378720130857,0.0776791925454012
27.978075999999994,19.657544979906945,0.0774640046103426
27.980464,19.6729177430037,0.0772531293940429
27.982859999999995,19.6876388797944,0.0770394353862816
27.985256,19.69928698065204,0.0768348881885659
27.987644,19.707210419270567,0.0766360394796017
27.990024,19.71476177083676,0.0764295484985052
27.99242,19.722592661656662,0.0762186833162469
27.994812,19.7294923869168,0.0760092456016334
27.997192,19.72796440031068,0.0758265812989356
27.999588,19.72550524814479,0.0756449046268625
28.001976,19.72490842709845,0.0754605021731498
28.00436,19.725382541238755,0.075272537394877
28.006756,19.72064174907272,0.0751002054420254
28.009144,19.711756985787,0.0749400600673707
28.011528,19.706364567314907,0.0747645345240985
28.013924,19.70111191846968,0.0745866494677199
28.016312,19.69255391626591,0.0744068936940259
28.018691999999994,19.68306474850237,0.074228332236523
28.021088,19.67585722073897,0.0740407179635677
28.02348,19.671722728908623,0.0738451016519429
28.025859999999994,19.66600544521244,0.0736472975312106
28.028256,19.66457190226281,0.0734357987090741
28.030643999999995,19.66234696338025,0.0732232808069674
28.033027999999995,19.66147249893807,0.0730028957313791
28.035424,19.663950609682654,0.0727701397240598
28.037811999999995,19.66722011636016,0.0725386193737097
28.040195999999995,19.668906831171828,0.0723049055613777
28.042592,19.669150523744523,0.0720664792774284
28.044979999999995,19.67302633075771,0.0718108109407986
28.047363999999995,19.67904400814418,0.0715481611898669
28.04976,19.68454982885145,0.0712800412592682
28.052147999999995,19.687401922506243,0.0710128452762255
28.054528,19.69081309466848,0.070736074408989
28.056923999999995,19.69236193571116,0.0704611702768155
28.059312,19.69405054638069,0.0701843439965476
28.061696,19.694807991490453,0.0699084345020398
28.064091999999995,19.69635683253313,0.0696333338396572
28.06648,19.696183112083112,0.0693577681633868
28.068864,19.691213794207336,0.0690896984511053
28.071259999999995,19.67744467741299,0.0688369724811963
28.073648,19.66088206393929,0.0685864865573413
28.076032,19.64273665859977,0.0683336903509593
28.078427999999995,19.62193752620777,0.0680809754105673
28.080816,19.59527186120337,0.0678377956305168
28.083196,19.563670829146368,0.0676033545382352
28.085595999999995,19.52862467410397,0.0673675121971992
28.087984,19.49171618794201,0.0671326142243163
28.09038,19.453876536220285,0.0668976020995794
28.092776,19.4107294303936,0.0666623116572579
28.095168,19.36241464008884,0.0664243572034719
28.097548,19.310654726798667,0.0661842122582811
28.099948,19.254658294590197,0.065939939571326
28.102336,19.196986522717264,0.0656782386868909
28.10472,19.13428683599311,0.0654105698606505
28.107116,19.06227549367117,0.0651493277769804
28.109508,18.984025531684505,0.0648872587750186
28.111892,18.89553274854028,0.0646319034366841
28.114287999999995,18.80108088498504,0.0643703534439552
28.116676,18.69424432989896,0.0641211788861469
28.11906,18.58531312626785,0.0638597543432363
28.121455999999995,18.475078670024622,0.0635874849541649
28.123844,18.35138858706392,0.0633303331592287
28.126224,18.225324316304462,0.0630650262149812
28.12862,18.09581492255961,0.0627948903306889
28.131007999999994,17.96178947064273,0.0625230580894208
