Time,Force,Position
30.702856,4.272340047775172,0.195551383657209
30.70524,4.66402984640717,0.1918201216945858
30.707624,5.06652154470417,0.1878326365163686
30.71002,5.469479773709994,0.1845001892332252
30.712408,5.876444100066521,0.1811307486156844
30.714792,6.275915671832316,0.178318429845386
30.717188,6.666917997477228,0.1757530232286291
30.719576,7.04349199659025,0.1735643787561724
30.72196,7.407547222119179,0.1714203579057532
30.724356,7.754707385518846,0.1694227047582112
30.726744,8.083901551602613,0.1676112250581637
30.729124,8.394338324437562,0.1658749074410931
30.73152,8.680243719209917,0.1644264104687669
30.733908,8.94827566446499,0.1631184700001927
30.736292,9.196292289829502,0.161932931497276
30.738688,9.420801250489816,0.1609427870049
30.741076,9.626598143871686,0.1600762298948268
30.743456,9.820108581094942,0.159171358283275
30.745856,9.99118228880064,0.1583735721489875
30.748244,10.14075043254856,0.1576657949593205
30.750628,10.272165587525471,0.1569897667891534
30.753024,10.38109679115658,0.1564248034684287
30.755412,10.476436390159094,0.1558882191556042
30.757792,10.561349968264675,0.15535022982628
30.760192,10.631786102152258,0.1548863894473654
30.76258,10.69407595928518,0.1544568635616598
30.76496,10.746030447461925,0.1541146240786953
30.76736,10.79295702078744,0.1538128047036857
30.769748,10.837090097433618,0.1535431841159574
30.772128,10.878429677400463,0.153303219310766
30.774524,10.917115530314836,0.1530886054419785
30.776912,10.958642101736784,0.1528229673478575
30.779296,10.99849333349428,0.152543095087332
30.781696,11.03159408890785,0.1523120318721035
30.784084,11.061576482417989,0.1520705373283047
30.786464,11.08830074439784,0.1518223290648537
30.788864,11.104689637421512,0.1516513774757696
30.791248,11.115771076340234,0.1515251014226422
30.793632,11.13048462969945,0.1513431375751371
30.796028,11.14612934861845,0.1511525495345154
30.798416,11.159864514589648,0.1510064133325972
30.8008,11.184913436905047,0.1507538608282282
30.803196,11.206330244779949,0.1505583640984708
30.805584,11.225605182281576,0.1503910667328419
30.807968,11.248744551649173,0.1501866075917494
30.810364,11.273094625830268,0.1499658221535471
30.812752,11.303590771877474,0.1496772334574864
30.815136,11.333155752364902,0.1493976108825932
30.817532,11.36327981135977,0.1491011118186709
30.81992,11.394614575168138,0.1487879241992738
30.8223,11.42702027416315,0.1484640782139333
30.8247,11.457795959464075,0.1481754460094063
30.827088,11.497603761109064,0.1478211116984225
30.829468,11.540716916112588,0.1474502146878202
30.831868,11.58964938190026,0.1470515158049158
30.834252,11.645751632912434,0.1466030590651878
30.836636,11.709023669149117,0.1461017144538653
30.839036,11.774809662811416,0.145590508507565
30.841424,11.84082797389919,0.1451001041932488
30.843808,11.912852587226215,0.1445574466375931
30.846204,11.983946034993462,0.1440212062115778
30.848596,12.045028979028624,0.143588244210622
30.850976,12.105040987877148,0.1431660473524522
30.853376,12.165145544524286,0.1427639542795711
30.855764,12.22240938266385,0.1424109200437632
30.858148,12.278694833415392,0.1420916792254787
30.860548,12.332558874539938,0.1418089425996506
30.862936,12.388145477157176,0.1415171204626513
30.86532,12.443033231640118,0.1412499351188084
30.867716,12.501366109108451,0.1409666955621536
30.870108,12.558348512136424,0.1407056500222602
30.872488,12.612397648858202,0.1404705909319464
30.874888,12.657646986661392,0.1403149932404811
30.87728,12.700102827785251,0.1401806879226006
30.87966,12.737623301856496,0.1400911451578268
30.88206,12.771279344061767,0.140035150487452
30.884448,12.802793515893764,0.1400020169557269
30.886832,12.833236752539118,0.1399808150811449
30.889232,12.864099298065057,0.1399481595953145
30.89162,12.892540433963996,0.1399472735380249
30.894004,12.925916936915549,0.1399059894018538
30.8964,12.96543951173321,0.1398097083103053
30.898788,13.012179093603622,0.1396493770468097
30.901172,13.065763595474449,0.1394172642428187
30.903568,13.123259751039487,0.1391360631507677
30.905956,13.179732193246132,0.1388439516263301
30.90834,13.237415340266274,0.1385400454339855
30.910736,13.29351569542058,0.1382417286971394
30.913128,13.350966525015243,0.1379275539526554
30.915508,13.402830361251244,0.137652397713003
30.917904,13.456836067860516,0.1373589444737901
30.920296,13.514845975962622,0.1370342464184563
30.922676,13.576999855184424,0.1366747667674298
30.925076,13.64208700071242,0.136294073289845
30.927464,13.71238905254675,0.1358710288539744
30.929848,13.78148039956758,0.1354626066279355
30.932248,13.852993156215408,0.1350297204329473
30.934636,13.9229231209974,0.1346029223842299
30.93702,13.987917718726775,0.1342147674594522
30.939416,14.045462991977928,0.1338741555585654
30.941808,14.10342757410966,0.1335269923114778
30.944188,14.158598659562058,0.1332004605243076
30.94658,14.20604088128251,0.1329299359926579
30.948968,14.245614469644153,0.1327192573840275
30.951348000000003,14.27839035983363,0.1325564965276525
30.95374,14.312376954836605,0.132381618428717
30.956128,14.342266800548126,0.1322206406524162
30.958508,14.376580156633064,0.132020785949675
30.960912,14.40679676342655,0.1318346037558017
30.9633,14.442647585406949,0.1315970541423513
30.96568,14.475612362909398,0.1313608013706586
30.968076,14.506762031120534,0.1311170681977487
30.970464,14.53288378448044,0.1308917172394149
30.972844,14.555048558175752,0.1306752980602028
30.975244,14.568181215527003,0.1305051706034979
30.977632,14.58164063396022,0.130308176717375
30.980012,14.587930267168932,0.1301461761455506
30.982408,14.593987582952163,0.1299717145518326
30.984796000000003,14.60037165981736,0.1297698539665085
30.987176,14.610807160003633,0.1295195574779835
30.98958,14.612490083099562,0.1293074328039736
30.991964000000003,14.610775105038345,0.1290890183977462
30.994344,14.610318053618863,0.1288380951007648
30.996740000000003,14.60497285697502,0.1285995784683602
30.999128,14.602608148465611,0.1283215878887678
31.001508,14.596146690664751,0.1280551213409701
31.0039,14.588242210624918,0.1277876958133759
31.006288,14.569583052748325,0.1275712907253372
31.008668,14.548689476699836,0.1273553282575497
31.011072,14.51461981318759,0.1272149457360197
31.01346,14.478036192249728,0.127082042157671
31.01584,14.437867678699616,0.1269651484374374
31.018236,14.397327078097163,0.1268381520190823
31.020624,14.35641439044238,0.1267009990853612
31.023004,14.31219634942906,0.1265735333142832
31.0254,14.263741789497429,0.1264598764474125
31.027788,14.218127948073375,0.1263092589487928
31.030168,14.167206652544374,0.1261816139944258
31.032564,14.114562795522676,0.1260594772708824
31.034952,14.058473815515582,0.1259490950998136
31.037348,14.004526705881768,0.1258200832785086
31.039752,13.949089352180732,0.1257100984348416
31.04214,13.891789667360143,0.1256088080809579
31.04452,13.834629752166412,0.125503955221781
31.046916000000003,13.77360540510671,0.125422103330589
31.049304,13.713931532487369,0.1253223199144795
31.051688,13.652395328748463,0.1252324074683311
31.054084000000003,13.594583787248672,0.1251210032677782
31.056472,13.53570131056225,0.1250180483852976
31.058852,13.486037941674988,0.1248438489242111
31.061248,13.432370371294896,0.1246978890570076
31.063636,13.376560930541524,0.1245695612594721
31.066016,13.316327979414735,0.1244818986584705
31.068412,13.256746654594007,0.1243952098295416
31.0708,13.208618855744342,0.1242348407193317
31.07318,13.163656640626346,0.1240673766399583
31.075576,13.117995577374051,0.1239179210527422
31.077964,13.075639867480287,0.1237580866595469
31.080344,13.03565834538528,0.1235928214963779
31.082752,12.993907039969333,0.123455753094395
31.085136,12.95238805197886,0.123332173985823
31.08752,12.911660459921308,0.1232067181482456
31.089916,12.870373789356313,0.1230962960523888
31.092304,12.83746760882932,0.1229362220691265
31.094684,12.80400234979489,0.1227914435234559
31.097088,12.76783614187974,0.1226806832225287
31.099476000000003,12.734975287323127,0.122559714666141
31.101856,12.70621118205796,0.1224268495482604
31.104252,12.683965235711248,0.122255371775741
31.10664,12.65994950604359,0.1221124969294052
31.10902,12.64417449678708,0.1219248058057667
31.111424,12.635848812008796,0.1216939320464274
31.113812000000003,12.637254091708876,0.1213970305223473
31.116192,12.638891688834434,0.121114454262065
31.118596,12.629308077414402,0.1209183832394397
31.120980000000003,12.619305157113796,0.1207341023402634
31.12336,12.611816194238804,0.120541753563547
31.125756000000003,12.607260497670008,0.1203294161747403
31.128144,12.603496197034124,0.1201157720317991
31.130524,12.607181220876472,0.1198598892141774
31.13292,12.609003913599262,0.119613582365828
31.135308,12.612549167814748,0.119360211480971
31.137688,12.620750249829126,0.1190806237620222
31.140092000000003,12.623876195164032,0.1188399745013635
31.14248,12.635662169790663,0.118545071864822
31.14486,12.653966303335745,0.1182140542531011
31.147264,12.67627463837366,0.1178558725043669
31.149648,12.69378737598582,0.1175275338743862
31.152032,12.709949639157625,0.117217940047737
31.154428000000003,12.725692593448846,0.1169201146122608
31.156816,12.740504382180289,0.1166288027696341
31.159196,12.75024103423226,0.1163750962393112
31.161592,12.755554175910818,0.1161617087199844
31.16398,12.764359662403011,0.1159143916534722
31.16636,12.786900314866402,0.1155792775742694
31.168764000000003,12.813584938449488,0.1152143638426818
31.171152,12.84026956203257,0.1148509006279366
31.173532,12.864393006361798,0.1145171368048382
31.175932000000003,12.8911701777435,0.1141746871961633
31.17832,12.91887851468498,0.1138306299504258
31.1807,12.954827572037606,0.1134491930904834
31.183096,12.994501291629344,0.113050811225888
31.185484,13.03068266640744,0.1126863921870172
31.187864,13.073382200103994,0.1122917866264156
31.190264,13.108864726747791,0.1119502565408816
31.192648,13.139411886338982,0.1116399373896869
31.195032,13.167537636303171,0.111355718842077
31.197432,13.200039674812537,0.1110565038010237
31.199816,13.232122404441316,0.1107696063158319
31.2022,13.26792979630921,0.1104657503588395
31.204596,13.303038340042802,0.1101817191206876
31.206984,13.34080061082887,0.1098882168038911
31.209380000000003,13.384569183854188,0.1095591466857181
31.211776,13.427499139118344,0.1092548345683739
31.214164,13.462001382516256,0.1090136363938174
31.216544,13.490869410727251,0.1088202967089533
31.21894,13.518386964497893,0.1086427944773868
31.221328,13.550979654947998,0.1084340083267443
31.223712,13.578217669464916,0.1082650557629941
31.226108,13.601451482489,0.1081213336097851
31.228492000000003,13.622962734020389,0.1079839789096498
31.230876,13.644194446298055,0.1078550696310187
31.233272,13.669430360068556,0.1077029791392082
31.235660000000003,13.688659971599806,0.1075868423796844
31.23804,13.714827050930085,0.1074324640938215
31.240436000000003,13.747791828432533,0.1072438988551599
31.242824,13.7798254403752,0.107059744977299
31.24522,13.81241813082531,0.1068626662110025
31.247616,13.844079655715642,0.1066697554357893
31.250004,13.875089554299915,0.1064751859901269
31.252388,13.90679830101849,0.1062637416592292
31.254784,13.941580083670122,0.1060352823517143
31.257172,13.969144859269004,0.1058521470734591
31.259552,13.995918238934967,0.1056700099291988
31.261952,14.024973258601069,0.1054698972725131
31.264336,14.061524824573638,0.1052198844583404
31.266716,14.098216160173068,0.1049665122006757
31.269116,14.131834459839444,0.1047330815686066
31.271500000000003,14.171878370625649,0.1044572387121492
31.27388,14.211270655105796,0.1041784329351737
31.276284,14.24772967327975,0.1039156437349098
31.278672,14.281534964401226,0.1036615958112636
31.281052000000003,14.314968168470369,0.1033994302966472
31.283452,14.352685113286062,0.1031101042938622
31.28584,14.384675295116228,0.1028474052924823
31.288220000000003,14.415082685080556,0.1025878205751146
31.290616,14.448563110977943,0.1023121196923637
31.293008,14.480832832061829,0.1020479812066567
31.295388000000003,14.514453027586072,0.1017709047695007
31.297784,14.548073223110318,0.101495478382022
31.300176,14.58141387938084,0.1012278153715188
31.302556000000003,14.609027772665836,0.100984779661509
31.304952,14.64227588113774,0.1007024179321864
31.30734,14.678085168863504,0.1003986626604789
31.30972,14.716967492522326,0.1000804626048941
31.312116000000003,14.75170584506145,0.0997876122019637
31.314504,14.786863506481156,0.0994855236784854
31.3169,14.821369541594803,0.0991808648369938
31.319296,14.85201114484248,0.0988940408988292
31.321684,14.883304374396214,0.0986106170981505
31.324064,14.91352666876331,0.0983336601277636
31.326464,14.944168272010986,0.0980476561882074
31.328848,14.97080567376583,0.0977814794196712
31.331228000000003,14.992507708468056,0.0975381476992837
31.333632,15.01835371428998,0.0972736141570251
31.33602,15.03898481380557,0.0970380750030704
31.3384,15.059104056641964,0.0967975688110417
31.3408,15.079642608358938,0.0965483643497199
31.343184,15.10353373526269,0.0962791783907252
31.345564000000003,15.125702300673742,0.0960137285812733
31.347968,15.15029227571179,0.0957312375275718
31.350356,15.179957387429312,0.0954255064433153
31.352736,15.205198988773423,0.0951481014462186
31.355132,15.22629661899784,0.0948926461000579
31.35752,15.24273842142336,0.0946525064223772
31.359900000000003,15.259599532729467,0.094403821875642
31.362304,15.279533679968626,0.0941417232055385
31.364692,15.30282040239456,0.0938602908486923
31.367072,15.327317829633992,0.0935707784426403
31.369468,15.357449472060338,0.0932481589000601
31.371856,15.391213228927182,0.092900172115443
31.37424,15.425628612100082,0.0925566426644948
31.376636,15.46311703120604,0.0921996006939505
31.379024,15.504889191058547,0.0918207160483974
31.381408,15.544799019791505,0.0914493854126531
31.383804,15.588061423711231,0.0910585645145832
31.386192,15.628111022071046,0.0906858803470337
31.388572,15.665087584497806,0.0903274957753116
31.390972,15.698059945431732,0.0899875223301354
31.39336,15.730240910432736,0.0896476524885465
31.39574,15.754413472448078,0.0893399363011129
31.398136,15.773650667410807,0.0890513687087281
31.400524,15.795449041627393,0.0887434252127941
31.402908,15.8175269550977,0.0884296426228962
31.405312,15.838813472635088,0.0881152897136071
31.407696,15.857306493493136,0.0878086759157507
31.41008,15.873797413604771,0.0875113301038544
31.412476,15.885213197036936,0.0872355034990876
31.414864,15.896768750095958,0.086957596765508
31.417248,15.898313799422898,0.0867180356242977
31.419644,15.898787913563195,0.0864844218770851
31.422032,15.895816904718105,0.0862539346376525
31.424412,15.888981464007038,0.086035272362999
31.426808,15.87907298736292,0.0858293352540697
31.429196,15.866091474785742,0.0856357864729981
31.43158,15.849105760715732,0.085456668235334
31.433976,15.83347052108608,0.0852663971845945
31.436364,15.8229104181359,0.0850565052791835
31.438744,15.810348214439308,0.0848536241208083
31.44114,15.797646241115851,0.0846533960453362
31.443528,15.794023605964702,0.0844192555020536
31.445912,15.793613776373466,0.0841700358353813
31.448308,15.794274881968873,0.0839165471777136
31.450696,15.796658549056971,0.0836619949853868
31.45308,15.800764777637768,0.0834061264582208
31.455476,15.80859566845768,0.0831423636223913
31.457864,15.812422357784754,0.0828924737448143
31.46026,15.81731998229847,0.0826374855737996
31.462656000000003,15.819004801252271,0.0823972848112641
31.465044,15.828418483938018,0.0821352137945686
31.467424,15.837552627370044,0.0818796019883495
31.46982,15.853204929720516,0.081610808948699
31.472208,15.877657030989576,0.081317138613101
31.474592,15.903040297818416,0.0810218959745903
31.476988,15.929494499833892,0.0807217753115613
31.479376,15.9628861696484,0.0804006782578679
31.481756,15.996138069836045,0.0800833780222617
31.484156,16.024454602971076,0.0797821360540471
31.486544,16.057706503158723,0.0794670055824586
31.488924,16.095102374466062,0.0791375346307438
31.49132,16.125281238720653,0.0788357889394637
31.493708,16.15532033334838,0.0785381208393659
31.496092,16.182146622416195,0.0782551480656388
31.498488,16.21032338592437,0.0779634528869318
31.500876,16.241712954992458,0.0776597284495118
31.50326,16.269377861821436,0.0773635457692935
31.505656,16.302257674956742,0.0770484782204727
31.508044,16.337791215144524,0.0767321596703115
31.510424,16.37853966163864,0.0763977323715281
31.51282,16.41649461145342,0.0760698142630546
31.515208,16.45458933089506,0.0757404308207283
31.517592,16.48895938809759,0.0754191391143546
31.519988,16.516391977501087,0.0751187632892594
31.522376,16.545966437277862,0.0748110333172786
31.524756,16.57875370261455,0.0744917264514928
31.527152,16.608887240898767,0.0741762392377082
31.52954,16.63874123992926,0.0738667046950114
31.531936,16.670737109333032,0.0735492658725473
31.534336,16.69872877724397,0.0732440628824672
31.536724,16.72043460366194,0.0729612796468583
31.539104,16.748286501946016,0.0726599299045935
31.541504,16.7761384002301,0.072359656070336
31.543892,16.805061233700815,0.0720557972156162
31.546272,16.83091103123848,0.0717623108627826
31.548668,16.854618958402867,0.071478241948707
31.551056000000003,16.880980612619723,0.0711932438552559
31.553436,16.906131562023084,0.0709160784501432
31.555836,16.93077065474725,0.0706335457539071
31.558224000000003,16.95326787709813,0.0703601169685449
31.560608,16.977906969822293,0.0700800840002886
31.563004,16.998681630680487,0.0698076770305161
31.565392000000003,17.020527226725314,0.0695322548191701
31.567776,17.043443757956776,0.0692534102654155
31.570176,17.06449795806869,0.0689779066885693
31.572564,17.082479122247545,0.0687117622131384
31.574944,17.098178646426263,0.0684560770010402
31.577344,17.117230745791755,0.0681877670873886
31.579732,17.138005406649945,0.0679206998881167
31.582116,17.158780067508136,0.0676537371766896
31.584512,17.185840569859295,0.0673681672225483
31.5869,17.20917640997134,0.0670878694695608
31.58928,17.23158108452361,0.066809334362977
31.591676,17.251843888702602,0.0665380034712615
31.594064000000003,17.271966923254737,0.0662693470250209
31.596448,17.287154590754252,0.0660106703899108
31.598844,17.300759466387934,0.0657493459910295
31.601232000000003,17.314504111648482,0.0654862555535712
31.603616,17.324896181722252,0.0652363301873175
31.606012,17.333286151049602,0.0649911059072219
31.608404,17.339394480376814,0.0647558481945233
31.610784,17.348436076010223,0.0645152214860832
31.613184,17.357477671643633,0.0642752525133976
31.615572,17.364656936157488,0.0640370966244037
31.617952,17.3707652654847,0.0638024874783615
31.620348,17.37887569555833,0.0635640012301103
31.622736,17.3892677656321,0.063316744402572
31.625120000000003,17.393933072720333,0.0630773025026093
31.627516,17.397015587942736,0.0628350860849564
31.629904,17.40237974316528,0.062584178634174
31.632288000000003,17.40481063208162,0.0623387738540615
31.634684,17.410174787304157,0.0620891271010473
31.637072,17.413956150660862,0.0618361006837844
31.639452,17.42230079401784,0.0615658866671951
31.641852,17.430924976628543,0.061290829464984
31.64424,17.445835000732203,0.0609995321105653
31.646624000000003,17.46260735595543,0.0607074204573926
31.64902,17.477517380059098,0.0604171773347355
31.651408,17.494848813789766,0.0601160515743437
31.653792000000003,17.509666290094817,0.0598116098366027
31.656188,17.521969808974255,0.059504115102957
31.658576,17.53548403266719,0.0591918319943606
31.660960000000003,17.54313172374773,0.0588877141773396
31.663356,17.553992220388192,0.0585748879622014
31.665744,17.564061321095735,0.0582601321941265
31.668128000000003,17.568263889190884,0.0579532427296664
31.670524,17.5684622557932,0.0576533760212673
31.672912,17.57238528463463,0.057351396941022
31.675296000000003,17.572164342356366,0.057058391932356
31.677692,17.567147802652354,0.0567700984966237
31.680084,17.559337766269003,0.0564829711162549
31.682468,17.54566119727326,0.0562032885496149
31.684864,17.53277602421044,0.0559251841634147
31.687252,17.518680146334116,0.0556528215196661
31.689636,17.505655203644434,0.0553775399611393
