Time,Force,Position
28.732996,3.3926457937524166,0.1843996061991026
28.735392,3.6922106947996856,0.18382643956149
28.73778,4.002855138907808,0.1830539109665994
28.74016,4.325604735293049,0.1815505224911983
28.742564,4.648820862387116,0.1803642418702339
28.744948,4.971387259032995,0.1790197369407717
28.747332,5.294561851872426,0.1774649891953449
28.749735999999995,5.610802768628568,0.1760663841046132
28.75212,5.910938123330496,0.1750293438129665
28.754504,6.209401930083709,0.1736531675297975
28.7569,6.503260922582013,0.1721405742766223
28.759288,6.78972160414607,0.1704828058529509
28.761668,7.059053010297521,0.1689803531609834
28.764064,7.312046536969279,0.167603086175098
28.766452,7.551635450467543,0.1663003438482136
28.768832,7.781963721912006,0.1649586186047578
28.771228,8.000377624250191,0.1636268164042105
28.773616,8.207389014161299,0.1622848176913252
28.776,8.39526902791338,0.1610892404931938
28.778396,8.564017665506436,0.1599925634750734
28.78078,8.712004913246385,0.159044610523436
28.783164,8.845097303745622,0.1581335384380774
28.78556,8.959802492190507,0.1573269435124459
28.787944,9.058215127126076,0.1566175226255575
28.790324,9.141079382657,0.1560195673368679
28.792724,9.21435433919429,0.1554713647247205
28.795107999999995,9.276409983043868,0.1550190416060953
28.797492,9.328130257937264,0.1546743645515448
28.799888,9.376173092419792,0.1543452562951833
28.802276,9.41374078831928,0.1541262773268503
28.804672,9.441764511195508,0.1540031663781691
28.807068,9.466110793660867,0.1538946337843371
28.809456,9.49078383720819,0.1537435487323107
28.811836,9.513409454038722,0.1535638631736073
28.814236,9.530774838592544,0.1534065548217493
28.81662,9.539527415682889,0.1533259520466703
28.819,9.543624164974338,0.153297941543324
28.821396,9.544695100160975,0.1532820002000482
28.823784,9.547116509787976,0.1532388864501455
28.826168,9.553402351280946,0.1531500974517558
28.828564,9.56383216389361,0.1530044347715218
28.830952,9.575193142066052,0.1528495889016224
28.833331999999995,9.589766925798411,0.1526480484742154
28.835728,9.61048678139688,0.1523673535713394
28.838116,9.6372129392346,0.1520118504837729
28.840512,9.66528957151268,0.1516313090171767
28.842908,9.691503872671202,0.1512698211753078
28.845296,9.719627726777524,0.1508595433387937
28.84768,9.7503127601377,0.1504047832943217
28.850076,9.783139663871156,0.1499199868391627
28.852464,9.815035402044842,0.1494445773959105
28.854844,9.845208578725822,0.148985036281292
28.85724,9.8771043168995,0.1485161386791259
28.859628,9.911234473245075,0.1480433167597338
28.862008,9.945596947016124,0.1475887929446577
28.864404,9.98182175190673,0.1471148892549792
28.866792,10.014741203438804,0.1466613781823404
28.869171999999995,10.042725287918268,0.1462651891756641
28.871568,10.063260047919504,0.1459444094897097
28.87396,10.079698058629289,0.1456496657401527
28.876339999999995,10.093622111913458,0.1453737207583635
28.878736,10.103309646279316,0.1451278242058042
28.881124,10.113556259152617,0.1448617429085513
28.88352,10.114211677174412,0.1446993406531052
28.885916,10.1106305762779,0.1445665824944992
28.888304,10.109610654635242,0.1443894721255251
28.890684,10.11222284743308,0.1441535567219474
28.89308,10.11469527060406,0.1439237272674954
28.895468,10.115305362655484,0.1437125547007947
28.897848,10.114984289147127,0.1435103986589476
28.900244,10.116665316385188,0.1432856568904235
28.902632,10.117415178063473,0.1430695163594869
28.905016,10.116582247875916,0.1428609371467304
28.907412,10.114026756195669,0.1426645495611745
28.9098,10.11217011264972,0.1424418578349821
28.912184,10.11045323873063,0.1422140084913202
28.914584,10.113112653356714,0.1419542887759432
28.916972,10.120427895781686,0.141651415670254
28.919352,10.135983858617806,0.1412772418835567
28.921748,10.152982843692902,0.1409016360858151
28.924136,10.16770018876786,0.1405583933274134
28.92652,10.183069160148875,0.1402155188898963
28.928916,10.194945786716252,0.1399258115143459
28.931304,10.211618010709383,0.1395872395336725
28.933688,10.227731156195071,0.1392696002896275
28.936084,10.234345654627877,0.1390715537716279
28.938472,10.239330139366604,0.1389094788830121
28.940856,10.243243688918689,0.1387614556444562
28.943252,10.247948634403691,0.1386110442528995
28.94564,10.256378242127807,0.1384284267524322
28.948024,10.264528310598209,0.1382568477512458
28.95042,10.27454071018816,0.1380691132940588
28.952808,10.280269369031558,0.1379349082309838
28.955192,10.285858258248098,0.1378060591106804
28.957592,10.291959004143834,0.1376850527810729
28.95998,10.29778021078585,0.1375746259387167
28.962364,10.302018625562033,0.1374704593302927
28.96476,10.30746774515171,0.1373484965219926
28.967148,10.309471741755996,0.1372487671697271
28.969528,10.308402702427228,0.1371829171896081
28.971928,10.31133786459129,0.1370749613855452
28.974316,10.319999789740884,0.1369147228350446
28.9767,10.330012189330844,0.1367311721115768
28.979092,10.341095524107434,0.136535763346139
28.98148,10.354460498884162,0.1363096405679059
28.98386,10.3751822503405,0.1359970651103296
28.986264,10.394460979557865,0.1356852838358267
28.988652,10.414159017655807,0.1353588694212414
28.991032,10.431063559074415,0.1350568065213005
28.993428,10.443452042320992,0.1347900245052068
28.995816,10.45747053926165,0.1344918315468766
28.998196,10.473630906575584,0.1341705913598232
29.000592,10.495797576128766,0.133789401418968
29.002976,10.520106116055228,0.1333848212917762
29.005376,10.544694195235408,0.1329720024275096
29.007772,10.571424144788867,0.1325361767333695
29.010156,10.601878756581437,0.1320743812645529
29.01254,10.630610806881313,0.1316248325061914
29.014935999999995,10.659203087554326,0.1311811522463294
29.01732,10.698225180840003,0.1306301141487478
29.0197,10.739668683752685,0.130051914338877
29.022096,10.78032079073244,0.1294824926923872
29.024484,10.82162452401826,0.1289174983659284
29.026868,10.861717552490576,0.1283721719602411
29.029264,10.903533142455592,0.127822071818566
29.031652,10.945720819472944,0.1272887509650167
29.034048,10.988420353169492,0.1267629249292451
29.036444,11.033633844291655,0.1262301304153526
29.038832,11.07963873134674,0.1256954434616124
29.041212,11.128157575827435,0.1251520428108108
29.043607999999995,11.173184075494497,0.1246539691567953
29.045996,11.216860100721195,0.1241810353340829
29.048376,11.26025658669418,0.123722180535037
29.05078,11.301231663040165,0.1232962715683143
29.053168,11.340996034572647,0.1228873877911539
29.055548,11.3755454997988,0.1225285317640904
29.057944,11.40501982834548,0.1222169502252868
29.060332,11.436728575064054,0.1219067658566427
29.062712,11.469228717715549,0.1215958397206763
29.065108,11.497165580366763,0.121341891296781
29.067496,11.519468227831071,0.121151216816399
29.069876,11.53976877454896,0.1209785630034878
29.07228,11.56100048682663,0.1208009140214554
29.074668,11.58023009835788,0.1206396532662421
29.077048,11.596386673956072,0.1205057638816526
29.079448,11.610169061755514,0.1203769772910459
29.081832,11.625301923995313,0.12022954720053
29.084216,11.63657035436914,0.1201102680774754
29.086612,11.648909719929604,0.1199811649821505
29.088999999999995,11.661388855116927,0.1198485406695455
29.09138,11.67708079586417,0.1196861222190087
29.093776,11.691189944745574,0.1195270638797343
29.096164,11.703576532134282,0.1193758961194539
29.098548,11.719455464336626,0.1191871965818418
29.100944,11.737336497285389,0.1189837969458777
29.103332,11.76229476766004,0.1187249313093684
29.105728,11.787392807661549,0.1184612454168912
29.108124,11.811839221357005,0.1181963679556325
29.110512,11.836285635052452,0.1179323702669357
29.112892,11.855936451322153,0.1177003564644623
29.115288,11.878800073151767,0.1174396126415146
29.117676,11.900592759794744,0.1171891874232964
29.12006,11.92466708643786,0.1169176806326835
29.122456,11.95074351382739,0.1166313653329645
29.124844,11.977099480470644,0.1163368637910545
29.127224,12.002244742300393,0.1160562992651554
29.12962,12.028972795995983,0.1157753517411337
29.132007999999995,12.060356677490468,0.1154693619004137
29.134392,12.092671724544724,0.1151598428102659
29.136788,12.123264210106283,0.1148580270691856
29.139176,12.154508321973909,0.1145617139048043
29.141556,12.187335225707365,0.1142647239824959
29.14396,12.220301899067682,0.1139650720845044
29.146348,12.251126702054718,0.1136859529955691
29.148728,12.2830224402284,0.1134001587079815
29.151124,12.315057948028937,0.1131140179104129
29.153512,12.34923532620275,0.1128106436915514
29.155892,12.38276107807051,0.112506006813912
29.158296,12.418568469938403,0.1121819728652693
29.160684,12.456797271433295,0.1118322359838191
29.163064,12.492372345875715,0.111493970610051
29.165464,12.528226959571851,0.1111483348216978
29.167852,12.55807527102874,0.1108443809615739
29.170231999999995,12.591276157672404,0.1105131315210872
29.172628,12.626479145062486,0.1101701473876091
29.175016,12.667688434691817,0.1097901989853013
29.177396,12.71038796838837,0.109394140225867
29.179796,12.750713314286164,0.1090028996186168
29.182184,12.791318199437685,0.1086066264323001
29.184564,12.83057261014884,0.1082264102523147
29.18696,12.864379797128189,0.1078692091084576
29.189348,12.89753535780148,0.1075103732762709
29.191744,12.931482314407686,0.1071528393543244
29.19414,12.968642076573808,0.1067738808533177
29.196528,13.001937406873957,0.1064172506588897
29.198908,13.033230636427692,0.1060758882819163
29.201304,13.06652596672784,0.1057247484941056
29.203692,13.100472923334053,0.1053788373587544
29.206071999999995,13.130555448074285,0.1050545742829352
29.208468,13.167016362106107,0.104709010509768
29.210856,13.208272873563685,0.1043419027707071
29.213236,13.253393816887227,0.1039579676718693
29.215632,13.301727565770692,0.1035516538993631
29.21802,13.349130149094377,0.1031539181538236
29.220416,13.39774343723156,0.1027485404731319
29.222812,13.439559027196577,0.1023791119068401
29.2252,13.480303681974952,0.1020209049687557
29.227584,13.522910667872884,0.1016579338949986
29.22998,13.56444671858418,0.1013042723882338
29.232368,13.608264409295613,0.1009331494454118
29.234748,13.657948632619435,0.100534167340315
29.237144,13.704699589637064,0.1001499924928861
29.239532,13.748796819602216,0.0997742253843252
29.241912,13.788098452141616,0.0994221717325012
29.244308,13.828610789494515,0.0990600328907464
29.246696,13.867260795727857,0.0987064450330126
29.249076,13.902977535655005,0.0983687103452958
29.251472,13.935249152596755,0.0980385495633047
29.25386,13.970314266217846,0.0976990934642282
29.256256,13.995136558681375,0.0973986946216655
29.258652,14.01516325371915,0.097119993119287
29.26104,14.032396452077592,0.0968530346260464
29.263424,14.05149198155559,0.0965809477823417
29.26582,14.064720978421198,0.0963358174823682
29.268208,14.077018809727026,0.0960954251703152
29.270592,14.091598281032994,0.0958384526933656
29.272988,14.099519823793653,0.0956073824297649
29.275376,14.10157483394192,0.095402341618313
29.27776,14.099625642597356,0.095216556601324
29.280156,14.099026925693147,0.0950179942601309
29.282548,14.095634712109606,0.0948292532594375
29.284928,14.09424459927248,0.0946307841135361
29.287324,14.09499635680863,0.0944195842807305
29.289712,14.097330906210622,0.0942091201974315
29.292096,14.10152778673217,0.0939930972150465
29.294492,14.104793501693932,0.0937801281929402
29.29688,14.10819898628256,0.0935640208755231
29.29926,14.112256097177246,0.0933513305250842
29.301656,14.113659481019456,0.0931445926947577
29.304044,14.120789627847191,0.0929166104057812
29.306428,14.127919774674934,0.0926885340651955
29.308824,14.128112453703643,0.0924906270393299
29.311212,14.12551163605302,0.0923020722801683
29.313596,14.126775250268368,0.092098339040225
29.315992,14.122963727804246,0.0919191759396739
29.31838,14.117941500526625,0.0917495238782314
29.32076,14.116504165861256,0.0915712393709764
29.32316,14.119210802315582,0.0913712677016078
29.325544,14.1272721147031,0.0911402980361834
29.327928,14.13319155671734,0.0909224152577735
29.330324,14.141113099478,0.0906962237825905
29.332712,14.154249548544987,0.0904442285407214
29.335096,14.164452731305785,0.0902040896347855
29.337492,14.174144057387382,0.0899573410647801
29.33988,14.182112821976284,0.0897135040602931
29.342264,14.19250299619218,0.0894516657347174
29.34466,14.204895271154497,0.0891820912980502
29.347048,14.220640121303587,0.0888922662339884
29.349432,14.238387072199098,0.0885945533407447
29.351828,14.250547029735936,0.0883125261276597
29.35422,14.264197231339995,0.0880153140895131
29.3566,14.28599560555658,0.0876808291665805
29.359,14.306071418280467,0.0873484503830413
29.361388,14.32414513025794,0.0870249450504221
29.363768,14.345571417422189,0.0866807209055213
29.366164,14.369279344586571,0.0863224972434911
29.368552,14.391544249511982,0.0859596509488628
29.370936,14.415811255183808,0.0855906841030751
29.373332,14.438076160109215,0.085231348854535
29.37572,14.460480834661483,0.0848695714053837
29.3781,14.475156645481809,0.084533059832381
29.380496,14.479961722196906,0.0842338096621035
29.382884,14.488631230777978,0.0839222857312014
29.385268,14.493156768239354,0.083629260665911
29.387664,14.496751140140953,0.0833387587865007
29.390052,14.49499083610936,0.0830755878208278
29.392432,14.487224229838516,0.0828356845870294
29.394836,14.47573296132856,0.0826049849853349
29.397224,14.460377260952628,0.0823862513493815
29.399608,14.451679489122004,0.0821483521643593
29.402004,14.441351703597304,0.0819284800713581
29.404392,14.429021817326184,0.0817164172428044
29.406772,14.419345658107542,0.0815007894014325
29.409168,14.412090908515896,0.0812681967310034
29.411556,14.405487785230306,0.0810399743435241
29.413952,14.398884661944722,0.080812118396289
29.416348,14.397077136084883,0.0805709607541201
29.418736,14.387540746493102,0.0803524414292129
29.421116,14.378795752834236,0.0801351359556165
29.423516,14.366977723242314,0.07992979712488
29.425904,14.3618176221957,0.079706525529866
29.428284,14.363594988948115,0.0794594359489554
29.43068,14.362439089394336,0.0792218610306007
29.433067999999995,14.369571132079948,0.0789500082113758
29.435452,14.378565505885112,0.0786746673574841
29.437848,14.392774785996613,0.0783769581761638
29.440235999999995,14.410336641294885,0.0780603716160044
29.44262,14.431203849951691,0.0777460645368474
29.44502,14.454864555287834,0.077425935863958
29.447408,14.471867332078666,0.0771226751393606
29.449788,14.490080813683,0.0768114866585478
29.452188,14.50922546084711,0.0764993557212865
29.454576,14.524645445772109,0.076194723078568
29.45696,14.535641920323693,0.0759130459062015
29.459356,14.54370512856908,0.0756400724033532
29.461744,14.54948669681433,0.0753803623486876
29.464128,14.552474768380243,0.0751269036271971
29.466524,14.55518330069244,0.074878155191446
29.468912,14.55537787557902,0.0746286047893394
29.471296,14.559576651958434,0.0743657888946381
29.473692,14.566196837964846,0.0740883591598606
29.47608,14.56988375766506,0.073819668066633
29.478464,14.572499742178636,0.0735554234117265
29.48086,14.568969654826102,0.0733139683467155
29.483248,14.562366531540516,0.0730834727682908
29.485632,14.55255060269501,0.072866890860595
29.488028,14.543246530528704,0.0726577484386095
29.49042,14.530357565750148,0.0724518562771392
29.4928,14.52147280246442,0.0722341195593556
29.495196,14.519245967724004,0.0720025453701199
29.497584,14.517158902610449,0.07176810434827
29.499964,14.512929967123616,0.0715428356413339
29.502364,14.510563362756336,0.0713141423497846
29.504748,14.514203060628308,0.0710676824199522
29.507131999999995,14.521055564060196,0.0708079250993617
29.509528,14.5299101682385,0.0705425444155416
29.511916,14.538205693909362,0.070289545745114
29.514299999999995,14.554090313685313,0.0700220486268937
29.516696,14.57234912126002,0.0697596987525001
29.519084,14.590468159207866,0.0695012769549851
29.521467999999995,14.60202181640902,0.0692725358566326
29.523864,14.614227099916231,0.0690486333574989
29.526252,14.629365649729635,0.0688179061377112
29.528632,14.6463665306626,0.0685846342782078
29.531032,14.668302778648174,0.0683394848698837
29.533416,14.698247429619416,0.0680735811683087
29.5358,14.73419838282991,0.0677932051908338
29.538196,14.774805163839291,0.0675076149527986
29.540584,14.810476577796065,0.0672356868479198
29.542964,14.842143790260003,0.0669755596215792
29.54536,14.875673333843498,0.0667143235356683
29.547748,14.911204978173409,0.0664484824426366
29.550132,14.950461284742437,0.0661792049896375
29.552528,14.988786425751684,0.0659130349514313
29.554915999999995,15.026692257880349,0.065656778899658
29.557312,15.064598090009014,0.0654016622858633
29.559708,15.1039941662049,0.0651349613257291
29.562096,15.142878385721588,0.0648625860158593
29.56448,15.180971209305358,0.0645892693180257
29.566876,15.222276838449044,0.064306468590715
29.569264,15.272010179458976,0.0639973345911214
29.571648,15.323093994909268,0.0636800715224535
29.574044,15.374597119240144,0.0633561742975037
29.576432,15.428102344317436,0.063029183083946
29.578812,15.478814072715393,0.0627068727323488
29.581208,15.52151739812768,0.0624048524097615
29.5836,15.557423025367802,0.0621164335798842
29.58598,15.586530954435752,0.0618398180963737
29.588376,15.61843238018304,0.0615615012104362
29.590768,15.650333805930323,0.0612833066885447
29.593148,15.680372900558057,0.0610079016350095
29.595544,15.709480829626008,0.060734087072773
29.597932,15.735655492387764,0.0604663913944352
29.600316,15.759967824029964,0.0602012448712225
29.602712,15.783628529366108,0.0599320943874645
29.605096,15.806358069142467,0.0596643598706842
29.60748,15.825735033732055,0.0594099473805224
29.609876,15.844041063135004,0.0591600203714158
29.612264,15.863418027724594,0.0589073595488081
29.614644,15.877719855634709,0.0586671069542552
29.617044,15.885596072424992,0.0584477413186368
29.619432,15.893052980334696,0.0582369302909463
29.621812,15.89915941380404,0.0580351629103845
29.624212,15.902192811340328,0.0578408002764103
29.6266,15.904806899996036,0.0576545440271769
29.62898,15.914358456450774,0.0574569759511401
29.63138,15.925912113651927,0.0572559801260376
29.633772,15.94668487865225,0.0570349252796733
29.636152,15.964664146973234,0.0568159791421847
29.638548,15.986927156040773,0.0565853091840956
29.640936,16.010121330668092,0.0563548584046653
29.643315999999995,16.03331550529541,0.0561248685543285
29.645716,16.055997823243526,0.0558878929742763
29.648104,16.07667804044523,0.0556546415110962
29.650483999999995,16.09307451690038,0.0554333340027741
29.652884,16.111473094101946,0.0552092576562991
29.655272,16.13201354167679,0.0549791751983284
29.657651999999995,16.152553989251633,0.054749899275148
29.660052,16.172954667199615,0.0545239605672072
29.66244,16.19321557552074,0.0543007053701423
29.664819999999995,16.216409750148056,0.0540741621863337
29.667216,16.23667065846918,0.0538514242102367
29.669608,16.257583193096362,0.0536339384149487
29.671992,16.279706432537044,0.0534112487571518
29.674388,16.301317815298525,0.053181407320276
29.67678,16.31277892470106,0.0529704936089354
29.67916,16.32037560223763,0.0527634423987373
29.68156,16.319684337534802,0.0525746003462372
29.683948,16.315920036898923,0.0523912769774956
29.686328,16.308942930703125,0.052216832838409
29.688728,16.29982395413405,0.0520480275058527
