Time,Force,Position
29.432836,10.966600562329228,0.1532507641320299
29.435236,11.158524415970907,0.1528179670251329
29.437619999999995,11.33313200274488,0.1524276370494914
29.440004,11.492378201569306,0.152077826660223
29.4424,11.63863720024295,0.1517620135637419
29.444788,11.776425056937844,0.151434722032543
29.447168,11.902528966094064,0.1511325047090771
29.449568,12.021092898831313,0.1508159370161438
29.451956,12.130813602537476,0.1504821169389833
29.454336,12.232994329824662,0.1501262331216074
29.456731999999995,12.327262993640533,0.14974269919085
29.45912,12.411198184358096,0.1493656445831447
29.461504,12.48358919716385,0.1490101566394746
29.463899999999995,12.547089759110271,0.148654925378127
29.466288,12.60472568430217,0.1482947959780086
29.468672,12.650163909418334,0.1480197424621422
29.471076,12.687780723003934,0.1477987999052129
29.473464,12.721952413604145,0.147600293540907
29.475848,12.75733480901785,0.1473862419856843
29.478244,12.78591950625939,0.1472342052614597
29.480636,12.816646073874203,0.1470602288947768
29.483016,12.844858684063404,0.1468999394208775
29.485412,12.87325828570771,0.1467130044953873
29.4878,12.9034748925012,0.1464714774686402
29.490184,12.93299454701825,0.1461899140954232
29.49258,12.961537710005151,0.1458770759484298
29.494972,12.995902079634076,0.1454759432446431
29.497352,13.025518073665484,0.1450940372927544
29.499748,13.048615908778446,0.1447609995997645
29.502136,13.07106211758535,0.1444270910875219
29.504515999999995,13.092157851951896,0.1441140054721624
29.506916,13.112694507811,0.1438178582747041
29.509304,13.138538617775056,0.1434908465456441
29.511683999999995,13.165313893298888,0.1431574243629257
29.514084,13.187665658449305,0.142872057187125
29.516472,13.210576502107166,0.1425699846486754
29.518851999999995,13.226969186846578,0.1423137987631838
29.521256,13.243548863041092,0.1420320810726016
29.523644,13.25924459550407,0.1417359323597734
29.526024,13.27484778016843,0.1414218228843037
29.52842,13.286214445914482,0.1411294056829244
29.530808,13.301213226101028,0.1407938115197625
29.533188,13.3135582792351,0.1404740312467277
29.535584,13.324552857928811,0.1401743750708849
29.537972,13.33326579662239,0.1399011082222341
29.540352,13.339697095315833,0.139653802544204
29.542756,13.338631847702798,0.1394803162479523
29.545144,13.338125678597208,0.1392909274582952
29.547524,13.341903250238172,0.1390599672095792
29.54992,13.347962461879272,0.1388050061867709
29.552308,13.352858190535118,0.1385429270558861
29.554688,13.356450666578846,0.1382771632408804
29.557084,13.354456149263903,0.1380494739553909
29.559472,13.358467934188218,0.1377740053735281
29.561852,13.365692524672443,0.1374680913422528
29.564243999999995,13.375710611836006,0.137144473819827
29.566632,13.399324095343903,0.1367207283228233
29.569012,13.424101061837057,0.1363063319166352
29.571424,13.450181280942328,0.1358972869412625
29.573812,13.48077755821963,0.1354646041806684
29.576192,13.511745922549268,0.1350408148139916
29.578596,13.538570315759213,0.1346544192107159
29.58098,13.57019030639491,0.1342358878332947
29.58336,13.60008773553791,0.1338258894394658
29.585764,13.628494920613694,0.1334373740922362
29.588148,13.655831170502836,0.1330588105477277
29.590528,13.685169521138397,0.1326642324786802
29.592932,13.712598318826156,0.1323031354222071
29.595316,13.740538973193114,0.1319497209305276
29.597696,13.766058217933072,0.1316246566902701
29.6001,13.792740945658288,0.1313080766452881
29.602484,13.823008565995758,0.1309732005832116
29.604868,13.858071783758978,0.1306072000629558
29.60726,13.884335202603612,0.1303058146146597
29.609648,13.909807225515328,0.1300072630128752
29.612032,13.932345982120852,0.1297302525034268
29.614424,13.94450214794195,0.1295198094141142
29.616812,13.956146457083854,0.1293044938917569
29.619192,13.96527680880014,0.1290984936518934
29.621588,13.965886900851562,0.128945186536044
29.623976,13.968406545850788,0.12876025091065
29.626356,13.970134794917092,0.1285767479769964
29.628752,13.9701404824907,0.1284009386394134
29.63114,13.973498745251083,0.1281945899121217
29.63352,13.978626791332408,0.1279606380519796
29.635916,13.98403437666745,0.1277191123697777
29.638304,13.99228268051007,0.1274419039156054
29.640684,14.001509371740712,0.1271386443261556
29.64308,14.008781184053182,0.1268296041507159
29.645468,14.015820678940171,0.1265073935711464
29.647848,14.021556921215048,0.1261810741200428
29.650264,14.023987810131391,0.1258647299953671
29.652648,14.021762871248844,0.1255745039319055
29.655048,14.019677701993157,0.1252796418898323
29.657444,14.01815161124491,0.1249703451982566
29.659832,14.017044829377244,0.1246498511405891
29.662212,14.019011083442637,0.1243064124315789
29.664615999999995,14.015390344149356,0.1239928992237878
29.667,14.014191014483073,0.1236548540833403
29.66938,14.017135655936482,0.1232844624990494
29.671783999999995,14.017798657389758,0.1229351847361072
29.674172,14.021534694776085,0.1225636270896217
29.676552,14.0227567747368,0.122199983915468
29.678948,14.020905818764458,0.1218592229833695
29.681336,14.0170527620457,0.1215318536761808
29.683716,14.015341575700218,0.1211876110455156
29.686119999999995,14.00906710935446,0.1208850404417312
29.688508,14.003304499687903,0.1205885295612656
29.690888,13.996982811513906,0.1203063892826865
29.693292,13.99345462001924,0.1200102399567166
29.69568,13.990066198151435,0.1197103222145263
29.69806,13.991193834455666,0.1193908570291387
29.700464,13.996465441879588,0.1190422129803384
29.702848,14.00774335154276,0.118655364186336
29.705228,14.01846218269849,0.118283677684109
29.707624,14.028901474600502,0.117919247355009
29.710012,14.037198896129237,0.1175712487812307
29.712392,14.051874706949558,0.1171944780674525
29.714792,14.064129108142884,0.1168420268938516
29.717176,14.080108171575322,0.1164728835840108
29.71956,14.100882832433513,0.1160787796239163
29.721964,14.119375853291563,0.115705054204312
29.724352,14.143176328254564,0.1153135521357813
29.726732,14.167768199150489,0.1149217427648848
29.729128,14.195153566725743,0.1145174855160924
29.731511999999995,14.220536833554585,0.1141266154288737
29.733896,14.249132905943332,0.113712796600053
29.736292,14.279079452772445,0.113285736814946
29.738679999999995,14.30781529478806,0.1128695804735583
29.74106,14.332546935310836,0.1124785922388253
29.743456,14.359932302886094,0.1120798438664116
29.745844,14.384663943408874,0.1116923286242971
29.748224,14.40404090799846,0.111343540124264
29.75062,14.420205067028132,0.1110191952028702
29.753008,14.438371326804225,0.1106843938785218
29.755392,14.45853968732673,0.1103387269756989
29.757788,14.482572479715207,0.1099742348264273
29.760176,14.505534336917048,0.1096187147822548
29.762556,14.530498294865309,0.1092526237122687
29.764952,14.554391317626925,0.1088963946981408
29.767336,14.575351074082349,0.1085568788404989
29.769732,14.601385967217244,0.1081895624762376
29.772127999999995,14.62062316217997,0.1078567743494379
29.774512,14.641862457889117,0.1075142630913344
29.776896,14.66310175359826,0.1071731032296025
29.7793,14.68499267561346,0.1068352614598173
29.781684,14.704462188001669,0.1065188473776559
29.784068,14.725374722628846,0.1062068490857844
29.786463999999995,14.75071076762944,0.1058643720104553
29.788852,14.779911244496008,0.1055048654690095
29.791232,14.808180555802796,0.1051508303956543
29.793628,14.836170327855864,0.1048043310708815
29.796016,14.86830407102863,0.1044338086538182
29.798396,14.899506648641614,0.1040673736950843
29.800796,14.92977806069482,0.1037063900762191
29.803184,14.960189242374886,0.1033438377186731
29.805564,14.9870155314427,0.1029929301192949
29.807964,15.013609503085034,0.1026304950793882
29.810348,15.038201373980954,0.1022789163761628
29.812732,15.056926712264485,0.101954265539191
29.815128,15.07514019386881,0.101623807951
29.81752,15.08790645174133,0.1013114659197613
29.819896,15.104816680733547,0.1009762848257545
29.822292,15.117071081926872,0.1006579892317922
29.82468,15.128673856814135,0.1003374301396275
29.82706,15.14204641502234,0.0999953305336055
29.829456,15.157188756551491,0.0996312142088164
29.831844,15.166883874348825,0.0992836325497366
29.834224,15.175647826586385,0.098940632759993
29.83662,15.182037591025184,0.098598351535504
29.839008,15.184842462851735,0.098265327610363
29.841388,15.187135477999089,0.0979260944573805
29.843784,15.189196175720962,0.0975749149152681
29.846168,15.19074501676364,0.0972170601825708
29.848548,15.186846634074508,0.0968736292092002
29.850944,15.179083819519402,0.0965451696529915
29.853332,15.173183336083856,0.0962105601239905
29.855712,15.163138881528614,0.0958966895758963
29.858108,15.152722339921034,0.095572756688428
29.860496,15.143796042380671,0.0952320810649626
29.862876,15.13580091040009,0.0948884741596363
29.865272,15.127526239165787,0.094550563244168
29.86766,15.118739711252283,0.0942065058674834
29.87004,15.111303657779144,0.0938493555347642
29.872452,15.100794568372947,0.0935066116434636
29.87484,15.085070572660417,0.0931901044328639
29.87722,15.06627354101483,0.0928877315108273
29.879636,15.045614178249687,0.0925896350810788
29.88202,15.021090383618574,0.0923053254202122
29.8844,14.996147280106875,0.0920298648832899
29.886796,14.97427721252824,0.091739142445176
29.889184,14.95026527457632,0.0914593775331041
29.891563999999995,14.922481452557047,0.0912090468965808
29.89396,14.899353458336666,0.0909449557778069
29.896348,14.88502526303487,0.0906471833771753
29.898728,14.872838938106348,0.0903372174793081
29.901143999999995,14.861863317991329,0.0900186333257636
29.903532,14.855823064928922,0.0896804334253445
29.905928,14.852156999665269,0.0893439390575252
29.908324,14.853938158133424,0.0889956592908637
29.910708,14.85371721585516,0.0886555377321853
29.913088,14.858571410256372,0.0882943455621856
29.915496,14.86165582133664,0.0879544349140995
29.91788,14.869116520962082,0.0876092933899156
29.92026,14.880301882826638,0.0872545236214826
29.922668,14.896143072490082,0.0868875915350771
29.925052,14.913567054019364,0.0865216906321201
29.927436,14.94072200002701,0.0861237929366126
29.929832,14.972393004206689,0.08571794161088
29.93222,15.006997274692564,0.0853034718824329
29.9346,15.039971531484357,0.0849074912937284
29.936996,15.077601616075045,0.0845008103690648
29.939384,15.118025197345064,0.0840870307273679
29.941764,15.15509620342831,0.0836943575792326
29.94416,15.189606030257696,0.0833244495775352
29.946548,15.230354476751817,0.082947955167851
29.948927999999995,15.267470808805433,0.0825968324005679
29.951332,15.30430760160533,0.0822534941957497
29.95372,15.338071358472172,0.0819230431887096
29.9561,15.371835115339016,0.0815952189872057
29.958504,15.40983539112417,0.0812671441910202
29.960892,15.441410055789492,0.0809700557955051
29.963272,15.47619752601473,0.0806590821883297
29.965672,15.506841025120274,0.0803662117193856
29.96806,15.53641358903918,0.080079225038013
29.97044,15.567988253704502,0.0797871790607142
29.97284,15.60235641504916,0.0794902783378918
29.975228,15.631230130833764,0.0792222468525064
29.977608,15.65917268105859,0.0789574327684988
29.980011999999995,15.683902425723506,0.078707667957996
29.9824,15.711844975948331,0.0784445847160488
29.98478,15.736854259866965,0.0781906420414634
29.987176,15.76414518378573,0.0779255105864206
29.989564,15.788782380652025,0.0776627847429892
29.991944,15.805550944159512,0.077422461065754
29.99434,15.813799248002134,0.0772016756319401
29.996728,15.825120587777812,0.0769700245039056
29.999108,15.836302157926628,0.0767418934823061
30.001504,15.852558864754917,0.0764972384208761
30.003892,15.862809269343954,0.0762716624516273
30.006272,15.86975432057446,0.0760448666575307
30.008668,15.87977240773802,0.075807202953313
30.011056,15.886857228595389,0.0755778496133384
30.013436,15.894221588706476,0.0753428202519066
30.015836,15.90172571844442,0.0751052729140507
30.01822,15.904154711502896,0.0748845767939652
30.020604,15.90700301344195,0.0746562557737586
30.023,15.909339458701808,0.074421118282214
30.025388,15.906740536909052,0.0741990754433683
30.027784,15.90348998881024,0.0739726919327557
30.030176,15.89916850552479,0.073751153835925
30.032564,15.897920058172398,0.0735198195999529
30.034948,15.892946948580883,0.0732945713208799
30.037344,15.889184543802877,0.0730617691555662
30.039732,15.890776814958055,0.0728068690486022
30.042112,15.894371186859658,0.0725458948154828
30.044508,15.89638276689542,0.0722824936299763
30.046896,15.895740619878708,0.0720206397914066
30.049276,15.891373810622882,0.0717649244918563
30.051676,15.88621560543414,0.0715068906071435
30.05406,15.881988565805171,0.0712475020487897
30.056444,15.874968029496872,0.070991877669148
30.05884,15.86594539244216,0.0707412608527025
30.061224,15.855851820200805,0.0704944107334179
30.06362,15.843895916839893,0.070249979681477
30.06602,15.831148617546065,0.0700034082610263
30.068408,15.811463850453205,0.0697739476252148
30.070788,15.789916752240789,0.069546450910509
30.073188,15.774655495521344,0.0692968850387326
30.075572,15.762327505108097,0.0690405577668195
30.077952,15.744132982082457,0.0687967684207573
30.080348,15.720071926444426,0.0685656156901675
30.082736,15.697733432299094,0.0683343314809492
30.08512,15.678979830766012,0.0681008175033639
30.087516,15.659946689979211,0.0678724957464563
30.089904,15.643055419565687,0.0676361288282237
30.092284,15.627095314711942,0.0673983824764087
30.094688,15.612066375417973,0.0671590448298104
30.097076,15.595966500937369,0.066923146375046
30.099456,15.585872928696013,0.0666719870879641
30.10186,15.572426781267882,0.0664348010346142
30.104248,15.563124604959444,0.0661847116433988
30.106628,15.554753594210789,0.0659328882215185
30.109024,15.549315849768323,0.0656750553814523
30.111412,15.546951141258912,0.0654085930792302
30.113796,15.551523900548531,0.0651271112414627
30.116192,15.560892257263903,0.0648372737737191
30.11858,15.57198317547197,0.0645478773354614
30.12096,15.578650583306622,0.0642767048800231
30.123356,15.581174020021582,0.0640176630581282
30.125744,15.588632823789156,0.0637477523346577
30.128124,15.601818390542253,0.0634694224486265
30.130524,15.615003957295356,0.0631915756387853
30.132908,15.6263271929289,0.0629163701874948
30.135292,15.637790198189304,0.0626384736737244
30.137696,15.646831793822711,0.062373763043926
30.14008,15.6555938502024,0.0621149294883651
30.142464,15.663284971395449,0.0618595533114251
30.14486,15.671487949267693,0.0616113558214899
30.147248,15.677409287139804,0.0613736996727021
30.149632,15.68854553131824,0.0611212039040202
30.152035999999995,15.70112479773566,0.0608763870957634
30.154424,15.714635229712853,0.0606306933204188
30.156804,15.726283330570496,0.0603869612032428
30.1592,15.735510021801137,0.0601559692177424
30.161588,15.73966157635231,0.0599374815157161
30.163972,15.746466857955957,0.0597202216436839
30.166368,15.757416110679296,0.0594927945141642
30.168756,15.770367464149052,0.0592613379739984
30.171136,15.78839395429828,0.0590187952689979
30.173532,15.808282775567063,0.0587757917175509
30.17592,15.825238330529652,0.0585379710913457
30.1783,15.842845511798302,0.058305405704962
30.180704,15.861383858626729,0.0580728879099553
30.183092,15.884578033254044,0.0578384305461089
30.185472,15.908843143068,0.0576010297793896
30.187868,15.932037317695317,0.0573671077809654
30.190252,15.95923569381547,0.0571263366755351
30.192632,15.989926414749258,0.0568715608503514
30.195032,16.021548301242824,0.0566170109140136
30.197416,16.04916598624356,0.0563704366949643
30.199812,16.075200879378453,0.0561208612764781
30.202216,16.105100204379323,0.0558677023687718
30.204604,16.139795126805943,0.055610948757539
30.206984,16.17756308516562,0.0553484876800301
30.209376,16.216401978711936,0.055083602306089
30.211763999999995,16.253658080392416,0.0548158605123687
30.214144,16.28663044132634,0.0545610997396184
30.216548,16.321604903006683,0.0543039988858641
30.218936,16.35443749431375,0.0540538033180772
30.221316,16.38540775450126,0.053805314356121
30.223712,16.41451568356921,0.053557451155943
30.226096,16.442180590398184,0.0533031776980799
30.228476,16.464770360547686,0.0530580892147547
30.23088,16.480702202151882,0.0528182376109807
30.233267999999995,16.49477171263652,0.0525790300729895
30.235648,16.511122863121294,0.0523320537129246
30.238052,16.526123539165713,0.052093765791661
30.24044,16.537911409650214,0.0518643724884602
30.24282,16.54676601382852,0.0516383108950779
