Time,Force,Position
29.428144,12.243240331383989,0.1519690161565461
29.43054,12.360646468709588,0.1514454517946458
29.432928,12.456966350957988,0.1509513387788331
29.435308,12.535225792234002,0.1504760488948646
29.437704,12.598543154441058,0.1500203354269478
29.440092,12.65120028246784,0.1496021082872973
29.442476,12.694638302695456,0.1492809393787342
29.444872,12.736259317773891,0.1490199293356211
29.44726,12.776295645128622,0.1488307370661488
29.449636,12.818844034051097,0.1486941769705053
29.45204,12.86967846935509,0.1485370269653363
29.454428,12.92563336730893,0.1483714296695177
29.456807999999995,12.984801070822684,0.1481699558190075
29.459212,13.042852513179426,0.147940199727398
29.4616,13.099370281356444,0.1476319857586107
29.46398,13.145601798263398,0.1473019843385188
29.466384,13.182617999086922,0.1469374489915128
29.468768,13.209440496438996,0.1465681287519969
29.471148,13.221878097371686,0.1462575708951949
29.473544,13.22290939416156,0.1460190169559041
29.475932,13.215001122405988,0.1458602596964834
29.478311999999995,13.205974693635532,0.1457347302553777
29.480716,13.19699359083545,0.1456492720392844
29.483104,13.190711541058215,0.1455872154258552
29.485484,13.192762759490746,0.1454851902709458
29.487888,13.197327935348891,0.1453709829203917
29.490272,13.203802664154836,0.1452206266917251
29.492652,13.207810657363408,0.1450608773557339
29.495056,13.210702389414967,0.1448720117166907
29.497443999999994,13.210895068443678,0.1446600987145385
29.499824,13.205687745568824,0.1444632333841307
29.502227999999995,13.198246004522073,0.144270494199335
29.504611999999995,13.193038681647216,0.1440740842265133
29.506992,13.187504597690396,0.1439079032220402
29.509388,13.18131699156965,0.14380195290374
29.511772,13.178712382203289,0.1437346472246003
29.514152,13.184114279964724,0.1436593308088496
29.516548,13.195288266682065,0.143579932633023
29.518936,13.214143895303106,0.1434616963046266
29.52132,13.235513481349765,0.1433313378423315
29.523723999999994,13.261306577769842,0.1431537850518592
29.526112,13.28672758713758,0.1429661441469951
29.528492,13.31647955908011,0.1427145853176415
29.530888,13.342833629865492,0.1424604265549434
29.533276,13.364671642478845,0.1422369944082062
29.535656,13.386369885465337,0.1420187076287522
29.538059999999994,13.411885338489556,0.1417930260584707
29.540448,13.442009397484426,0.141558101333531
29.542828,13.47846462394264,0.1413055672857705
29.545224,13.51538448525181,0.1410805169558344
29.547612,13.557611800665926,0.1408260815587602
29.549992,13.6017014471996,0.1405595647664885
29.552392,13.642905049255326,0.1402959641794754
29.55478,13.684155873139291,0.1400115414899128
29.55716,13.72093786067947,0.1397323173212296
29.559556,13.755532651875995,0.1394351912799957
29.561944,13.780583470049264,0.1391884484997444
29.564328,13.798324733371166,0.1389877886583027
29.566724,13.814575752625847,0.1388105489269419
29.569112,13.836693304492918,0.1385897723491163
29.571496,13.863187144905162,0.1383482875910357
29.573892,13.895407748302931,0.1380679705015183
29.576276,13.928000438753044,0.1377999726565027
29.578655999999995,13.963758712934826,0.1375245138754809
29.581064,14.002729792676524,0.1372219411902122
29.583452,14.039838541298666,0.1369318980330578
29.585832,14.075644037308692,0.1366405187548539
29.588228,14.10549045290771,0.1363758719053875
29.59062,14.12937778809572,0.136138192577554
29.593,14.153963971418031,0.1358821944755024
29.595396,14.177339449926846,0.1356409002156783
29.597784,14.203368655488134,0.1353877777806263
29.600164,14.235217171833572,0.1351154988669139
29.60256,14.27037104153754,0.1348336405799359
29.604952,14.31669889795885,0.1344871526350214
29.607327999999995,14.36661164699241,0.1341240956586362
29.609736,14.42318232457128,0.1337191362619388
29.61212,14.490322584389672,0.1332286149280127
29.6145,14.55485633898384,0.1327328351638931
29.616896,14.612220308353496,0.1322766717810204
29.619284,14.65948122619245,0.1318773436612741
29.62168,14.69943258918004,0.1315189536218345
29.624075999999995,14.736218368435951,0.1311697520770737
29.626464,14.770909499146835,0.1308201758114454
29.628844,14.80108457168569,0.1304950891361737
29.631248,14.83316919717234,0.1301409237192961
29.633636,14.860086138180904,0.1298074256419857
29.636016,14.889564258443324,0.1294460091631012
29.63842,14.918949830907124,0.1290684829396196
29.640808,14.9445181933332,0.1286955327708843
29.643187999999995,14.968830524975395,0.128300352154775
29.645592,14.985880523594473,0.1279235055909536
29.64798,14.994085397324588,0.1275682715624503
29.650355999999995,14.99689026915114,0.1272209408569803
29.652764,14.987497440901956,0.1269234477122544
29.655148,14.972564841122344,0.1266361126455658
29.657528,14.950741995371947,0.1263740400981101
29.659924,14.918536558837127,0.1261691229651809
29.662312,14.881675294503417,0.1259879628246502
29.664691999999995,14.846583813490644,0.1257799301373839
29.667092,14.817406086918508,0.1255149619561545
29.669476,14.790929309227089,0.1252183524069318
29.671859999999995,14.75928484705758,0.1249394685709604
29.674256,14.72247270040998,0.1246782828200461
29.676644,14.684776610030845,0.1244010397913937
29.679024,14.64135375666618,0.1241554686742487
29.681428,14.601143708861436,0.1238835993798021
29.683816,14.555998294004077,0.123642042339703
29.686195999999995,14.510293800639277,0.1234135957050785
29.688592,14.470176300633144,0.1231548146151111
29.69098,14.42908041323899,0.12291959458763
29.69336,14.391941505509427,0.1226770365416051
29.695756,14.354755375951624,0.1224533539633302
29.698144,14.317010167886378,0.1222428012526307
29.700528,14.282290773925943,0.1220297934183546
29.702932,14.246313453323769,0.1218481613646459
29.70532,14.215643586826545,0.1216438594758466
29.7077,14.187068368874352,0.121442292988401
29.710096,14.165802705773526,0.1212048585376517
29.712484,14.14341888565782,0.1209957055999385
29.714864,14.120848074087007,0.1208100461939097
29.717264,14.099440745501452,0.1206323028765341
29.719648,14.08585482844646,0.1204257666283154
29.722032,14.081021488481811,0.1201861295652996
29.724428,14.074510912994842,0.1199888000536313
29.726816,14.076101288292156,0.1197563082757771
29.729195999999995,14.077784211388083,0.1195407247085628
29.731592,14.082772487842549,0.1193164441515025
29.733979999999995,14.090554260976344,0.1190782525007182
29.73636,14.094564150042787,0.1188796107450634
29.738755999999995,14.100296600601924,0.1186755029899197
29.741144,14.104818346347566,0.1184832068611195
29.743528,14.117860351758068,0.1182464043942012
29.745932,14.136070041646663,0.1179932488274046
29.74832,14.157585084893787,0.1177328827902218
29.750704,14.190041797432777,0.1174062881443936
29.7531,14.222218970718046,0.1170882915946664
29.755488,14.259191741429063,0.1167452477609099
29.757867999999995,14.293743102513089,0.1164266001822778
29.760264,14.329225629156888,0.1161036595970513
29.762652,14.364568386173827,0.1157854585171818
29.765035999999995,14.39776927281749,0.1154837743968393
29.767432,14.426826188341463,0.1152112186857656
29.76982,14.45173913274574,0.1149679880061396
29.7722,14.481727213829489,0.1146924630259478
29.774595999999995,14.505708992673986,0.1144542769029018
29.776984,14.531692872264902,0.1142048976657989
29.779364,14.56047024853515,0.113943278619833
29.78176,14.592832517417651,0.113670365114131
29.784147999999995,14.62812805260635,0.1133819521203736
29.786532,14.663283818168187,0.11309809216059
29.788928,14.702443785222858,0.1127919519701294
29.791315999999995,14.733735118918723,0.1125303795184751
29.793712,14.762512495188972,0.1122756719247531
29.796108,14.789707079593386,0.112023195913726
29.798496,14.804749289892436,0.1118440087556549
29.80088,14.816718464258434,0.1116837915955715
29.803276,14.826825307504874,0.1115323949226495
29.805664,14.840144956311228,0.1113595155103485
29.80804,14.851462504371169,0.1111978287453634
29.810436,14.85905539019199,0.1110520035468824
29.812824,14.869581542319011,0.1108911696411986
29.815203999999994,14.884391435192583,0.1107016386856176
29.817608,14.901762507320017,0.1104882402783348
29.819992,14.91955288832803,0.1102659934393495
29.822371999999994,14.94055607489596,0.1100222498090853
29.824776,14.958905534411413,0.1097874570639911
29.827164,14.977674302807449,0.1095439627637167
29.829539999999994,14.988993746725257,0.1093316271558786
29.831936,14.999941103590729,0.1091107598187648
29.83432,15.0091658989635,0.1088943366546747
29.8367,15.0157369672838,0.1086866219563605
29.839116,15.025520841164012,0.10845767695294
29.8415,15.034373549484451,0.1082326093008976
29.84388,15.040572530752412,0.1080151683276845
29.846284,15.05640992870012,0.1077351864232639
29.848672,15.075739671461466,0.1074280365404189
29.851052,15.09548872310339,0.107112217592704
29.853448,15.111792651759922,0.1068055729107728
29.855832,15.13186846448381,0.1064657579352832
29.858211999999995,15.15608824832739,0.106101834235557
29.86062,15.17793384437222,0.1057399588190911
29.863004,15.196985943737712,0.1053903001579346
29.865384,15.212033841610372,0.1050618378821853
29.867776,15.223357077243918,0.1047479325952905
29.870163999999995,15.234959852131183,0.1044285861297349
29.87256,15.249775432578373,0.1040901998783715
29.874956,15.261797516346215,0.1037628631134437
29.877344,15.276101240114205,0.1034187638179818
29.879724,15.28719215832227,0.1030946630010483
29.882132,15.29949378134384,0.1027610337326727
29.884519999999995,15.311655634738546,0.1024310874027156
29.8869,15.323026092200337,0.1021015645083346
29.889304,15.334256780035265,0.101775141955079
29.891687999999995,15.351214230855724,0.101426229588011
29.894068,15.361885840183213,0.1011139483217874
29.896476,15.371206975070342,0.1008150293655632
29.89886,15.37517343402428,0.1005477870528196
29.901244,15.374716382604802,0.1003085367960084
29.90364,15.371558382304604,0.1000948808411258
29.906028,15.364256410884712,0.0999033934976986
29.908407999999994,15.35825769207694,0.0997181465475183
29.910804,15.353050369202084,0.0995330147460744
29.913191999999995,15.35128816931262,0.0993415694278124
29.915575999999994,15.351108761288994,0.0991499948886586
29.917972,15.347716547705453,0.0989772742732051
29.920356,15.344696421174245,0.0988145270276503
29.92274,15.344330021695514,0.0986458575047435
29.925135999999995,15.3464775796424,0.0984745163187909
29.927524,15.35155840389548,0.0982910010451123
29.929904,15.356639228148556,0.0981077540344327
29.932308,15.362511448334557,0.0979249149495871
29.934692,15.37210833075966,0.0977307385121053
29.937076,15.383847083558049,0.097524796801454
29.939471999999995,15.392792339677104,0.0973284612814742
29.94186,15.406533193221907,0.0971149472346361
29.94424,15.422415917139988,0.0968902469390114
29.946636,15.446726352924316,0.0966217860922954
29.949023999999994,15.47997635725409,0.096315672242669
29.951404,15.51629939751692,0.0959957458017466
29.953804,15.56077061039228,0.0956395029890016
29.956191999999994,15.603519261774943,0.0952864336924266
29.958572,15.643194877224552,0.094948224719664
29.960968,15.681287700808324,0.0946107065626373
29.963356,15.719520294018954,0.0942708914401976
29.965736,15.758544283162504,0.093931049002845
29.968132,15.7927726748803,0.093608771294374
29.97052,15.82513873547854,0.0932931998055463
29.9729,15.854571529770586,0.0929896257575776
29.975296,15.884004324062632,0.0926871740748731
29.977684,15.915299449474237,0.0923806869956922
29.98008,15.942730143019864,0.0920877686218143
29.982476,15.96508569988602,0.0918177344080642
29.984863999999995,15.98716171749846,0.0915545654155471
29.987244,16.006956095110755,0.0913055958841236
29.989647999999995,16.020092544177746,0.091077977425574
29.992036,16.03015595731168,0.0908645177539509
29.994416,16.03672702563198,0.0906745266042688
29.996812,16.040364827646084,0.0904958408266278
29.999199999999995,16.041069363353994,0.0903278059039356
30.001584,16.036558992755566,0.0901843376729244
30.00398,16.037123758836618,0.0900202950850771
30.006367999999995,16.0416927264105,0.0898408815332963
30.008748,16.045330528424604,0.0896639506786288
30.011143999999994,16.050039265625347,0.0894820482008197
30.013528,16.061033844319063,0.0892722680333912
30.015908,16.07030586152008,0.0890636908929106
30.018308,16.080509044280873,0.0888531789073984
30.020696,16.093785262974723,0.0886303520286426
30.023076,16.10519915054902,0.0884124956196909
30.025472,16.111118592563262,0.0882234390693973
30.02786,16.122113171256977,0.0880143466622222
30.030255999999994,16.137111951443522,0.0877905896881496
30.032652,16.15145910532401,0.0875638921479559
30.035036,16.17195233107061,0.0873129182573365
30.037416,16.196309988683186,0.0870497962706759
30.039812,16.223880451855674,0.0867721879321525
30.0422,16.24879718797569,0.0864987026160109
30.04458,16.273853693722568,0.0862233578566404
30.046976,16.300120904282938,0.0859404870023259
30.049364,16.32559671891039,0.0856572475804127
30.051744,16.34227273461926,0.0854024167635961
30.054144,16.353361756969463,0.085160570082177
30.056532,16.36538194487944,0.0849167518333604
30.058927999999995,16.378193528722335,0.08467448404161
30.061324,16.38299670957956,0.0844609639147689
30.063711999999995,16.395808293422462,0.0842198611819734
30.066092,16.40596615021288,0.0839823641673484
30.068492,16.41225957513733,0.083756192631203
30.070879999999995,16.419344395994695,0.0835308641694733
30.07326,16.431132266479196,0.0832776591876914
30.075655999999995,16.44105780584414,0.0830292070793723
30.078044,16.450331718903026,0.0827780051708639
30.080428,16.457603531215494,0.0825335621393149
30.082823999999995,16.46087114203513,0.0823033697241442
30.085212,16.46735155841468,0.082059799883662
30.087596,16.470758938861177,0.0818279072434516
30.089991999999995,16.473886780053956,0.0816011502022735
30.092375999999994,16.47701462124673,0.0813748993491057
30.09476,16.482004793559064,0.0811454388484717
30.097156,16.487926131431173,0.0809142192150318
30.09954,16.499574232288815,0.0806688560702484
30.101924,16.516809326505125,0.0804125061846265
30.10432,16.533113255161656,0.0801582182468577
30.106708,16.54369042083266,0.0799175807356533
30.109088,16.55505898243658,0.0796773309829181
30.111484,16.560141702547533,0.079462221557104
30.113872,16.567086753778035,0.0792435599063234
30.116252,16.576033905754958,0.079018622583566
30.118648,16.588473402545517,0.078775565937187
30.121036,16.600912899336073,0.0785332990968693
30.12342,16.613352396126636,0.0782914398989976
30.125816,16.624720957730553,0.0780545737487865
30.128204,16.639814181573584,0.0778113191082532
30.130584,16.65425577911056,0.0775646129817511
30.13298,16.66441363590098,0.0773359940977441
30.135368,16.673640327131622,0.0771088777284398
30.137747999999995,16.686219593549044,0.0768662542191922
30.140144,16.69293232735407,0.0766384438696535
30.142532,16.695780629293125,0.0764199896053167
30.144915999999995,16.697046139366346,0.0761992975253855
30.147312,16.698870727947003,0.0759683619327703
30.149696,16.69617925835563,0.0757425550262066
30.15208,16.692975932085062,0.0755100267142756
30.154475999999995,16.69806054805388,0.0752494799822648
30.156864,16.707708444022977,0.0749671925953272
30.159244,16.719917519245925,0.0746685834662962
30.16164,16.733197529655516,0.0743665028577173
30.164027999999995,16.746617309691963,0.0740622715033062
30.166412,16.749886816369468,0.073788195256442
30.168808,16.75022305674078,0.0735212107505506
30.171195999999995,16.749767901179172,0.0732530832184461
30.173576,16.747590184124867,0.0729850335106626
30.175976,16.742898509644952,0.0727161577242142
30.17836,16.73713589997839,0.0724510219220687
30.180744,16.728999102513082,0.0721814056214274
30.183139999999995,16.72114184430149,0.0719060033803788
30.185528,16.710211550156846,0.071639858378365
30.187908,16.705287558251445,0.0713572921804733
30.190304,16.703576371905964,0.0710628699654595
30.192692,16.70372751668004,0.0707657980529312
30.195076,16.700665855894197,0.0704806397031073
30.197472,16.70267933178783,0.0701813782169018
30.19986,16.70520466436066,0.0698885966379746
30.20224,16.698371119507463,0.0696254462905785
30.20464,16.68846453872121,0.0693714554137321
30.207028,16.67827841868124,0.0691227779468137
30.209408,16.66408809714843,0.0688838055042962
30.211808,16.64882684042899,0.0686484561889226
30.214192,16.641713756322073,0.0683900479844519
30.216572,16.63753393852135,0.0681255988784132
30.218972,16.634425055907265,0.0678574780271942
30.221364,16.632247338852963,0.0675880266702593
30.223744,16.631140556985297,0.0673149839642044
30.22614,16.63189610623719,0.0670397149391214
30.228528,16.63637631772819,0.0667599044182243
30.230912,16.645512357018088,0.0664754429277281
30.233308,16.659071906681397,0.0661744159127802
30.235699999999994,16.67170029078493,0.0658751156218402
30.23808,16.68325773970182,0.065580128194789
30.240476,16.693744253432076,0.0652889786780406
30.242864,16.704370536789188,0.0649950195688443
30.245248,16.71085284902661,0.0647130341799322
30.24766,16.720547966823947,0.064421132993068
30.250048,16.736668695741116,0.0641081155379009
30.252432,16.75372059021806,0.0637946417248567
30.254828,16.76811875764253,0.063481233705332
30.257212,16.787731831373335,0.0631536917502293
30.259592,16.809347005850558,0.062822542355682
30.261992,16.829891245141134,0.0624957448193514
30.26438,16.847641987752382,0.0621718571162439
30.26676,16.86339062961721,0.0618524063548659
30.269155999999995,16.878068336295403,0.061536273734721
30.271539999999995,16.889533237413676,0.0612300339759295
30.273924,16.899275577039255,0.0609228479096161
30.27632,16.907946981478197,0.060619196360759
30.278707999999995,16.911031392558467,0.0603202337467657
30.281088,16.911834163638602,0.0600309902622954
30.283488,16.91291647397245,0.0597370551473269
30.285875999999995,16.91213645318675,0.0594443944389338
30.288256,16.914569237960965,0.0591427811341876
30.290668,16.917513879414372,0.0588478499813186
30.293056,16.924462722360616,0.0585458568169964
30.295435999999995,16.928478299000663,0.0582487270917657
30.297836,16.933005732319906,0.0579594043185152
30.300224,16.936602000079375,0.0576708282971474
30.302603999999995,16.94578526119751,0.0573794503743588
30.305,16.95161594712887,0.0571001163133416
30.307392,16.954513366754036,0.0568249248487313
30.309771999999995,16.956339851192563,0.0565528253268539
30.312168,16.960028666750645,0.0562798036943093
30.314556,16.966231439734344,0.0560104965491748
30.316939999999995,16.978160975703574,0.0557367682840348
30.319336,16.996096813912054,0.0554535932754783
30.321724,17.01575521361323,0.055172281676194
30.324104,17.03727594443396,0.0548906971292108
30.3265,17.06531483417314,0.0546072803346493
30.328888,17.09442465909896,0.0543220454063251
30.331267999999994,17.122044239957564,0.0540475057695279
30.333668,17.15352825268214,0.0537700321170786
30.336056,17.181659690219938,0.0535041395254233
30.338435999999994,17.211141602198097,0.053231088165965
30.340836,17.237550478243197,0.0529646245725733
30.343219999999995,17.26381958466144,0.0527009225780561
30.345603999999994,17.28743496402721,0.052436352798958
30.348,17.311841739325896,0.0521744019896563
30.350387999999995,17.32945081645241,0.0519192278632747
30.352768,17.34640826727287,0.0516594933793218
30.355163999999995,17.36136361734691,0.0514021122370192
30.357555999999995,17.375248032234317,0.0511472791484008
30.359936,17.384057310442248,0.050900221807733
30.362331999999995,17.38928169603793,0.050651438039062
30.364723999999995,17.383704181968604,0.0504137927540403
30.367104,17.367045228980555,0.0501916320485975
30.369499999999995,17.34638207449968,0.0499743024928728
30.371891999999995,17.322925423339463,0.0497570948950336
30.374272,17.29066897326066,0.0495478075725964
30.376667999999995,17.247982710569197,0.04935776437117
30.37906,17.199290145638482,0.0491745035812066
