Time,Force,Position
30.515192,2.1258142481447826,0.1552400104174693
30.517579999999995,2.1289345059060807,0.154923032457831
30.519976,2.1307042892270207,0.1547280338857752
30.522372,2.141785728145743,0.1540900054015624
30.524764,2.149514591877689,0.1536896302973962
30.527144,2.154170419676581,0.1534728527022263
30.52954,2.163901384154945,0.1529768750784106
30.531928,2.178055859006723,0.1522051395965307
30.534312,2.18578472273867,0.1518277282533868
30.536708,2.1963070831499523,0.1513410069335852
30.539096,2.206969213188095,0.1508346574902898
30.54148,2.2172592561738997,0.15026050650195
30.543876,2.228620234346342,0.149618340403696
30.546264,2.2425423917726435,0.1487744458177111
30.548648,2.2558129228928863,0.1479090234386996
30.551044,2.275369295506101,0.146675914118691
30.553436,2.2981384736792303,0.1452817545512556
30.555816,2.318905551105943,0.1439538251528227
30.558212,2.3336663262934048,0.1429681599562524
30.5606,2.3524313029737005,0.1417913321514681
30.562984,2.370776970773416,0.1407098912074542
30.56538,2.387400077080435,0.1397472580875388
30.567768,2.4035113267082564,0.1387485050875384
30.570152,2.4125925607384318,0.1379801121720064
30.572548,2.4220931036491877,0.1371337735174005
30.574936,2.432944121000302,0.1361797784428624
30.577316,2.437137209806109,0.1355060322476783
30.579712,2.434904687492084,0.1351779079870599
30.5821,2.4372354451783336,0.1345702771309453
30.584484,2.435841540625469,0.1341080549722969
30.58688,2.434168096818885,0.1336906962367376
30.589268,2.4363590848782746,0.1331157923339708
30.591652,2.438689842564524,0.1325204047126832
30.594048,2.440741060997053,0.131976018366355
30.596436,2.447308337601614,0.1312958647043989
30.598816,2.451454204579177,0.1307794324668149
30.601216,2.4514561004370465,0.1304526811638011
30.603604,2.4556019674146103,0.1299388169920263
30.605984,2.458165042526337,0.1294304940174869
30.60838,2.458865786518507,0.1289941858221968
30.610768,2.458914904204619,0.1285483458590034
30.613152,2.450955618905064,0.1284266118403066
30.615548,2.4447188950982053,0.1282640298988753
30.617936,2.4431379990902387,0.127950513831363
30.62032,2.4402066286419126,0.1277286802452855
30.622712,2.4367161796861465,0.1275922855722829
30.625104,2.436670853715772,0.1273743079256142
30.627483999999995,2.439838333305313,0.1269920055772115
30.629884,2.443517669574053,0.1266504276411737
30.632272,2.445986301029293,0.1263787718701404
30.634656,2.4495258676711726,0.1260558233773149
30.648992,2.4495730894994163,0.1259315972345634
30.651392,2.453018212484809,0.1258620512240229
30.658559999999994,2.46828705263573,0.1257914259326394
30.665724,2.4950075228998427,0.1256503904443518
30.668116,2.50995149782667,0.1254156954870718
30.670496,2.5241040768205787,0.1251823837074993
30.672895999999994,2.536534094321791,0.1249839245528805
30.675284,2.548684572569283,0.1248261301090018
30.677668,2.560043654883857,0.1246824706956918
30.680063999999994,2.573404837944848,0.1244580902401064
30.682452,2.588348812871675,0.1242279757009894
30.684836,2.6006390607460275,0.1240584130053625
30.687231999999995,2.616002344553435,0.1237750384243513
30.68962,2.635649369107397,0.1233128189190206
30.692004,2.6506405658624668,0.122972270071959
30.701567999999995,2.6782468757159834,0.1226228412621004
30.703956,2.682064085753714,0.1226051967937051
30.70634,2.6910962020977767,0.1223736873306947
30.708735999999995,2.6965434258295864,0.1222356152941273
30.711124,2.701059484001618,0.1221221667435721
30.713508,2.708276491054367,0.1218420672865765
30.715903999999995,2.708556030308088,0.1218043938745834
30.718295999999995,2.714190245495001,0.1215527304441293
30.720676,2.723968431801608,0.1211546523314229
30.723076,2.731884286988658,0.120799182318087
30.725463999999995,2.7331422136304004,0.1206291240118954
30.727847999999994,2.735610845085641,0.1203978362775672
30.730244,2.733982727249431,0.120215420852681
30.737424,2.71764484776974,0.1199978158225504
30.739812,2.711360902134638,0.1199375757566075
30.742196,2.705496265380117,0.1198194599304072
30.744595999999994,2.704566995678208,0.119540809277034
30.746984,2.705267739670379,0.1191328855013115
30.749368,2.7093210588493246,0.1185791001642364
30.751763999999994,2.713374378028271,0.1180310533219574
30.754152,2.714354661274162,0.1175996504865341
30.756536,2.717057506012749,0.1171432249643141
30.758936,2.7240440914978903,0.1165259243434282
30.761323999999995,2.726746936236477,0.1160746741872004
30.763704,2.727727219482368,0.1156449999911699
30.766104,2.721770034929229,0.1154330185425152
30.768491999999995,2.7096667785099804,0.1154298480742279
30.770876,2.702778428397064,0.1152393072144826
30.773276,2.7052017338819314,0.1148218175885097
30.775664,2.709487370486355,0.1143685007114059
30.778044,2.714284863769976,0.1139434645335042
30.780444,2.716149090747402,0.1136017403188423
30.782832,2.7222970584713817,0.1130941796420594
30.785216,2.7335201628748336,0.1124187845420228
30.787616,2.745534663211204,0.1117524536244718
30.790004,2.7561986891072148,0.1111682072939755
30.792387999999995,2.766722945376366,0.1106102123462876
30.794788,2.7857674613103827,0.1098640240139067
30.876031999999995,2.4956594984428766,0.1095239530376795
30.878415999999994,2.493564849897843,0.109491768727904
30.880812,2.5002700002713945,0.1092256594330849
30.883204,2.5086977121376424,0.1089403778705361
30.885583999999994,2.5204779991906667,0.1085174882559379
30.887984,2.5346796958706874,0.1079679490534046
30.890367999999995,2.5459481262445136,0.1074849681703974
30.892751999999994,2.558287491804978,0.1069569903611397
30.895148,2.568624756619026,0.10648869803365
30.897535999999995,2.578450164753876,0.105982282259603
30.899916,2.5872046377020874,0.1055207679808173
30.902316,2.5968902762100776,0.1050420977280689
30.9047,2.6093694113974024,0.1045044987865662
30.907084,2.620545293972613,0.1039407383001304
30.909484,2.629207219122207,0.1034055372410312
30.911871999999995,2.635355186846186,0.1028959252728888
30.914252,2.6405719890103887,0.1023998954383236
30.916652,2.646300647853788,0.1019443253548068
30.919039999999995,2.6524013937495243,0.101547124712159
30.92142,2.6670223993101256,0.100958728832201
30.92382,2.678058512258475,0.1004409836816093
30.926204,2.6837871711018737,0.1000051210209071
30.928588,2.682066505467047,0.0997200560061732
30.930992,2.6802060702053594,0.0994543565416182
30.933384,2.678717721996009,0.0992424570788614
30.935768,2.6808142663989125,0.0989827934361588
30.938164,2.691058983414344,0.0985058790305907
30.940556,2.703725110056772,0.0979362465648284
30.942936,2.721234055953196,0.0971775544720563
30.945332,2.740465563342315,0.09640878862867
30.947724,2.7619787107315723,0.0955707454944617
30.950104,2.7833520884939684,0.0947587767420557
30.952504,2.8037943006965875,0.0939758552276669
30.954892,2.823817204018625,0.0932466489919134
30.957272,2.8464938343931374,0.0924988810284644
30.959672,2.8690306951407893,0.0917620834948351
30.96206,2.894500822194637,0.0909636671293575
30.96444,2.917037682942289,0.0902198216724493
30.966836,2.9418561836900787,0.089414462849531
30.969224,2.962950022198755,0.0886915203762185
30.971608,2.985207343692687,0.0880226176999618
30.974004,3.01198072335865,0.0873116801794617
30.976396,3.0404766645173096,0.086588753425161
30.978776,3.0661791089966344,0.085901920604082
30.981179999999995,3.0941631934760965,0.0851571036776744
30.983568,3.119214011649363,0.0844775141085365
30.985948,3.138770384262577,0.0839619870598785
30.988344,3.153763476875516,0.0835870970599732
30.990736,3.165915850980878,0.0833498058074685
30.993116,3.179930556205796,0.0830967291064773
30.995512,3.1904529166170787,0.0829505538854376
30.997899999999994,3.198042010722165,0.0828499649063438
31.000284,3.204560169640614,0.0827755196165084
31.00268,3.211218098185922,0.0826868735723067
31.005067999999994,3.2160136956116743,0.082620623831653
31.007452,3.221880228224064,0.0825294340822427
31.009848,3.229748861582872,0.0824066811354998
31.012235999999994,3.240550761247874,0.0822382054326155
31.01462,3.2492107905395997,0.0821218987333832
31.017016,3.2566601150178256,0.0820447176454376
31.019403999999994,3.2663910794961897,0.0819083934493126
31.021788,3.273188777668358,0.081816081968421
31.024187999999995,3.2787757710270284,0.0817601460343203
31.026576,3.287156261065033,0.0816757379964287
31.028956,3.291532549610204,0.081657170139366
31.031355999999995,3.295908838155376,0.0816386022823033
31.033744,3.3025667667006844,0.0815603045241674
31.036128,3.313508435992546,0.0813902014612312
31.038528,3.322587774164852,0.0812377430724684
31.040916,3.327942450098045,0.0811240811372768
31.043296,3.3386518019644305,0.0808998575629754
31.045696,3.3525739593907304,0.0806076632830795
31.048084,3.36756705200367,0.0802949054435518
31.050464,3.383351540549528,0.0799887054907111
31.052859999999995,3.3997876554014423,0.0797017386120831
31.055252,3.4180861013729142,0.0794014126071889
31.057632,3.4313094106649147,0.0791855924595377
31.060028,3.4428101584642183,0.078974088111204
31.062416,3.4525883447708248,0.0787667493456055
31.064796,3.4632976966372104,0.0785518406999934
31.067192,3.468420055144926,0.0783876012039766
31.069579999999995,3.4738219529063623,0.0781976773703714
31.07196,3.483367821787492,0.0779379346970724
31.074355999999995,3.4950555610418985,0.0776413101618316
31.076747999999995,3.511958206602638,0.07726098192372
31.079128,3.531142492163514,0.0768327641944133
31.081523999999995,3.5486042162316944,0.0764092288907827
31.083912,3.5623412780607606,0.0760176361771248
31.086296,3.576777188024129,0.0755623962416948
31.088691999999995,3.5893507668679403,0.0751170464701143
31.09108,3.5934040860468857,0.0747495884803633
31.093464,3.5926618078000803,0.0744276296574054
31.095859999999995,3.5892658025008,0.0741131297986837
31.098251999999995,3.582284904589266,0.0738120273780987
31.100632,3.57227819257292,0.0734724072201003
31.103032,3.558686587944321,0.0731462948903951
