Time,Force,Position
30.592396,1.6001120853753712,0.1570763646143224
30.594788,1.607978822876309,0.1570232292346912
30.597168,1.6149143948174685,0.157019661310024
30.599564,1.6261337075051825,0.1566588283980135
30.601956,1.6364218546331175,0.1563548773985707
30.604336,1.6507142032538866,0.1557763297488101
30.606736,1.667427961501653,0.1549694915766649
30.609123999999994,1.685352424562918,0.1539936329325287
30.611504,1.701274786877767,0.1531823407377195
30.613904,1.7201304154988106,0.1521749763042572
30.616291999999994,1.7407086056125507,0.1511063478346531
30.618672,1.7572825942334571,0.1502980005990429
30.621072,1.775067287667862,0.1493481423301209
30.623459999999994,1.7892670884900144,0.1486119550258093
30.625844,1.804817363752525,0.1477209588464124
30.628243999999995,1.8212988045748149,0.1468036160105548
30.630636,1.84099305095702,0.1456560119133516
30.633024,1.8568228654732517,0.1447780041466707
30.635424,1.8717215144297048,0.1439437524988485
30.637812,1.883407357826242,0.1433806642376876
30.6402,1.8909492301030852,0.1431075840345494
30.642596,1.897699706447011,0.1428654132154779
30.644988,1.907523218723992,0.1424229463011828
30.647376,1.9172069613741125,0.1420291527683951
30.649772,1.9278218695840117,0.1415899108764841
30.654548,1.9342455848459732,0.1415719418792623
30.656944,1.938993960443482,0.1414692336894567
30.66412,1.9470004675712804,0.1414204282270199
30.666512,1.9532390872360084,0.1411645071098959
30.668907999999995,1.9633421387667096,0.140721644464889
30.671308,1.9740968166034687,0.1402819408340074
30.673696,1.9852708033208084,0.1397757182040628
30.676092,1.9935115237319527,0.1394253724964104
30.678487999999994,1.9958857115307076,0.1393797198221223
30.680876,1.9989115256355197,0.1393437976800887
30.683276,2.00286850530011,0.1392641194191964
30.685676,2.008967355337977,0.1390490895009886
30.688064,2.016276910189344,0.1387267739171667
30.690459999999995,2.020653198734515,0.1385619238146991
30.692864,2.025960652839465,0.1383652593261716
30.695252,2.0275434447053016,0.1383350646821591
30.697652,2.0304767110114965,0.1381880955428337
30.700056,2.040626984370441,0.1376337612555364
30.702452,2.049706322542747,0.1371348099921047
30.704848,2.0582738040358555,0.136614576343548
30.707244,2.064187558476489,0.1361848524266737
30.709644,2.073174348850178,0.1355799352803048
30.712039999999995,2.083232074410505,0.1349155346382637
30.714428,2.089425368104859,0.1344429616283155
30.716828,2.0897521291868224,0.1342542500743468
30.719224,2.0895670335895886,0.1340267139714683
30.721612,2.092966830604607,0.1336872746551308
30.724,2.097437562806265,0.1332844753538556
30.726408,2.106052266127616,0.1326559168840433
30.728796,2.115086278329548,0.1319513064690191
30.731179999999995,2.1251912257181185,0.1311915037013636
30.73358,2.130221036427217,0.1306843381558894
30.735968,2.1391152790022887,0.1300150411031333
30.738347999999995,2.1478697519505,0.129351268760046
30.740748,2.15182862747296,0.1289038488350839
30.743136,2.159651934861393,0.1282845516432928
30.74552,2.1673354726229666,0.1277094056517095
30.74792,2.167802003331791,0.1275032347705865
30.750308,2.172924361839506,0.1271258133220884
30.752688,2.176416706653141,0.1269047720121611
30.755088,2.1836337137058908,0.1265494899818379
30.757476,2.192713051878197,0.1261413319193933
30.75986,2.199790289304086,0.1258224394020223
30.762256,2.207798692289753,0.1254685018181682
30.764644,2.217948965648698,0.1249953943476218
30.767028,2.2299615701271995,0.1244587636605591
30.769424,2.234245310873753,0.1242377024043586
30.771816,2.2406709219935843,0.1239122556999314
30.774196,2.2488190946061124,0.1235602890697074
30.776596,2.260040303151695,0.1230886110397226
30.778984,2.272192677257056,0.1226010752227129
30.781368,2.292493223974945,0.1217910331620164
30.783784,2.307858403640222,0.1211682187058393
30.786172,2.3270880151714723,0.1204109052790885
30.788552,2.347109022635641,0.1196284884264135
30.790952,2.3621946630471973,0.1190284721055986
30.79334,2.3726244756598622,0.1185707590820187
30.795724,2.3833338275262475,0.1180461307554715
30.79812,2.3913894523401584,0.1175990634269781
30.800508,2.4009353212212883,0.1170376167461856
30.802896,2.4075479237962227,0.1165887974149061
30.805296,2.410296094505184,0.1162797706324642
30.807683999999995,2.4169086970801184,0.1158428942345425
30.810068,2.424732004468552,0.1153404961870133
30.812464,2.432555311856985,0.1148400845681388
30.814851999999995,2.440378619245418,0.1143472441381892
30.817236,2.448993322566769,0.113833179730347
30.819655999999995,2.456676860328342,0.1133588059007804
30.829235999999995,2.4450873564461606,0.1130350383197289
30.831624,2.4407582897292324,0.1129974758294763
30.834019999999995,2.437779697452664,0.1128767519041828
30.836412,2.437222514803092,0.1126332766097195
30.838795999999995,2.4416006992061323,0.1122370621168113
30.841196,2.4514261073409824,0.1117253986864338
30.843584,2.468049213648001,0.1110225983949006
30.845968,2.48467231995502,0.1103231019931338
30.848375999999995,2.497011685515485,0.1097843787717798
30.850764,2.5102822166357277,0.1092198319588687
30.853148,2.5236925173828304,0.1086302316585994
30.855548,2.5321674510773216,0.1081971886507852
30.857935999999995,2.538360744771676,0.1078690660351558
30.860319999999994,2.5444142688391698,0.1075612069494675
30.862728,2.5526096632799407,0.1071810451269869
30.86512,2.562807158467128,0.106732598469469
30.867504,2.570862783281039,0.1063684295511267
30.869912,2.5778474729083114,0.1060391840474171
30.8723,2.588184737722359,0.1055563222045873
30.941807999999995,2.5365589064854475,0.1054065053822411
30.944192,2.5409824168588617,0.1052329100806372
30.94898,2.5360017238358754,0.1051640956083424
30.951364,2.535769406410398,0.1050907577007566
30.953772,2.540472456037533,0.1048886805164436
30.95616,2.5487603982769214,0.1046295544795406
30.958544,2.558398814956668,0.1042903046007045
30.960964,2.574602612383106,0.103712869403277
30.963352,2.5890838483168475,0.1031565162222127
30.96574,2.599840422011476,0.1026779528140857
30.968136,2.607012103093852,0.102260582126336
30.970527999999995,2.6171170504824226,0.1017665841425638
30.972912,2.635742257535858,0.1011054559120993
30.97532,2.657300730895489,0.1003811097301188
30.977712,2.677928038695341,0.0996784375219951
30.980096,2.7031186264954683,0.09880155341805
30.982508,2.726726422429759,0.0979287069107817
30.984896,2.7464697864980763,0.0971295690507099
30.987283999999995,2.7680754816859494,0.0962993873644485
30.989684,2.7859092928064677,0.095652462775014
30.992076,2.799971219859629,0.0951973942182481
30.994451999999995,2.8178975787787635,0.0946627284597576
30.996856,2.8367551032576754,0.0940995542583845
30.99924,2.8483956206838394,0.0937390015410376
31.00162,2.855240540684252,0.0934860386851551
31.004024,2.8625047695652444,0.0931876195772575
31.006408,2.8707001640060152,0.0928731504186227
31.008788,2.876753688073509,0.0926339984166257
31.011192,2.8834588384470607,0.092412013621413
31.013576,2.897892852552559,0.0920488202585109
31.015956,2.910976392217699,0.0917431719800815
31.01836,2.9254104063231976,0.0913819557750455
31.020748,2.9314639303906915,0.0911547663103284
31.023128,2.9355153537117675,0.0909731471249578
31.025532,2.941568877779261,0.0907515754005411
31.027919999999995,2.943338661100201,0.0906452962676016
31.0303,2.9446891355405604,0.090585365111681
31.032695999999994,2.950695437779811,0.0904588601725767
31.035084,2.9572608185265024,0.0902733268561433
31.037464,2.965456212967273,0.0899952305102787
31.039868,2.970346254049511,0.0897191700247226
31.042252,2.971371863265776,0.0895117147605623
31.044632,2.97267701173576,0.0892711503486796
31.047036,2.981478706512215,0.0888266340758836
31.04942,2.991211566848448,0.0883685213267402
31.051804,2.9961488297589294,0.0879919799256662
31.054199999999994,3.0009463230425504,0.08763181337945
31.056588,3.0026707803931165,0.0873437810737338
31.058968,3.0057457121840407,0.0869970707150891
31.061372,2.9989499098697414,0.086839092542915
31.063756,2.9987194883021338,0.0865004867012783
31.066136,2.9982095274808054,0.086196972125928
31.068535999999995,2.9979791059131973,0.0858595324890381
31.07092,2.995606813972312,0.0855743527185213
31.0733,2.988718463859396,0.0853310131761495
31.075703999999995,2.985834315239313,0.0850102917251486
31.078092,2.987233907365784,0.0845850238087954
31.080472,2.9918463050521718,0.0840898084052668
31.082864,2.9933856668055028,0.0836595178336683
31.085252,2.993714323745336,0.0832687461702351
31.087632,2.997907412551142,0.0828192392605741
31.090028,3.005825163596061,0.0823288683368549
