Time,Force,Position
32.214116000000004,14.924246908120733,0.1586064357344801
32.21652,15.363057854964824,0.158043761463975
32.218908,15.785298604903748,0.1575000229858837
32.22130800000001,16.203401071296586,0.156846727391746
32.223708,16.595854002611947,0.1563003356778656
32.226096,16.969921627730827,0.1557784298220185
32.22849600000001,17.32159974516039,0.1552970779524974
32.230892,17.659827923446088,0.1547818774825986
32.233284,17.985305010722215,0.1542157285776761
32.23568,18.29016237362997,0.15366667951493
32.238084,18.571699063288627,0.1531578023315174
32.240472,18.83536230343,0.1526554381917639
32.24288,19.08338651222599,0.1521515171225229
32.245272,19.31749425116928,0.15163676814843
32.24767200000001,19.53628782399128,0.1511405208464526
32.250072,19.74386397998343,0.1506458525566504
32.25246,19.945250633996967,0.1501351177903833
32.25486000000001,20.132020074165645,0.1496622088801032
32.257256,20.306686257915068,0.1492164053946092
32.259648,20.480562941589444,0.1487380204868854
32.26204800000001,20.645641722203106,0.1482758253131296
32.264444,20.80476331826362,0.1478012536169029
32.266836,20.957276103464945,0.1473138667099444
32.269220000000004,21.09531144444827,0.1468606875246451
32.27161600000001,21.229019614572536,0.1463744084032152
32.274007999999995,21.347551492344493,0.1459295517630887
32.276388,21.460638042242515,0.1454733182557854
32.278788000000006,21.56492668907981,0.1450311321130345
32.281180000000006,21.658787419162323,0.1446186113501485
32.283564,21.741241845102014,0.1442508154443846
32.28596,21.82001883063084,0.1438886682092906
32.288348,21.890043239069318,0.1435602739238464
32.290732000000006,21.95625043747006,0.14324058762167
32.293128,22.01864042583308,0.1429295177146999
32.29552,22.076561577852303,0.1426249805403956
32.2979,22.12736016647527,0.1423360898788152
32.30030000000001,22.166520133529936,0.1420803572234905
32.302688,22.20540245718876,0.1417932308113278
32.305072,22.23935130965284,0.1414939645508713
32.307472000000004,22.261848532003725,0.1412113009993834
32.30986,22.281274614279425,0.140909262499608
32.31224,22.291203945360103,0.140625347776786
32.31464,22.292800008231023,0.1403636986317056
32.317032,22.2880649036386,0.1401137188300469
32.319416000000004,22.27606746602305,0.1398790525222977
32.32181200000001,22.26546772467611,0.1396197943166123
32.324200000000005,22.25025937735852,0.1393665685401972
32.326584,22.22629845295058,0.1391416616939459
32.328984000000005,22.199591253691555,0.138914701920571
32.331372,22.17456128995485,0.1386580091845994
32.33375600000001,22.144410863568297,0.1384033054994705
32.336152,22.113935571957647,0.1381288476961711
32.338544,22.0769893432568,0.1378673600195268
32.340924,22.032501242279107,0.1376248567470764
32.343324,21.984195931263685,0.1373859482258684
32.345712000000006,21.934727137263003,0.137141609313029
32.348096,21.88460671695627,0.1368953110133574
32.35049600000001,21.832484195903117,0.1366580544635682
32.352884,21.779150970036454,0.1364285114701131
32.355272,21.72819193196856,0.1361938944035019
32.35767200000001,21.6741598579676,0.1359743860322758
32.360060000000004,21.6249233813924,0.135732567802852
32.362444,21.57983087593689,0.1354674594176334
32.364856,21.538463032720493,0.1351864333425838
32.367244,21.502262873982183,0.1348894701919075
32.369628000000006,21.4627101400571,0.1346126049094938
32.372028,21.426602529117417,0.1343249936985588
32.374416,21.396873307469317,0.1340128382596914
32.3768,21.36737640324669,0.1337084181034638
32.3792,21.339694608315384,0.1334095679883483
32.38158800000001,21.31555048416808,0.1331111069724993
32.383972,21.29322146931209,0.1328181998605074
32.38637200000001,21.275361290799893,0.1325222625395977
32.388760000000005,21.26169040937776,0.1322280865263538
32.391144,21.2492755587395,0.1319493494950006
32.39354,21.240538148512112,0.1316692955501221
32.395928,21.234547013135813,0.1313913118453956
32.398308,21.230370987050836,0.1311196944742891
32.40070800000001,21.23308520693664,0.1308287235238557
32.403099999999995,21.234681269807552,0.1305572445126027
32.405484,21.23767313308921,0.1302991758762638
32.407880000000006,21.24313173196823,0.1300493517230107
32.410272000000006,21.24905496569821,0.1298172419068491
32.412656,21.25544283427915,0.1296027859251046
32.415052,21.26178348103184,0.1294022596928199
32.417444,21.274595064874735,0.129190376755258
32.419844,21.28400685170261,0.1290125951684118
32.422244000000006,21.2969563093145,0.1288371911854724
32.424632,21.315585308083676,0.1286520808575837
32.427015999999995,21.334167085024607,0.1284808593897111
32.429412,21.356705841630127,0.1283048691751711
32.4318,21.381990873086743,0.1281324336057346
32.434184,21.410301718648164,0.1279589162787607
32.436584,21.443128622381625,0.1277711661726957
32.43897200000001,21.48261345466039,0.1275576392169046
32.441356,21.52261014361836,0.1273487756846479
32.443764,21.56912499149477,0.1271172784129187
32.446156,21.6140098256771,0.1269015033889427
32.44854000000001,21.658335581351995,0.1266966137732157
32.45094,21.711972992624663,0.1264595118194826
32.453332,21.769195296509587,0.1262118879675158
32.455712000000005,21.824927356327294,0.1259781643280202
32.458112,21.883173373570614,0.1257403245172934
32.4605,21.943002182679777,0.1255013677446364
32.46288800000001,22.00413424440105,0.1252660162101571
32.465288,22.069130737988303,0.1250174658406435
32.467676,22.143718426427053,0.1247331107108813
32.470060000000004,22.21616424449253,0.1244612067262839
32.47245600000001,22.28847029293114,0.1241934517036338
32.474852,22.362359133235596,0.1239246200369078
32.477239999999995,22.436899599846104,0.1236591724090724
32.47964,22.515164728695723,0.1233833139752471
32.482028,22.593010548664765,0.1231157874040674
32.484416,22.67094891643242,0.1228605499961114
32.486816000000005,22.74697773125228,0.1226260190033533
32.489204,22.822028158684112,0.1224078148428525
32.491592,22.897450673168294,0.1221981733577587
32.493988,22.980182742503835,0.1219678264945255
32.49638,23.06715133075769,0.1217312896949585
32.49876400000001,23.14969640863813,0.1215200613749355
32.501164,23.23661777506373,0.1213004177999542
32.503552,23.32791543003452,0.1210719141038454
32.50595200000001,23.42051633761741,0.1208479721511337
32.50836,23.51563120262592,0.1206211312970602
32.51074800000001,23.61554166506018,0.120379727880835
32.513148,23.712611408986863,0.1201613544815368
32.515547999999995,23.804046937726635,0.1199738177894155
32.517936000000006,23.901721086131133,0.1197725213845024
32.520332,24.000838256774607,0.1195736436796962
32.522732000000005,24.106753125590256,0.119353485702608
32.525124000000005,24.211317519965537,0.1191437128459518
32.52752,24.31252933915405,0.1189522753607648
32.529936000000006,24.41695396390248,0.1187482084571566
32.532332,24.521006501598563,0.1185398613461572
32.534732000000005,24.62654928336187,0.1183218918788046
32.537124000000006,24.739309072177925,0.1180766296532396
32.539524,24.84820442912801,0.1178458190473916
32.541920000000005,24.953794432719555,0.1176216973982499
32.544312000000005,25.055008147765932,0.117408464672221
32.546707999999995,25.15571000613311,0.1171927551748648
32.549108000000004,25.25217534558197,0.1169857762584339
32.551496,25.341750439060064,0.1167921066466853
32.55388000000001,25.424575056194215,0.1166092349556251
32.55628,25.50437385922357,0.1164276493349469
32.558668,25.579144747401685,0.1162548163143117
32.561052000000004,25.648515633676237,0.1160839487097001
32.563452,25.718912129167048,0.1158885989406212
32.56584000000001,25.777110924582136,0.1157168589862968
32.568224,25.830840883653423,0.1155450411595789
32.570623999999995,25.87395593451481,0.1153960269479539
32.573012000000006,25.91288168828614,0.1152423926045634
32.575396,25.94654720978076,0.1150884059244964
32.577796000000006,25.971739693438757,0.1149476402545762
32.580184,25.99218380149924,0.1148100514479296
32.582567999999995,26.005737663588945,0.1146842836163104
32.584964,26.00509172485649,0.1145876371844863
32.587356,25.998114618660697,0.1144946763222866
32.589740000000006,25.984387036120975,0.1144112566842939
32.59214800000001,25.96204664611777,0.1143421177096216
32.594539999999995,25.933095549397507,0.1142804796505709
32.59692,25.89753374596017,0.1142262650447941
32.599320000000006,25.862158933977945,0.1141586466811244
32.601708,25.82976461013016,0.1140704077661484
32.60409200000001,25.79169074512508,0.1139870377397578
32.606492,25.747657799709,0.113912390380034
32.60888,25.70646557280049,0.1138189620180928
32.611267999999995,25.65861541734667,0.1137437569501179
32.613668000000004,25.61560808114685,0.1136430753935991
32.616056,25.568364226028717,0.1135480715277826
32.61844000000001,25.51888595273868,0.1134520662696759
32.62084,25.468895822769458,0.1133521257768118
32.623232,25.4197443105614,0.1132399618563427
32.62561600000001,25.36994117204728,0.1131258327252926
32.628012,25.32241967353329,0.1130006268761865
32.630404,25.277878663153743,0.1128545448371476
32.632788000000005,25.239763263894037,0.1126820353892424
32.635188,25.201927403888043,0.1125050265913829
32.63758,25.16758388869568,0.1123106247634724
32.63996,25.13966598462316,0.1120896893666926
32.64238,25.11416949017763,0.1118555425465016
32.644772,25.09281696685179,0.1116055680083195
32.64716800000001,25.07239560908573,0.111352984230576
32.649568,25.05118285538676,0.1111006395890028
32.651956,25.03397430318062,0.1108345778107254
32.654340000000005,25.02104949172103,0.1105508822362578
32.656735999999995,25.005191413955245,0.1102758975257511
32.659124000000006,24.99519986880185,0.1099828816570233
32.661508,24.98572018032766,0.1096935564284375
32.663916,24.97610072222661,0.109405347687572
32.666308,24.96713289043161,0.1091180418020059
32.66869200000001,24.962029490502594,0.1088196242570434
32.6711,24.960231443932106,0.108518105453458
32.673488000000006,24.960295728481167,0.1082116480968124
32.67588000000001,24.95770628597776,0.1079099458479105
32.678276,24.95348682978027,0.1076203023827206
32.680668,24.951641561381532,0.1073302561416765
32.68306,24.95738538708789,0.1070206121436595
32.685468,24.96042826391352,0.1067270407389125
32.68786,24.963703458164638,0.1064413084954216
32.690248,24.97228610652069,0.1061467885169601
32.692648000000005,24.982451546742595,0.1058522804383857
32.695040000000006,24.99033534696436,0.10556783855745
32.697428,24.995657967932264,0.1052973504466811
32.69982400000001,25.001212906325645,0.1050346815172697
32.702212,25.00979365882384,0.1047738143575735
32.704595999999995,25.01767556318773,0.1045223518637212
32.706996000000004,25.02499838904418,0.1042791559630134
32.70938,25.030970740460276,0.1040440372444891
32.711780000000005,25.0481170785937,0.1037844288024704
32.714184,25.07485461157864,0.1035009264029318
32.716572,25.09968259161577,0.103233594143559
32.718968000000004,25.124882658705253,0.1029726931498006
32.72136400000001,25.155250410272814,0.1027060895857264
32.723752000000005,25.187153731877974,0.1024507790793267
32.726147999999995,25.223433342028304,0.1021898472890803
32.728544,25.25715177292477,0.1019431931983433
32.730932,25.28616715419411,0.1017185144367102
32.733332000000004,25.32170069438189,0.1014804645794311
32.735727999999995,25.359608422368424,0.1012429399986132
32.738124,25.397608698153576,0.1010160720348468
32.740520000000004,25.435561752110488,0.1008012151698939
32.742924,25.480544821665045,0.1005772069293941
32.745312,25.53297721569783,0.1003385728968044
32.74771200000001,25.59085683346242,0.10009163936937
32.750108,25.646315041600023,0.0998569518251795
32.752504,25.711084905335404,0.0996044276701701
32.754904,25.78037082724282,0.0993459718280754
32.75729200000001,25.85710607362845,0.0990742406252005
32.759688,25.92955757926753,0.0988194048226493
32.762088000000006,25.99837697046612,0.0985829309716702
32.764476,26.07171241983674,0.0983402776386706
32.766876,26.14663066107319,0.0980989150480521
32.769272,26.2222005286157,0.0978611663056482
32.771664,26.30792066951716,0.0975969231697289
32.77404800000001,26.3921505663514,0.0973428259759284
32.776444,26.47824279430519,0.0970859785232263
32.77883200000001,26.56913061968473,0.0968195034672721
32.781212,26.65573470431773,0.0965681406459987
32.783608,26.74340972413736,0.0963147884646616
32.785996,26.827639620971595,0.0960656435912664
32.788376,26.91429092743283,0.0958072650743377
32.79077600000001,26.99814873721473,0.0955553253489183
32.79316,27.08079584218313,0.0953103669980163
32.79554400000001,27.15864734972578,0.0950767774467157
32.79794,27.236498857268423,0.0948436939583106
32.80032800000001,27.31048593294509,0.0946205348272937
32.802724,27.376744144889827,0.0944145730193636
32.80512,27.437135824222164,0.0942229479143009
32.807512,27.497807042808223,0.0940288434096422
32.809892000000005,27.557035239155308,0.0938334375405478
32.812292,27.61202691658408,0.093641500476214
32.814676000000006,27.664504636587235,0.0934515273050362
32.81706,27.710464197671943,0.0932729067826685
32.81946000000001,27.743479988718377,0.0931253671931556
32.821844,27.778917189391805,0.0929685362690791
32.824228000000005,27.816356490811653,0.0928076224741977
32.826623999999995,27.854215101112075,0.0926424978126375
32.829016,27.89542628659928,0.0924665515119587
32.831396,27.93305257947423,0.0922954678775305
32.83379600000001,27.973472369028503,0.0921204463978979
32.83618,28.01175028820951,0.0919524455576854
32.838564000000005,28.05310124332357,0.0917775268508514
32.840959999999995,28.08965660101188,0.0916119022215589
32.843352,28.126351728327048,0.0914449660894517
32.845732,28.1622554597093,0.0912780211288856
32.848128,28.19443452885244,0.0911171107440861
32.85052,28.2335510657946,0.0909416686113888
32.852900000000005,28.27266760273677,0.0907665711670312
32.855296,28.30978203893252,0.0905965327068218
32.857688,28.345546000687907,0.0904331386291858
32.860068,28.38396368949578,0.090267690178203
32.862464,28.420658816810946,0.0901036416558949
32.864852,28.46135814561895,0.089931004960014
32.867236000000005,28.508203546293064,0.0897437020676521
32.869632,28.55425755103426,0.0895571100135281
32.872020000000006,28.596726663163203,0.0893749617965107
32.87440000000001,28.636262508985947,0.0891992444313103
32.8768,28.6757983548087,0.0890242906024177
32.879188,28.71505466137772,0.0888528342517703
32.881572000000006,28.75165724089427,0.088684217566574
32.883968,28.785885632612068,0.0885150193519897
32.886356000000006,28.812524930224782,0.0883582924363728
32.88873600000001,28.839723306344933,0.088195153030928
32.891136,28.86519912097239,0.0880332065644164
32.893524,28.891234014107283,0.0878650260024998
32.895904,28.918898920936257,0.0876876772562653
32.898304,28.93846287698095,0.0875189907629409
32.90069200000001,28.95271937892069,0.087354654738686
32.90307200000001,28.965393088994603,0.0871898044756682
32.905468,28.976623776829527,0.0870226536040866
32.907855999999995,28.981615844999727,0.0868612265656833
32.910236,28.98674768279679,0.0866981995007472
32.912636000000006,28.98722369279496,0.0865415013915203
32.915024,28.98225247906132,0.0863907764726184
32.917404000000005,28.97183404159587,0.086245953164336
32.919804,28.95890164670481,0.0861015203547394
32.922191999999995,28.94159296326857,0.0859599143498672
32.924572,28.918185429794462,0.0858220034302817
32.926968,28.895476744454665,0.0856760234541845
32.929356,28.87225620243566,0.0855263505230946
32.931740000000005,28.84731309892396,0.0853772661480488
32.934135999999995,28.826933275412543,0.0852136239471172
32.936524000000006,28.806041595221924,0.0850462014210771
32.93890400000001,28.78664015909853,0.084871115688949
32.941304,28.764445226295795,0.084699397546942
32.94368800000001,28.738246092000228,0.0845353349969809
32.946072,28.712978123264435,0.0843697099596103
32.948468000000005,28.69306483046184,0.0841899450908838
32.950856,28.66942687542013,0.0840145177001331
32.95324000000001,28.648489869259134,0.083827016772688
32.955636,28.629694733471418,0.0836336566429638
32.958023999999995,28.611179136937427,0.0834369751662841
32.960408,28.596155885217065,0.0832286982899277
32.962804000000006,28.58127240312356,0.0830184751986443
32.965192,28.565317985843425,0.0828105777051666
32.967588000000006,28.549363568563287,0.0826023286036646
32.969988,28.535131712775843,0.0823930679575654
32.972376,28.521411713667604,0.0821870854142797
32.974756,28.504106821947108,0.081983775156234
32.97715600000001,28.485870764666828,0.0817814033415026
32.979544000000004,28.47070774331961,0.0815723202407297
32.981928,28.45433401715889,0.0813676272773095
32.984324,28.441545183610422,0.0811602016119722
32.986712,28.425543544502048,0.080960662242151
32.989096,28.41233540207301,0.0807577354885926
32.99149200000001,28.402060525950155,0.0805497276982209
32.99388400000001,28.39443937687977,0.0803399881308244
32.996264,28.38518821411532,0.0801393061852777
32.998664000000005,28.38380568470967,0.0799253902772606
33.001052,28.378930810490388,0.0797225232553474
33.003432000000004,28.37670966332357,0.0795181890102964
33.005832,28.37141548022371,0.0793199201011379
33.00822000000001,28.363699887496846,0.0791300395318154
33.010604,28.357706856262684,0.0789395436217672
33.013000000000005,28.3526449905883,0.0787476826488093
33.015388,28.351307787153026,0.0785517593907993
33.01777200000001,28.35490595077036,0.0783478475466132
33.020168,28.363719020694035,0.0781327225070488
33.02256,28.3814244373349,0.0779128978059013
33.02494,28.40257497696117,0.0776926240762282
33.027339999999995,28.422886898826263,0.0774821030007317
33.029728000000006,28.43970647587773,0.0772823870276957
33.03210800000001,28.454104643302205,0.0770912635211284
33.034504,28.473158638525565,0.0768955301149102
33.036891999999995,28.49621683524176,0.0766934995752006
33.039276,28.522999694197072,0.0764882101942636
33.041672000000005,28.54964278352552,0.0762847588114759
33.04406,28.583223340653,0.0760709131033095
33.04644400000001,28.61624481927303,0.0758641722753225
33.04884,28.657646787931075,0.0756499414414813
33.051232,28.699560613268314,0.0754400773739477
33.053612,28.75064632457648,0.0752234724588417
33.056008000000006,28.808110425176224,0.0750029669860208
33.058396,28.870230353574865,0.0747788909042532
33.06078000000001,28.93965983682488,0.0745501407102876
33.06318,29.0145365438067,0.0743191993652127
33.065568,29.087783237094435,0.0740977702299577
33.067948,29.16005154299415,0.0738879158867441
33.070348,29.23124891370723,0.0736818770618988
33.072736000000006,29.30202697553973,0.0734811380379877
33.07512,29.3778801740517,0.0732726657756157
33.077516,29.462672941109112,0.0730517101287251
33.079908,29.550538744099587,0.0728261782039219
33.082291999999995,29.63798523820948,0.0726060251908632
33.084688,29.72459311455821,0.0723962354367983
33.08708,29.813575178705698,0.0721899900359614
33.08946400000001,29.90921517139849,0.0719781523099981
33.091864,29.999500488158088,0.071778720776194
33.094252,30.08485043786508,0.0715864850154485
33.096636000000004,30.162052214959537,0.071408214527308
33.09903200000001,30.23939376168086,0.0712291846235743
33.10142400000001,30.314872977282626,0.0710527999207959
33.103808,30.38769846583192,0.0708780962459489
33.106204000000005,30.461455119940982,0.0707038396995737
33.108592,30.53428060849027,0.0705313435272249
33.11097600000001,30.599237463680755,0.0703694895377349
33.11338000000001,30.664473858124957,0.070205313765309
33.115768,30.73320259738279,0.0700327194662442
33.118151999999995,30.79634434328196,0.0698648161642682
33.120552,30.85804306694215,0.0696944123739512
33.12294,30.91494619317659,0.06952944922591
33.125324000000006,30.965703247544923,0.0693747905847963
33.12772,31.014458201166835,0.0692234018497522
33.130112,31.065774334042604,0.0690643160684931
33.132492,31.114716279119616,0.0689034508184963
33.13489200000001,31.157419604531903,0.0687447201432107
33.137280000000004,31.19453593658552,0.068590444897696
33.139664,31.22992970714645,0.068436156480618
33.14206,31.271329779946623,0.0682743329047169
33.144456000000005,31.317432902373938,0.0681005301348373
33.14683600000001,31.36260485924147,0.0679277912268199
33.149236,31.40740472905665,0.0677508812726476
33.151624,31.450062728498573,0.0675783192543912
