Time,Force,Position
33.949956,14.819742197069054,0.1525514106211898
33.95234,15.205824322524306,0.1519141841705963
33.954724,15.566772561297022,0.1512621049374799
33.95712,15.902027834879757,0.1506048191453149
33.959508,16.20823756808574,0.1499616961472231
33.961892,16.484702912780662,0.1493560911430226
33.964288,16.73165618639001,0.1488002261414044
33.966676,16.951983433391728,0.1482822358266938
33.969056,17.14600951900992,0.1478278844065278
33.971452,17.325699825894834,0.1473657869649843
33.97384,17.4864910740462,0.1469349394166804
33.976224,17.628196272008914,0.1465588177428707
33.97862,17.762408715380896,0.1461538701380656
33.981012,17.8831221019229,0.145765592597322
33.983392,17.988194561261643,0.1454096196126326
33.985788,18.07534445339699,0.1451026384069152
33.988176,18.148296440568053,0.1448211755691702
33.99056,18.210355876133367,0.1445519684778744
33.992956,18.26040460307805,0.1443190107081183
33.995344,18.298395399573863,0.1441351131027869
33.997728,18.332009907524498,0.1439702497812811
34.000124,18.362411609915217,0.1438305376615473
34.002512,18.38918119786544,0.1437242557027939
34.004892,18.414553089547063,0.1436480422148618
34.007288,18.446675457572617,0.1435482003547907
34.009676,18.48661923712873,0.1434175458664633
34.01206,18.53201024041665,0.1432618710775207
34.014456,18.582476380384044,0.1430740704696736
34.016844,18.6367144044188,0.142851728454489
34.019224,18.68313101692298,0.142661773247835
34.021628,18.72801205938957,0.1424605149244142
34.024016,18.76735333032574,0.1422724675542249
34.026396,18.79915272898506,0.1421103471922418
34.028792,18.82313071611382,0.1419791440101161
34.03118,18.841661479510773,0.1418732655261197
34.03356,18.859400846974804,0.1417693081095006
34.035956,18.875929509625333,0.1416759067740401
34.038344,18.89348188563426,0.1415906612428547
34.040724,18.91047518313575,0.1415169411401094
34.043124,18.934126409182543,0.1414077545768979
34.045512,18.965786038215008,0.1412510062801171
34.047908,18.995303796874197,0.141109479375583
34.050304,19.02468178590652,0.1409710300042609
34.052692,19.05624886714036,0.1408031905635093
34.055076,19.08451059501568,0.1406459333564641
34.057472,19.1088153432264,0.140498470524606
34.05986,19.13246846513107,0.1403511188347327
34.062244,19.15239692479662,0.1402221242600791
34.064644,19.17167375815611,0.1400926724452693
34.067032,19.19430316670238,0.139939159431843
34.069412,19.21614117931573,0.1397876052140301
34.071812,19.24054037118294,0.1396136385761105
34.0742,19.26908353416984,0.1394144232979277
34.07658,19.30177066827644,0.139189390379862
34.07898,19.336739442383173,0.1389471267622813
34.081368,19.374921022049826,0.1386844392609693
34.083752,19.41645517690325,0.1383986469332747
34.086152,19.45910748877156,0.1380920867048997
34.08854,19.5035295839608,0.1377653118223479
34.090924,19.547859131351437,0.1374281695523428
34.09332,19.58394795833092,0.1371283364725583
34.095708,19.622737734191123,0.1368044585666308
34.098092,19.662645667066208,0.1364597918182823
34.100492,19.696687067328902,0.1361463482718775
34.10288,19.72863381904656,0.1358321708075753
34.10526,19.757414987032544,0.1355245057315375
34.10766,19.780097304980664,0.1352384397615778
34.110048,19.80548057180951,0.1349287119743552
34.112432,19.825416614906537,0.1346410569702189
34.114828,19.842559161324232,0.1343662942588539
34.117216,19.859981246995645,0.1340864979613888
34.1196,19.87647216710728,0.1338113837117778
34.122,19.88937819460666,0.133550523882929
34.124388,19.90335515729268,0.1332837335434844
34.126772,19.91961375997884,0.1330015822009325
34.129168,19.931076765239244,0.1327425231006017
34.13156,19.939886043447174,0.1324934584490766
34.13394,19.94748461684161,0.1322543122916526
34.13634,19.953872485422544,0.1320247079110744
34.138728,19.9610517499364,0.1317947002897997
34.141112,19.969022410383168,0.1315632417141306
34.143508,19.973920034896885,0.1313489974016351
34.145896,19.97904997683608,0.1311444920678736
34.148276,19.991769012880354,0.1309070411819164
34.150672,20.008584798216084,0.1306612994923278
34.15306,20.029357563216408,0.1304100266032315
34.15544,20.0532959119484,0.1301538963128826
34.15784,20.07453331179968,0.1299216282026415
34.160228,20.10093839612904,0.1296743597302922
34.162608,20.12906604195109,0.1294224916107011
34.165004,20.15877647963899,0.1291690513126155
34.167392,20.188067608446307,0.1289237596025066
34.169776,20.216799658746183,0.128688808740063
34.172172,20.242458673113006,0.128470799357963
34.174556,20.267838148226105,0.1282590024000326
34.17694,20.298152990391817,0.1280241482838865
34.179336,20.326186192557397,0.1278044279287557
34.18172,20.352217293976555,0.127594976539572
34.1841,20.379319330582348,0.1273797759813113
34.1865,20.40255693532217,0.1271824290554347
34.188884,20.424863374502216,0.1269885843900243
34.191268,20.447449352935976,0.1267896955028114
34.193664,20.467661143570982,0.1265944374587558
34.196048,20.483217106407107,0.1264180889125384
34.198432,20.49719027737739,0.1262444311426316
34.200828,20.505716224615863,0.1260897782461219
34.203212,20.512147523309302,0.1259331927960934
34.205596,20.52141954051032,0.1257521611204466
34.207992,20.532740880286,0.1255482014106674
34.21038,20.542339658568974,0.1253489216198866
34.21276,20.55049541461297,0.1251495162042032
34.215156,20.56135211953769,0.1249286065592007
34.217544,20.573838838156497,0.1246918061322097
34.21994,20.58739649196194,0.1244491448703857
34.222336,20.598300418714903,0.1242147167052868
34.224724,20.602266877668846,0.1240118467326343
34.227104,20.60930637255584,0.1237937333252275
34.2295,20.61448353632328,0.1235821708797392
34.231888,20.61700697303824,0.1233784427335045
34.234268,20.62167228012648,0.123163089404363
34.236664,20.635416925387027,0.1229057009135038
34.239052,20.648602492140128,0.1226581765221336
34.241436,20.65950641889309,0.1224245590641011
34.243832,20.667477079339864,0.1222033854431465
34.24622,20.673445639040217,0.1219915989506082
34.248604,20.68006582504663,0.1217809809488019
34.251,20.68892042922494,0.1215702987971144
34.253388,20.694142918962747,0.1213849399091901
34.255772,20.692520488700147,0.1212421170075561
34.258168,20.691968993624183,0.1210934931200495
34.26056,20.690858420040776,0.1209548577009665
34.26294,20.68797806313643,0.1208346048021133
34.26534,20.686680498097925,0.1207128769632257
34.267728,20.68910759529853,0.12057840005612
34.270108,20.69190677955147,0.1204505078180561
34.272512,20.701643431603443,0.1202925756906386
34.2749,20.71245101884206,0.1201294291813184
34.277284,20.733269109812756,0.1199227322394448
34.27968,20.758463489328623,0.1197054141717407
34.282068,20.78216762477727,0.1195014836233924
34.284448,20.79837521391945,0.1193377241293544
34.286848,20.81900631343504,0.1191497889818086
34.289232,20.845503945563017,0.1189385365504088
34.291612,20.878659506236307,0.1187035667928932
34.294012,20.912886002096236,0.1184633078097213
34.2964,20.95139623870272,0.1182013686801799
34.298784,20.9911171801227,0.1179324293645273
34.30118,21.032840222289096,0.1176552570511625
34.303564,21.080849105948463,0.1173480046599025
34.305948,21.131232177406588,0.1170399148376718
34.308344,21.18468828479776,0.1167190222911868
34.310732,21.23493158662903,0.1164142793208979
34.313116,21.286106054020077,0.1161081606877651
34.315512,21.33434725510492,0.1158149666196354
34.317896,21.38766359286924,0.1155011486980141
34.32028,21.440700391379835,0.115193937856533
34.322676,21.492386715450078,0.1148978738972006
34.325064,21.536296953960125,0.1146451092275953
34.327448,21.579276026910392,0.1143964535013765
34.329844,21.62318626542044,0.11414533503208
34.332232,21.667376043184213,0.1138898183587966
34.334612,21.71207767762717,0.1136401547531067
34.33702,21.75663954244328,0.1133942346699993
34.339408,21.79891976725925,0.113162100615992
34.341788,21.84478488468748,0.1129221493270956
34.344184,21.89330372916817,0.1126778940408403
34.346572,21.941543034395156,0.1124392399028342
34.348952,21.991365131487964,0.1122005711541104
34.351348,22.03848627970005,0.1119818216147109
34.353732,22.08560742791215,0.1117642188798897
34.356132,22.132728576124244,0.1115479991802148
34.358528,22.185064630642675,0.1113097283333176
34.360916,22.23325671404141,0.1110894798511364
34.363296,22.28037786225351,0.1108745818605168
34.365692,22.32256364341299,0.1106783994872415
34.368084,22.36474942457248,0.1104833305561173
34.370464,22.4080061409186,0.1102841047765068
34.37286,22.454755202078356,0.1100666016856802
34.375248,22.499641932118557,0.1098549055369241
34.377628,22.545320058091672,0.1096434339508856
34.380032,22.59272074555749,0.1094296110977432
34.38242,22.639469806717244,0.1092154081005886
34.3848,22.6874295726905,0.1089957721667562
34.387196,22.733946316424785,0.1087751933434416
34.389584,22.77860072903951,0.1085607851929814
34.391964,22.81738860904185,0.108366419017842
34.39436,22.8535227619917,0.1081776468207516
34.396748,22.88756226639653,0.1079861029554055
34.399128,22.92365109337601,0.1077754978101263
34.401524,22.9575055021836,0.1075643181185118
34.403912,22.986424543938583,0.1073698985840094
34.406308,23.01804453457428,0.1071592311617482
34.408704,23.05101499965033,0.1069398683363025
34.411092,23.08612733509967,0.1067120008280823
34.413472,23.121658979429583,0.1064780701700313
34.415876,23.152954104841186,0.1062501049480886
34.418264,23.181875042454035,0.1060233197993937
34.420648,23.206419691521717,0.1058044921016687
34.423044,23.23138364946997,0.1055796373210144
34.425432,23.255323894059828,0.1053472588321282
34.427812,23.278100655664435,0.1051094994779254
34.430212,23.296081819843288,0.1048857264348374
34.4326,23.30540295473041,0.1046868384898702
34.43498,23.313792924057765,0.1044903015869161
34.43738,23.318877540026584,0.1042967109694842
34.439768,23.328385666368817,0.1040839322107326
34.442152,23.33831310159163,0.1038648711267786
34.444548,23.349311472001084,0.1036418670488861
34.446936,23.357097036850615,0.1034321503988148
34.44932,23.365953536886792,0.1032184863703626
34.451716,23.376300280990183,0.10299416440558
34.454104,23.37849885248105,0.1027982527701857
34.456488,23.382839294345192,0.1025941348159298
34.458884,23.386807649157003,0.1023843511062855
34.461272,23.393057643968948,0.1021644687497
34.463656,23.39995926508695,0.1019464802401853
34.466052,23.408723217324507,0.1017244611924817
34.46844,23.41934950068162,0.1014982576201647
34.47082,23.43062741034479,0.1012743830896762
34.473216,23.44190532000796,0.1010508327834461
34.475608,23.450110193738084,0.1008376437749705
34.477988,23.460596707468337,0.1006141649418919
34.480384,23.47629812750492,0.1003717862926441
34.482772,23.495631661982006,0.1001114028000784
34.485156,23.517107066832367,0.0998430149686497
34.487552,23.53378687425698,0.0995874758724777
34.48994,23.55339994798778,0.0993243008504456
34.49232,23.571942086531944,0.0990657246723139
34.49472,23.591974469143327,0.0987972594753531
34.497108,23.60865427656794,0.0985431387466692
34.499488,23.628127580671883,0.0982835189168004
34.501884,23.650673920708883,0.0980138511326472
34.504272,23.669635368133623,0.0977505061864263
34.506656,23.68417330518496,0.0975052605306981
34.509052,23.69335656630309,0.0972801016720815
34.51144,23.70468169779451,0.0970472183459311
34.513824,23.71479612447242,0.0968206423051116
34.51622,23.722489141523344,0.0966059825024266
34.518608,23.728319827454705,0.0963953252954009
34.520992,23.731729103759072,0.0961965644487114
34.523388,23.740725373422112,0.0959864945927754
34.525776,23.750373269391204,0.0957788760648222
34.52816,23.759462086852857,0.0955794890704023
34.530556,23.76557041618007,0.0954002718171344
34.532944,23.7729819981194,0.0952256617746553
34.535328,23.780765667111066,0.0950570969255259
34.537724,23.787059092035516,0.0948987300942882
34.540112,23.794795539198937,0.0947429287428111
34.542492,23.8046266349074,0.0945919607418712
34.544888,23.81753076654891,0.0944316528522933
34.547276,23.82922419337692,0.0942775199569591
34.54966,23.842360642443914,0.0941260345978717
34.552056,23.861316402295053,0.0939723291213237
34.554444,23.890142896251408,0.0937936507072579
34.556828,23.92376498763353,0.093604348756202
34.559224,23.95962149718753,0.0934184287883532
34.561608,23.99827150342088,0.0932279078090733
34.563992,24.042648272639745,0.0930254639854813
34.566388,24.089678768911096,0.0928202384445786
34.568776,24.14136509298133,0.0926068329587677
34.57116,24.190630007424577,0.0924054068750131
34.57356,24.23826490817374,0.0922157489410134
34.575944,24.289624471162018,0.092020040585114
34.578328,24.34191519971007,0.0918229636759347
34.580724,24.39658011605688,0.0916276854858944
34.583112,24.454038529083014,0.0914277263334738
34.585508,24.51242810766894,0.0912267911096793
34.587904,24.56881558550844,0.0910316020636702
34.590292,24.62320096260153,0.0908423416316131
34.592672,24.67888959230673,0.0906581992933538
34.595068,24.733227747571583,0.0904817847658964
34.597456,24.784632636530237,0.090312511793182
34.59984,24.831521467316847,0.0901501412482747
34.602236,24.87012235586408,0.0900128362869242
34.604624,24.908583474784447,0.0898779861111111
34.607008,24.942668305159646,0.0897477119340385
34.609404,24.97568220034821,0.0896214688544674
34.611792,25.00925517404421,0.0894886025946165
34.614176,25.044970018113485,0.0893496119754376
34.616572,25.07989346624985,0.0892108958665965
34.618964,25.116446928080286,0.0890618364520606
34.621344,25.154490633977947,0.0889040652078747
34.623744,25.19016015207685,0.0887459898214554
34.626132,25.227180144616117,0.0885813702845832
34.628512,25.25824105674437,0.0884202458130982
34.630908,25.292654544059403,0.0882481638419055
34.633296,25.325345469881736,0.0880775850735175
34.63568,25.362040597196906,0.087898053826906
34.638076,25.39822386783288,0.0877148372290277
34.640464,25.430170619550545,0.0875336399554247
34.642848,25.46253668014878,0.08734714075035
34.645244,25.49811554630693,0.0871511989103075
34.647636,25.531040685412616,0.0869577113927192
34.650016,25.5651765293318,0.086759199595726
34.652416,25.596658646198502,0.0865634798656076
34.654808,25.63214496455804,0.0863589809765788
34.657188,25.66297545511869,0.0861616623574182
34.659588,25.68752010418637,0.085982283659665
34.661976,25.705686363962453,0.0858112212916029
34.664356,25.722921458178764,0.0856419355849958
34.666756,25.7368039772083,0.085484228103122
34.66914,25.752828366611112,0.0853206381898811
34.671524,25.765779720080868,0.0851648491983879
34.67392,25.77286454093824,0.085020792541354
34.676308,25.778738656982103,0.0848815069354631
34.678692,25.77702367892088,0.084754998207656
34.681088,25.77358613936697,0.0846293342752193
34.683476,25.764841145708104,0.0845081978417457
34.685856,25.75409405130282,0.0843914264634983
34.688256,25.74721138876351,0.0842675837358186
34.690644,25.74139966141084,0.0841407032072548
34.693028,25.729721401445783,0.08402517272123
34.695424,25.721907573346694,0.0839025590915583
34.697812,25.71064862226222,0.0837814217744435
34.700196,25.700320836737514,0.0836589407653178
34.702596,25.6838469793467,0.0835513313692636
34.704984,25.670585927515805,0.0834343671134727
34.707364,25.655742083819074,0.0833161698994332
34.70976,25.643132658294235,0.0832011351101567
34.712148,25.62693834015714,0.0830893378032864
34.714532,25.61223426608727,0.0829690423637253
34.716932,25.591523889778145,0.0828616809392304
34.71932,25.5734672405215,0.0827522226225383
34.7217,25.55955456238454,0.082632176861628
34.7241,25.550577251300197,0.0825022145790019
34.726488,25.54346227133541,0.0823695821983597
34.728868,25.5402117232366,0.0822302085299616
34.731268,25.53467953513765,0.0820984364172934
34.733656,25.532080613344892,0.0819611464037958
34.73604,25.5266881948728,0.0818276550219147
34.738436,25.51850227972137,0.0816978269594
34.740824,25.52046663792889,0.0815452913037271
34.743208,25.52257076576328,0.0813912003670222
34.745604,25.531332822142964,0.0812269998937338
34.747992,25.54237651852279,0.0810554051162055
34.750376,25.557983494902885,0.0808684961089688
34.752776,25.573450701656128,0.0806835837821315
34.755164,25.59371350583512,0.0804910048393674
34.757544,25.61732888520089,0.0802883083351339
34.759944,25.64294636531308,0.0800814891017241
34.762332,25.670565946171678,0.0798711557196504
34.764716,25.702329498149968,0.0796510544674676
34.767112,25.73358119344907,0.0794272143289393
34.769504,25.77069942136055,0.0791941581275759
34.771884,25.80316182147315,0.0789669711527786
34.774284,25.8374865527053,0.0787379039490533
34.776672,25.867667312817755,0.0785188160349361
34.779056,25.901712504796187,0.0782934253474769
34.781456,25.9366888623344,0.0780675783884216
34.783844,25.97273615505925,0.0778391984617479
34.786224,26.012647879650068,0.077605158841544
34.788628,26.041478165322168,0.0773938987248608
34.791016,26.07016868136741,0.0771848849015599
34.793396,26.09513453517353,0.0769806150295586
34.795792,26.11609618748682,0.0767843051176538
34.79818,26.136638530919534,0.0765936423251515
34.800564,26.157041104725387,0.0764049163259141
34.80296,26.1775834481581,0.0762148809720788
34.805348,26.195472064538343,0.0760266864172826
34.807728,26.215874638344197,0.0758392087504429
34.810124,26.23427511140363,0.0756558708788887
34.812512,26.25174441890329,0.0754738469243698
34.814896,26.27135559677622,0.0752869145726776
34.817292,26.281887436476843,0.0751175892185483
34.81968,26.296283708043447,0.0749427927403652
34.82206,26.308957418117352,0.0747684011159076
34.824464,26.328056739311084,0.0745785660698938
34.826852,26.35237096681116,0.0743779787146356
34.829236,26.37310030169897,0.0741796793055612
34.831632,26.395831737333204,0.0739783368393235
34.83402,26.41963410815408,0.0737751353045514
34.8364,26.453167443453317,0.0735581933286768
34.8388,26.48576961319277,0.0733425521500352
34.841184,26.52116527961156,0.0731247382469661
34.843568,26.56042537789633,0.0729021328196103
34.845964,26.59875431062132,0.0726808470995878
34.848348,26.64150675371972,0.0724486543416304
34.850732,26.68411942719125,0.0722187330119924
34.853128,26.72938582771527,0.0719887267824861
34.855516,26.77707363786628,0.0717515156451444
34.8579,26.826484009509983,0.0715149582047616
34.860296,26.878827647459897,0.0712751691403514
34.862684,26.930751976529223,0.0710412550450306
34.865064,26.98682027671824,0.0707994479058595
34.86746,27.04568207358659,0.0705563342061698
34.869848,27.10919969825384,0.0703102046558065
34.872232,27.171227078853864,0.0700727484252068
34.874628,27.230041653893977,0.0698437244680902
34.877016,27.295514157479392,0.0696087563392313
34.879396,27.359775956251312,0.0693786380156989
34.881796,27.42189588464996,0.0691541542587855
34.884184,27.4822932515559,0.0689308653963032
34.886564,27.544832488835127,0.0687037126580567
34.888964,27.61030499242054,0.0684741442430987
34.891352,27.67470656081932,0.0682476706287957
34.893732,27.741901625897437,0.0680199043669871
34.896132,27.804533410975274,0.0678052562358662
34.89852,27.87037800161303,0.0675849368076055
34.9009,27.93529142669101,0.0673662967940277
34.903296,27.99498994546265,0.0671579775720013
34.905688,28.05268636348788,0.0669530618489998
34.908068,28.10502810557991,0.0667595770303579
34.910464,28.15723007804508,0.0665682984846479
34.912852,28.2092922808834,0.0663791433978292
34.915236,28.260423318161937,0.0661915760062815
34.917632,28.3106231898807,0.0660055695300684
34.92002,28.35975212641282,0.0658223831572853
34.922404,28.40715850145225,0.0656393778773467
34.9248,28.45163161018548,0.0654605782760759
34.927188,28.495313322985787,0.0652812551126263
34.929568,28.5372724742934,0.0651019000037452
34.931968,28.573085553734906,0.0649323198274892
34.934356,28.60703630205685,0.0647643574635431
34.936736,28.63232702108707,0.064604732129256
34.939136,28.658037048997876,0.0644409583667581
34.941524,28.67951055799036,0.0642756570218384
34.943904,28.69968081437074,0.0641054517554128
34.9463,28.713053372578944,0.0639422285176084
34.948688,28.716043340002727,0.0637859752406503
34.951068,28.71745051556068,0.0636276145753063
34.953464,28.718485604066288,0.0634637776148309
34.955852,28.72250118070634,0.0632868729240432
34.958236,28.71855557618896,0.0631097438767106
34.960632,28.713306719059474,0.0629276610208369
