Time,Force,Position
33.579784000000004,18.14238708652348,0.1513691342227186
33.582172,18.439502314694195,0.151256097470017
33.584552,18.72651638719208,0.1511579391703605
33.58694799999999,19.004732556629254,0.1510739905265507
33.589336,19.28094852117788,0.1509619639126677
33.591719999999995,19.55325472789016,0.1508494101075687
33.594123999999994,19.82016093269887,0.1507535311479316
33.596512000000004,20.08059620041738,0.1506783422384805
33.598896,20.34191730772529,0.1505753717545892
33.601292,20.59965541827881,0.1504497755412274
33.60368,20.85478891946597,0.1502825261369763
33.606064,21.106666184980718,0.1500736867446686
33.608459999999994,21.34267020586672,0.1498818326110938
33.610848000000004,21.5715554550722,0.1496305478265566
33.61322799999999,21.779633988454204,0.1493842337175588
33.615624,21.96425207896025,0.1491545360524842
33.61801199999999,22.127132288083043,0.1489348662774955
33.620391999999995,22.267156458807698,0.1487432516392984
33.622788,22.388421340425666,0.1485667668844965
33.625176,22.49567530853445,0.1483932525586404
33.627556,22.5851464790667,0.1482548805431644
33.629952,22.669079773926395,0.1480934949790201
33.63234,22.739327020501,0.1479534934598404
33.63472,22.80375685214933,0.1477950295319747
33.637124,22.85701459293819,0.147651486528706
33.639512,22.896586285441963,0.1475294385153179
33.641896,22.92675567040721,0.1474028085206116
33.64429199999999,22.95217857563281,0.1472508678489147
33.64668,22.962472410334357,0.147121247157748
33.649064,22.963736024549704,0.1469921435292342
33.65146,22.95592219645062,0.1468760008941991
33.653848,22.93581812047718,0.1467916555038971
33.656228,22.91338707853323,0.1466994573558164
33.658624,22.88229600729756,0.1466479379651853
33.661012,22.8512974838605,0.1466066227223979
33.66339599999999,22.82183453046104,0.1465746574653079
33.665792,22.795909247845582,0.146541416085289
33.66817999999999,22.775663506387417,0.1464943265208383
33.670576,22.76016614052676,0.1464374138836544
33.672972,22.749045063211263,0.1463651131977928
33.67536,22.742067957015472,0.1462694463520714
33.67774,22.73164572783428,0.1461850870186222
33.680139999999994,22.72685771384,0.1460638592037318
33.68252799999999,22.71769341130056,0.1459578658633209
33.68490799999999,22.70592260353688,0.1458486173566728
33.687308,22.698854845400344,0.1457065614989928
33.689696,22.690855921704024,0.1455684538061825
33.692080000000004,22.67820117020881,0.1454501891026554
33.694475999999995,22.668572232818413,0.1453278198222183
33.69686399999999,22.659687469532685,0.1452165607173946
33.69924399999999,22.65382852035177,0.1451013847261477
33.701644,22.655930752328285,0.144957630696912
33.704032,22.661850194342527,0.144808615781276
33.706412,22.67615012639477,0.1446241697122136
33.708811999999995,22.696828447738604,0.1444148022314383
33.71119999999999,22.719369100201995,0.1441974578766779
33.713584,22.741630213411664,0.143985354778345
33.71598,22.76188922587492,0.1437835791342084
33.718368,22.78242777759189,0.1435774160642011
33.72075199999999,22.804037264495506,0.1433655152843908
33.723152,22.82080393214512,0.1431880164305655
33.725539999999995,22.834078254981105,0.143033933740339
33.727924,22.847305355988844,0.1428929400261838
33.73031999999999,22.865700141474672,0.1427360968706661
33.732708,22.88670143218473,0.1425827021515412
33.735091999999995,22.905793169946996,0.1424500369058095
33.737488,22.92032162770898,0.1423466366902393
33.73987199999999,22.94001776994905,0.1422272433152864
33.74225199999999,22.958503207375628,0.1421164344286879
33.782876,22.819514125156584,0.1420458955313323
33.785256000000004,22.8086234694087,0.1420154348022348
33.787651999999994,22.79521885623521,0.1419916074447849
33.79003999999999,22.78302494787521,0.1419592572376383
33.792424,22.774043845075127,0.1419084397769335
33.79482,22.77172067082035,0.1418288608653124
33.797208,22.77205122361806,0.1417404384316251
33.799588,22.780902036080622,0.1416161161862089
33.80198399999999,22.801485913767973,0.1414375668059523
33.804372,22.828168641493196,0.1412400599315141
33.806752,22.8553632258976,0.1410460595201879
33.809152,22.88320943660807,0.1408528700347739
33.811539999999994,22.917154497356407,0.1406411016995036
33.813931999999994,22.95505653776934,0.1404229687418947
33.816328,23.000128363406773,0.1401799156694037
33.818715999999995,23.056933254268987,0.1398852987593436
33.821096,23.11117696587735,0.1396107500449622
33.8235,23.165932534164902,0.1393400132441127
33.82588799999999,23.225343930251352,0.1390506880363588
33.828267999999994,23.28889929745749,0.1387412679624828
33.830664,23.35846096690289,0.1384045135242561
33.83304799999999,23.423366808549385,0.1380881237102609
33.83542799999999,23.487341484636108,0.1377755916186474
33.837824,23.5576020022158,0.1374323498857135
33.840211999999994,23.620273425690407,0.1371204449097357
33.842592,23.6799190350602,0.1368129127617958
33.844988,23.73360556401899,0.1365212500944665
33.847376,23.776257875887296,0.1362700238061772
33.849756,23.81374250327752,0.1360344476878362
33.852155999999994,23.843545488764036,0.1358190762060652
33.854544000000004,23.873395696078788,0.1355918365214305
33.856944,23.900639398169314,0.1353601994125602
33.85934,23.91927029279636,0.1351522339322245
33.861728,23.9314302503332,0.134956399581573
33.86411199999999,23.940192306712888,0.1347580940650226
33.866508,23.930982678203065,0.1346298211151034
33.86889599999999,23.920889105961717,0.1344927160882628
33.871275999999995,23.909771820361964,0.1343490103053674
33.873672,23.898142678083016,0.1342020347628015
33.876059999999995,23.88227701688575,0.1340653969993784
33.87844,23.858450174531068,0.1339523838649597
33.88083999999999,23.829176108444575,0.1338571952002401
33.883224,23.80032135123866,0.1337551407478133
33.88560799999999,23.75973352880797,0.1337020605835126
33.888003999999995,23.72207897268347,0.1336366014930516
33.89039199999999,23.68307394211861,0.1335808543044609
33.892776,23.64951613528557,0.1335069999173399
33.895172,23.623547422557607,0.1334039449432273
33.89756,23.597438940202785,0.1333029126784203
33.89994,23.577848616766413,0.1331783372498308
33.90233599999999,23.55877015000924,0.1330570019662423
33.904724,23.54872379959613,0.1329069778430494
33.90711999999999,23.5462665432881,0.1327282680051164
33.909516,23.550187676271666,0.1325287766464987
33.91190399999999,23.555272292240485,0.1323339812756502
33.914288,23.572741599740137,0.1320918982106532
33.91668799999999,23.58937228947864,0.1318630942102087
33.919076000000004,23.60930833257566,0.1316284215468011
33.92145599999999,23.62910460604583,0.1313962440873357
33.92385999999999,23.650855758434176,0.1311680036713437
33.926248,23.67842622160666,0.1309283407583143
33.928628,23.715168570750077,0.1306590211475403
33.931028,23.75414533806538,0.1303894009192217
33.933412000000004,23.80364446579197,0.1300803775284497
33.935796,23.85779942131745,0.129756461365075
33.938192,23.91260600314899,0.1294339482049774
33.94058,23.963268613860837,0.1291310773063964
33.94296,24.013791454945817,0.1288317017940396
33.945356000000004,24.06775941901619,0.1285253304253738
33.947744,24.121308074205984,0.1282266897373946
33.95012799999999,24.175648125328696,0.1279281120673929
33.952524,24.22612374458544,0.1276461019104611
33.95491199999999,24.27538865902868,0.1273729207522529
33.957291999999995,24.32130099828515,0.1271183137538055
33.959688,24.36665425903417,0.126872793239672
33.962076,24.409586110156205,0.1266431657133234
33.96446,24.455590997211285,0.1264005862090691
33.96685599999999,24.499593783519952,0.1261670965747782
33.969244,24.54811262800065,0.1259219040222563
33.97162399999999,24.595700306921568,0.1256803585855696
33.974024,24.643427755469347,0.125437872448471
33.976412,24.68901333364385,0.1252069452340805
33.978792,24.73566984700499,0.1249719793873775
33.98119199999999,24.776971684432937,0.1247628851901452
33.98358,24.81813375223402,0.1245572002916886
33.98595999999999,24.863020482274223,0.124340765776445
33.988356,24.916846780859878,0.1240914465434
33.99074399999999,24.973047267244272,0.123841196690025
33.993123999999995,25.02817681844204,0.1235971921168503
33.995532,25.08316660001294,0.1233560157711503
33.997916000000004,25.136666137516627,0.1231263615306739
34.0003,25.190677531699507,0.1229010461759302
34.002696,25.245992178494504,0.1226794200075976
34.005084,25.30517125715547,0.1224455274338326
34.007468,25.36849430693613,0.1221957310022992
34.00986399999999,25.4352624797022,0.1219405098330471
34.012252000000004,25.504544609893863,0.1216826263097521
34.014636,25.57620092788429,0.1214237343524309
34.017032,25.647577706621,0.1211707894614228
34.01942,25.722399608343096,0.1209123540072696
34.0218,25.79894407155789,0.1206523536255536
34.024196,25.8762799307056,0.120393126122613
34.026584,25.95734045209243,0.1201256765433764
34.02896799999999,26.044407275718505,0.1198381742806186
34.031364,26.131334329717724,0.1195545274811134
34.03375199999999,26.21733021815716,0.1192750395787289
34.036136,26.298111200290265,0.1190179968524926
34.03854,26.376238455370896,0.1187679343749817
34.040927999999994,26.45450548007839,0.1185172722776999
34.043312,26.537056245532437,0.1182507756385853
34.045711999999995,26.62524122617339,0.1179601964915505
34.04809999999999,26.71277458050829,0.1176694836923467
34.050484,26.80193794853727,0.1173688854186205
34.05288,26.88844758951377,0.1170749585160771
34.055268,26.970161633064528,0.1167962011627592
34.05765199999999,27.04698753139091,0.1165237414710552
34.060047999999995,27.122789716358906,0.1162466220349166
34.06243599999999,27.19556608722208,0.115970573341502
34.06481599999999,27.265316643980444,0.1156959813301149
34.067212,27.33045859476816,0.1154234171044147
34.069599999999994,27.39243496182421,0.1151540627564733
34.071984,27.45245644996208,0.1148817036784064
34.07437999999999,27.50237488656925,0.1146334801115687
34.076768,27.54312143720549,0.1144067779609568
34.07915199999999,27.57748959855015,0.1141944511274741
34.081548,27.61148567284247,0.1139778337282861
34.083935999999994,27.64646013452281,0.1137491433601161
34.086316,27.680131343591043,0.1135181254337846
34.08871599999999,27.710217660047014,0.1132946502542309
34.091104,27.73592768795782,0.1130796644456909
34.093484000000004,27.75511955695017,0.1128808214956993
34.095884,27.773939338890187,0.1126774192589352
34.098271999999994,27.78638073153861,0.1124878911273699
34.100652,27.803385404187317,0.1122796559525455
34.103048,27.8220200905301,0.11206060345731
34.105436,27.8397236113131,0.1118438307601281
34.107820000000004,27.85356270023013,0.1116378057080625
34.110215999999994,27.867401789147152,0.1114319723657549
34.112607999999994,27.878959238064045,0.1112358799609413
34.114988,27.89195970921992,0.1110411068262133
34.11738799999999,27.90002481332317,0.1108603563684542
34.119776,27.90501688149337,0.1106895490899278
34.122156000000004,27.913873381529548,0.1105084509186439
34.124551999999994,27.929667349364752,0.1103074999218318
34.12693999999999,27.950676223506285,0.1100891501253018
34.129324,27.97168509764782,0.1098714445872826
34.13172,27.99241443253564,0.109657962713651
34.134108,28.014074932983235,0.1094428073494686
34.136488,28.035875203057685,0.1092259324318108
34.13888399999999,28.057535703505284,0.1090113118941595
34.141272,28.079847830258934,0.1087983430385093
34.143652,28.09987831701245,0.1085949486171886
34.146052,28.1214915956318,0.1083911086786438
34.148439999999994,28.134816932011763,0.1082142435377045
34.15082,28.148002498764868,0.1080394861371863
34.153216,28.16412133182417,0.1078572936106817
34.155604,28.18382505749572,0.1076693164676651
34.157988,28.20767275428696,0.1074688760081593
34.16038399999999,28.234081630332064,0.1072561189341419
34.162772000000004,28.25997864969797,0.1070404793405277
34.165156,28.292813136862907,0.1068062950396852
34.167552,28.325228315147264,0.1065771408743142
34.16994,28.357643493431617,0.1063482984681364
34.17232,28.38591470059628,0.1061328602887279
34.17471999999999,28.41325474220115,0.105919986494688
34.177104,28.434588481566784,0.1057237704615588
34.179503999999994,28.4509868538798,0.1055406333691733
34.1819,28.467385226192818,0.1053578654236687
34.184292,28.48378359850584,0.1051751451628315
34.186672,28.497248704512657,0.1049999089863026
34.18906799999999,28.51113311940006,0.10481970378288
34.191456,28.52222403760813,0.1046449035210698
34.193839999999994,28.53252355988328,0.1044703222221514
34.196236,28.54524449178543,0.1042850284827181
34.198623999999995,28.55503215738138,0.1041071399172905
34.201008,28.561095160738223,0.1039368229127706
34.20340399999999,28.562502336296173,0.1037758907269101
34.205792,28.55697204405509,0.103633077016365
34.20817199999999,28.549439651067598,0.1034956697241437
34.210572,28.541627718826376,0.1033617024367382
34.212959999999995,28.530742750652102,0.1032366858996123
34.21534,28.52348989691833,0.1030960311017897
34.21773999999999,28.51931007911761,0.1029467781767227
34.220128,28.51927423243658,0.1027854801269779
34.222511999999995,28.517236285009137,0.1026295131128945
34.224908,28.52162394870152,0.1024527952208097
34.227296,28.530155583513604,0.1022639723966835
34.229676,28.533751851273077,0.102087253138708
34.23207599999999,28.539210450152105,0.1019071431073087
34.234464,28.545460444964043,0.1017268989280677
34.23684399999999,28.554364166828464,0.1015434841973972
34.239239999999995,28.57313862279811,0.101336378047097
34.241632,28.59405494914103,0.1011227249128343
34.244012,28.61748523290956,0.1009076517968744
34.246408,28.646782049290483,0.1006794791685662
34.2488,28.67887236235074,0.1004464689395389
34.25117999999999,28.71110244503786,0.1002117363759753
34.253575999999995,28.74705718996409,0.0999703620652733
34.25596399999999,28.783663561196377,0.0997309451741291
34.258348,28.820409702055525,0.0994902183950781
34.260744,28.85729561254153,0.0992481846568222
34.263132,28.894833149333603,0.0990085867647354
34.26551599999999,28.92864602388656,0.0987762343022355
34.267911999999995,28.95566120026735,0.0985589507866078
34.27029999999999,28.98546987332747,0.0983371732036657
34.272684,29.010063640081263,0.0981304371364371
34.27508,29.031584370902,0.0979320686246334
34.277468,29.059390943215703,0.0977158980570519
34.279848,29.08375239254401,0.0975029874247682
34.282248,29.109464316312685,0.0972837036095815
34.28463599999999,29.126516210789628,0.0970820912994069
34.287015999999994,29.133837140788213,0.0969016871650755
34.289412,29.141437610040512,0.0967183214078782
34.291799999999995,29.142799459628087,0.0965426208494913
34.294184,29.136572215110576,0.0963811755460231
34.296584,29.127691243540585,0.0962227586843717
34.29897199999999,29.11974143753038,0.0960626845839559
34.301351999999994,29.10913790446769,0.0959055918717152
34.303752,29.098022514725816,0.0957450951611138
34.30614,29.086115729051016,0.0955844649523108
34.30852399999999,29.07248638188352,0.0954251707030044
34.310924,29.05555168135749,0.0952670368568515
34.31330799999999,29.036614880085047,0.0951133694168732
34.315692,29.022753215492077,0.0949471013948005
34.318088,29.001162687167152,0.0947959620595414
34.320476,28.98171402921551,0.094638339347569
34.32285999999999,28.96147397533095,0.0944803391660698
34.32526,28.93508784958028,0.0943377101177452
34.327648,28.909632889389385,0.0941933171764563
34.330028,28.881244662892296,0.0940548188700057
34.33242799999999,28.86035298270168,0.0938942034256213
34.334816000000004,28.84281387769784,0.0937223417635481
34.3372,28.81805776564124,0.0935687396388579
34.339596,28.79995958212996,0.0934030133276964
34.341984,28.78386349936509,0.0932324196742282
34.344368,28.76883835178686,0.0930585726388253
34.34676399999999,28.75423251308921,0.0928797122013496
34.349152000000004,28.74204808401856,0.0926913197153757
34.351536,28.727721784574637,0.0925088933426358
34.353932,28.70953105326473,0.0923335549104325
34.35632,28.69241125714147,0.0921549759619008
34.358704,28.67408075620471,0.0919808362502347
34.361104,28.65696096008145,0.0918017302903651
34.363491999999994,28.633323005039745,0.0916322837043392
34.365876,28.61410856037145,0.0914485396883866
34.368275999999994,28.594102719770238,0.0912643831795558
34.37066399999999,28.577449454355797,0.0910692600487683
34.373048,28.56521969931477,0.0908601144316367
34.37544799999999,28.554340418714105,0.0906445251245811
34.377836,28.5460223173673,0.090417780376321
34.380216000000004,28.53262907934102,0.0902027420457002
34.382611999999995,28.516302575008545,0.0899931826712572
34.38499999999999,28.507193077728815,0.0897655647347369
34.38737999999999,28.491285882276923,0.0895506262365435
34.389776,28.47551845645189,0.0893338185631603
34.392160000000004,28.456026368387743,0.0891220595071225
34.39453999999999,28.43467194920404,0.0889127323203542
34.39694,28.40917355890064,0.0887134024739101
34.399328,28.38316331191805,0.0885100347849561
34.401708,28.362367971241785,0.0882931036713132
34.404104000000004,28.33784796832641,0.0880810779155625
34.406492,28.31453867022453,0.0878640950762144
34.408872,28.290298206562877,0.0876480772809803
34.411272,28.26978240514033,0.0874262817840171
34.41365999999999,28.252060100397124,0.0872005030309457
34.416039999999995,28.23848176677361,0.0869646621672951
34.418443999999994,28.22397226759032,0.0867301037021174
34.420832000000004,28.206249962847107,0.0865041089967283
34.423216,28.187456722917258,0.0862808290969505
34.425612,28.165450677427497,0.0860658947352642
34.428,28.149171394923265,0.0858416955175932
34.43038,28.13661677465815,0.0856122986136873
34.432776000000004,28.120337492153915,0.0853877558950902
34.435164,28.10834195039624,0.0851514040151759
34.43754799999999,28.09834850938498,0.0849109219784364
34.439944,28.09487322729217,0.0846618423559503
34.44233199999999,28.093911902624967,0.0844123364187066
34.444712,28.097094549077465,0.0841530288691202
34.447112000000004,28.10572441926177,0.0838882968676871
34.4495,28.1122124190728,0.0836293196079852
34.45188,28.12228531149608,0.0833669898827198
34.45427599999999,28.131147499105857,0.0831089321838144
34.456664,28.14573644970117,0.08284259857502
34.459048,28.16418983216246,0.0825704118309865
34.461444,28.17863901313092,0.0823062245743201
34.463832,28.18480025185998,0.082060810032091
34.466212,28.191473347268243,0.0818193103797939
34.46862,28.20308180972912,0.0815691649326536
34.471008,28.21906656073516,0.0813171052593539
34.473388,28.240498535473016,0.0810602058783917
34.475787999999994,28.253782337598345,0.0808200814057074
34.47817599999999,28.26599520453703,0.0805828620781186
34.48055599999999,28.281792964087973,0.0803430925593529
34.482952,28.29824234994497,0.0801057595377766
34.485344,28.31455196617512,0.0798703892725812
34.487724,28.32899925128569,0.0796376148739249
34.49011999999999,28.343446536396275,0.0794051153892125
34.492508,28.35840567818606,0.0791767873723186
34.494888,28.372433654416056,0.0789500316665405
34.497288,28.38911535769854,0.0787220407884799
34.499675999999994,28.408730327287213,0.0784898483855061
34.502056,28.43407205986141,0.0782504496884007
34.504452,28.45648052612942,0.0780162737565019
34.50684,28.479540618703485,0.0777850780813202
34.509224,28.505533977583745,0.0775495310672825
34.511628,28.542189466502148,0.0772989943441877
34.514016,28.581778221726744,0.0770448138003096
34.51639999999999,28.619085336951205,0.0767979052646049
34.518795999999995,28.654669890682968,0.0765521410452746
34.52118399999999,28.69025444441473,0.0763071765416493
34.523568,28.73664089781149,0.0760462550412959
34.525964,28.786752013447376,0.075782447884607
34.528352,28.83644382020268,0.0755240059984063
34.53073599999999,28.88757864919695,0.0752691361452904
34.533131999999995,28.93936510449728,0.075017127683583
34.53551999999999,28.989940854984116,0.0747695346066544
34.53789999999999,29.042518706217365,0.0745194498244473
34.5403,29.09374608301026,0.0742753655587973
34.542688,29.144833690176288,0.0740335829440227
34.545068,29.19885456364852,0.0737888011497215
34.54746399999999,29.25152496268038,0.0735502226369645
34.549852,29.301913721712108,0.0733187121079425
34.55223599999999,29.350812236676624,0.0730944527602398
34.554632,29.39971075164113,0.0728712052788162
34.557019999999994,29.451123224031257,0.0726493545127311
