Time,Force,Position
32.577296,8.841113331989195,0.1593069313563746
32.579684,9.204227912669,0.1588609580397492
32.582063999999995,9.557101568049116,0.158525798294328
32.58446,9.89652149256962,0.1583332240839343
32.586848,10.231567024402825,0.1581217464585016
32.589232,10.566893991347616,0.1578384451323162
32.591628,10.907717299710333,0.1574136140834568
32.594016,11.23825246094511,0.1570787889049003
32.596396,11.56594879953018,0.1567551692799335
32.598796,11.89210956807766,0.1564277792734721
32.601184,12.217665932147328,0.1560902060905402
32.603564,12.543409287672093,0.1557504361441195
32.605964,12.869711721704295,0.1554276469025826
32.608348,13.190566932004687,0.1551646159554641
32.610732,13.512120990439389,0.154897363261563
32.613128,13.83693507626224,0.1545824016100327
32.615516,14.16105220980866,0.1542391150119519
32.6179,14.482050981451652,0.1538901715396409
32.620296,14.803423736004852,0.1535008957065719
32.622684,15.123447911975562,0.1530872084052148
32.625068,15.438398847124668,0.1526786611958388
32.627464,15.74906793738509,0.152267667666912
32.629852,16.054244477943328,0.1518664399837059
32.632236,16.35513917361288,0.1514549572012671
32.634632,16.64895852771442,0.1510636975867025
32.637024,16.9311864820759,0.1507204018039237
32.639404,17.196096273711802,0.1504631206008719
32.6418,17.454025167436168,0.1501795488225112
32.644192,17.698455004330555,0.1499146011918828
32.646572,17.929153466969485,0.1496532465950141
32.648968,18.14588823792748,0.1493875617252791
32.651356,18.34572605089833,0.1491376593962121
32.653735999999995,18.52573363957586,0.1489209335450472
32.656136,18.69643336437135,0.1486698713388796
32.658524,18.854472650098018,0.1484155614169546
32.660903999999995,18.999012878994705,0.1481741738158997
32.6633,19.133079865166223,0.1479392574719736
32.665688,19.264402472344518,0.1476649251359225
32.668071999999995,19.3839939101559,0.1474206017600094
32.670472,19.49623046714554,0.1471890684601676
32.672856,19.599901438499945,0.1469783768806429
32.675239999999995,19.699011025711947,0.1467645470352083
32.677636,19.79621295583401,0.1465360759906783
32.68002,19.892857703306507,0.1462803313764496
32.682404,19.985592692942653,0.1460223318832672
32.6848,20.0742781551156,0.1457635574422975
32.687188,20.16478062243772,0.1454719889970279
32.689567999999994,20.257192642707643,0.1451615747257561
32.691964,20.348441179992307,0.1448488110872299
32.694351999999995,20.44290252283689,0.1445176148972845
32.696748,20.53559408236054,0.1442082993217976
32.699144,20.62958889449629,0.1439029603652837
32.701532,20.72567835517709,0.1435987361860531
32.703916,20.8235829251492,0.1433035911140473
32.706312,20.918646776613727,0.1430372024726156
32.7087,21.01557295919781,0.1427649023957536
32.711084,21.11464101215517,0.14248226790455
32.71348,21.2109155684332,0.1422163419610226
32.715868,21.31217271359208,0.141913085010145
32.718252,21.41161474945965,0.1416070082497678
32.720648,21.51352541678246,0.1412713108650043
32.723036,21.613760744440818,0.1409308093026134
32.725416,21.709667005382244,0.1405948213096934
32.727816,21.802826991472585,0.1402613130169691
32.730204,21.89696536495094,0.1399141492629657
32.732584,21.9918025865636,0.1395568497131891
32.73498,22.08012164925781,0.1392287237144085
32.737368,22.16113115710065,0.1389317818075082
32.739752,22.24363090901072,0.1386237182036842
32.742152,22.32189414200247,0.1383297077813379
32.74454,22.400344366449325,0.1380211013929275
32.746924,22.47455807197787,0.1377249364358826
32.74932,22.543743862655187,0.1374417050806977
32.751712,22.60687802512288,0.1371662370313314
32.754092,22.66833684792612,0.136883219158129
32.756491999999994,22.726630086997684,0.1366073107916841
32.75888,22.77561167047147,0.1363691331577335
32.76126,22.82063627428066,0.1361388573290938
32.763659999999994,22.85821155361163,0.1359389816277151
32.766048,22.88940844365101,0.1357625218202787
32.768428,22.915530197010916,0.1356120121869868
32.770827999999995,22.936716583318205,0.135484678938388
32.773216,22.954829933692444,0.1353730703944763
32.775596,22.96651767294685,0.1352973101848346
32.777995999999995,22.970197009215585,0.1352598294841143
32.780384,22.969500056939157,0.1352356693165767
32.782764,22.970293348729943,0.1351986501983657
32.785163999999995,22.97057478384153,0.1351582549971129
32.787552,22.963267124848034,0.1351486699402609
32.789932,22.95758947954862,0.1351239096575485
32.792331999999995,22.955264409435976,0.1350794073553843
32.79472,22.954709122644275,0.1350176307536137
32.7971,22.963652482905456,0.1349063740030389
32.799496,22.97231630391292,0.1347997906913236
32.801883999999994,22.9800489593606,0.1346966795687162
32.804268,22.98419672219603,0.1346051983363014
32.806664,22.99383893059152,0.1344826783193121
32.809051999999994,23.002549973427225,0.1343637748541195
32.811432,23.01074915958374,0.1342413580085296
32.813828,23.021090216113524,0.1341072531028136
32.816216,23.028777545590835,0.1339810662839347
32.8186,23.035813248762096,0.1338536015810028
32.820996,23.040986620813797,0.1337328827025786
32.823384,23.0488609417462,0.1335912854747304
32.825764,23.06143831230575,0.1334197368112004
32.828164,23.07373614361158,0.1332527087419004
32.830552,23.08189000379772,0.1331064238289368
32.832932,23.089904094356992,0.1329625271455307
32.835332,23.10206215603596,0.1327977498397405
32.837716,23.106723671408467,0.1326734479173774
32.8401,23.102026309354937,0.1325965646336112
32.861616,22.95409576273257,0.1325484399162248
32.864011999999995,22.947766491127105,0.132521937570624
32.8664,22.9453016513876,0.1324795372103907
32.868784,22.94963450982027,0.1324088542290978
32.871179999999995,22.95261689381258,0.1323484068198093
32.873568,22.95196716336439,0.1323118257623181
32.875952,22.95532163440903,0.1322572565954012
32.878347999999995,22.966684508439347,0.1321668141018486
32.880736,22.97776784321594,0.1320809446863416
32.883115999999994,22.98722116429845,0.1320098646500538
32.885512,23.00268078762022,0.1319117724975802
32.887899999999995,23.020002742061536,0.1318065174460232
32.890283999999994,23.0359742220625,0.1317114281490889
32.89268,23.059395026541686,0.1315891649640116
32.895067999999995,23.08761142844662,0.1314479193716868
32.897448,23.11089246329895,0.1313282529157855
32.899848,23.13617559889769,0.1311996009182212
32.902235999999995,23.16453177042949,0.1310564582012649
32.904616,23.193958877147928,0.130907610249523
32.90702,23.220592487187037,0.1307691460680182
32.909408,23.24987982427861,0.1306236986949004
32.911792,23.2720899239443,0.1305109475488926
32.914188,23.293740945102552,0.1304075803990304
32.916576,23.31404149182044,0.1303148277790833
32.91896,23.33778716152372,0.1302135535306511
32.921356,23.36139306160014,0.1301143493338997
32.923744,23.381646386489784,0.1300342371645928
32.926128,23.39640526581937,0.1299842253066855
32.928524,23.41181577145502,0.1299354268653029
32.930912,23.433092809703066,0.1298629131318578
32.933296,23.452739834257024,0.1298049272968609
32.935696,23.480115722542934,0.1297168283979033
32.938084,23.512147438627736,0.1296127420478007
32.940464,23.54618125545896,0.1295007424917249
32.942864,23.57951622415588,0.1294002718547715
32.945252,23.618158646957745,0.1292851596128894
32.947636,23.65889571830464,0.1291718572266786
32.950032,23.69772323670374,0.1290772760989011
32.95242,23.73943679958079,0.128983363150662
32.954804,23.78338478062973,0.1288888142381796
32.957204,23.82463181279796,0.1288142555777479
32.959592,23.87197769500406,0.1287242320770239
32.961976,23.918624729075848,0.1286451624318547
32.964375999999994,23.96564385019998,0.1285721100917119
32.966764,24.01331459763017,0.1285007114407807
32.969144,24.069737922150704,0.1284072965735866
32.971543999999994,24.133191262268884,0.1282961640304867
32.973932,24.1999499557456,0.1281791681539838
32.976316,24.27122470739434,0.1280494806005764
32.978711999999994,24.338587805348865,0.1279469570657536
32.9811,24.408464860729,0.1278396147116821
32.98348,24.475361427974708,0.1277562753654342
32.985879999999995,24.543701017459387,0.1276740703619548
32.988268,24.610922449929177,0.1276095281998439
32.990652,24.67865573907817,0.1275484977487104
32.993047999999995,24.749042755279643,0.1274814614298923
32.995436,24.82129210260067,0.1274090755080849
32.99782,24.90341218402692,0.1272998364776588
33.000215999999995,24.9866032006398,0.127186149759382
33.002604,25.07393818837239,0.1270555887690153
33.004988,25.160342010545197,0.1269279084408071
33.007383999999995,25.247025371971716,0.1267971168219874
33.009772,25.33920317895829,0.1266404234095616
33.012156,25.432451921131506,0.126479685200063
33.014556,25.52570066330472,0.1263197579577723
33.016943999999995,25.613921490626705,0.1261702647606973
33.019324,25.69455322384361,0.1260460254369562
33.021724,25.774533330754448,0.1259209584579802
33.024111999999995,25.850928545053037,0.1258058724504401
33.026495999999995,25.929373081926283,0.1256724009004429
33.028896,26.009447632493604,0.1255269884631837
33.031284,26.086636138582985,0.1253807656668711
33.033668,26.15958812575405,0.1252431023634986
33.036064,26.228862672514246,0.1251056069403728
33.038452,26.299255376289324,0.1249529799176622
33.040836,26.36648249633273,0.1248046143409185
33.043232,26.43124288077876,0.1246505062367659
33.045624,26.48482927850745,0.1245300869516137
33.048004,26.53660056694484,0.1244047278271417
33.0504,26.584926732396823,0.1242871753187623
33.052792,26.63330011967705,0.1241588374935299
33.055172,26.67757675766583,0.1240365589695385
33.057572,26.717477107109435,0.1239245331429353
33.05996,26.75435164244823,0.1238138705793406
33.062344,26.791273399615267,0.1236929396106186
33.06474,26.823818868237137,0.1235813720887585
33.067128,26.85883296831424,0.1234461643216021
33.069512,26.892031959100034,0.1233056616975681
33.071912,26.925138402087214,0.123156587605447
33.0743,26.95400832615608,0.1230151885481187
33.076684,26.979712666493278,0.1228770826786352
33.079083999999995,27.008257725338044,0.1227207722349226
33.081468,27.03577907082442,0.1225583136589022
33.083848,27.065070199631737,0.1223821351928748
33.086256,27.089333413587827,0.1222141379155953
33.08864,27.1093601086256,0.1220534299363282
33.091027999999994,27.125382602170543,0.1219068729267813
33.093419999999995,27.14280279198409,0.1217414021755804
33.095808,27.15519506694641,0.1215836559413163
33.098188,27.16484106705763,0.1214230799862406
33.100584,27.17267195787754,0.121256952774743
33.102971999999994,27.182272632018392,0.1210772056480588
33.105356,27.18898726168129,0.1208963342622618
33.107752,27.190813746119822,0.1207209153599748
33.110136,27.186541380520485,0.1205573761794275
33.11252,27.186180668615364,0.1203713094061134
33.114916,27.183957625590686,0.1201903178237687
33.117304,27.182433430700303,0.1200000406574084
33.119688,27.17881458726489,0.119807824608284
33.122084,27.172821556030726,0.1196171333943257
33.124472,27.163942480318603,0.1194249665769176
33.126852,27.15068711606132,0.1192412771814442
33.129252,27.13678012549797,0.1190561316031624
33.13164,27.11942801194923,0.1188768746708298
33.13402,27.10514893433355,0.1186865151817788
33.136416,27.093710575225444,0.1184781273842037
33.138804,27.082971064251637,0.1182601720563438
33.141188,27.07195201402411,0.1180458856124843
33.143584,27.064797395662552,0.1178199193360009
33.145972,27.051636475061752,0.1176135171143944
33.148352,27.039127180767007,0.1174083083362044
33.150748,27.02289322423315,0.1172125652871619
33.153136,27.00558833251265,0.1170207963825368
33.15552,26.995220908591183,0.1168065890889546
33.157916,26.986855585416134,0.1165854282767107
33.160304,26.971413024815195,0.1163881044897674
33.162684,26.957460708281477,0.1161808720809491
33.16508,26.93950419025492,0.1159865858276941
33.167468,26.92126813297465,0.1157957972655077
33.169847999999995,26.904614867560205,0.1156037192556805
33.172248,26.888333689198102,0.1154165044360292
33.174636,26.874846007515337,0.1152220936421016
33.177015999999995,26.86443136176562,0.1150169107943747
33.179416,26.852945780829277,0.1148155458422273
33.1818,26.83745599840009,0.114627123306744
33.184183999999995,26.819265267090184,0.1144544275795275
33.18658,26.79986383096679,0.1142875108373722
33.188968,26.777249589283475,0.1141328795443197
33.191348,26.75235370760002,0.1139882993838492
33.193748,26.734907150394797,0.113825018598621
33.196132,26.720254089868902,0.113654854463595
33.198516,26.70797521714177,0.113483288412059
33.200911999999995,26.69699959702675,0.1133144492599631
33.203304,26.6783876609784,0.1131764162963458
33.205684,26.658937107168885,0.1130494374384593
33.208079999999995,26.64828635227796,0.1128962018127636
33.210468,26.633863713319677,0.112762756803781
33.212852,26.6236775932797,0.112623470704253
33.215247999999995,26.61293239473229,0.1124915234034647
33.217636,26.60591185842399,0.1123505473022436
33.22002,26.59940317879489,0.1122128287673969
33.222416,26.59005378065821,0.1120926572197437
33.224804,26.58000553438723,0.1119818937426103
33.227183999999994,26.575916368527253,0.1118629448525474
33.229584,26.5701971889732,0.1117553456987499
33.231972,26.565781262031265,0.1116507090779725
33.234351999999994,26.56467068844786,0.1115427202041592
33.236748,26.569147108223124,0.1114213300614603
33.239135999999995,26.575997715797143,0.1112989013094203
33.241519999999994,26.583779488930944,0.1111745186290902
33.24392,26.587929147624248,0.1110680802930403
33.246308,26.592590662996745,0.110965131683525
33.248687999999994,26.59818334392902,0.1108600011696411
33.251084,26.612296284526163,0.1107332874645505
33.253471999999995,26.63120482254906,0.1105939174153614
33.255855999999994,26.646061937250877,0.1104781211823521
33.258252,26.66650604531136,0.1103493885670185
33.260639999999995,26.68867271486455,0.1102185755855848
33.26302,26.71428450740313,0.1100829179476703
33.265415999999995,26.73761465994157,0.1099574111638738
33.267804,26.76466947471912,0.1098235935490315
33.270188,26.798661757295704,0.1096696383108407
33.272583999999995,26.83358520543207,0.1095140486457081
33.274972,26.867297948754928,0.1093647735466488
33.277356,26.9088793254366,0.1091932658582633
33.279751999999995,26.95074024137198,0.109018242739877
33.282143999999995,26.995534423613567,0.1088358298969141
33.284527999999995,27.04098023216121,0.1086557006248773
33.286928,27.087217436641765,0.1084757221080196
33.289316,27.132243936308825,0.1083020558695867
33.291695999999995,27.17927253672231,0.1081225595836064
33.2941,27.227372072322428,0.1079396870870061
33.296484,27.27626300385545,0.1077568777715888
33.298868,27.320358337962737,0.1075866088588394
33.301264,27.36058924020405,0.1074266703683239
33.303647999999995,27.40366086095293,0.1072503931534936
33.306028,27.445009920209124,0.1070769900423024
33.308423999999995,27.48249454759935,0.1069138019285395
33.310812,27.518536152750592,0.1067495806162601
33.313192,27.557790563461747,0.1065744595936358
33.315591999999995,27.59318054230693,0.1064094478401797
33.31798,27.623914693353225,0.1062549966077194
33.32036,27.650504873279814,0.1061139361846604
33.322764,27.672718764661248,0.1059792182537599
33.325152,27.693210094549976,0.1058472037780039
33.327532,27.715843294811982,0.1057080155556506
33.329927999999995,27.735403459140937,0.1055786315793743
33.332316,27.751518500484497,0.1054536829776932
33.3347,27.766470058842803,0.105323994977871
33.337095999999995,27.780630221268183,0.1051946328061676
33.339479999999995,27.795209692574154,0.1050602093684961
33.341864,27.808066602387424,0.1049280642763911
33.34426,27.82227398664105,0.1047890253443467
33.346644,27.84197581645473,0.1046303832043699
33.349028,27.865030221455186,0.1044593390342265
33.351432,27.88515136014945,0.1042959809722742
33.35382,27.90327039809729,0.1041382457682982
33.356199999999994,27.921808744925723,0.1039752858816054
33.358604,27.942349192500565,0.1038071828346642
33.360992,27.9579542730228,0.1036520446566199
33.363375999999995,27.97584099354517,0.1034881271220228
33.365772,27.9938674836944,0.1033226475028855
33.36816,28.015246549030405,0.1031447674424711
33.37054,28.04463401735208,0.1029457030237489
33.372936,28.07094844974069,0.1027558728624659
33.375319999999995,28.09633171656953,0.1025683496780247
33.377703999999994,28.120271961159396,0.1023794378911361
33.380108,28.143281040189475,0.1021922895152275
33.382496,28.166150349592694,0.1020071226800256
33.384876,28.188228263063003,0.1018221584048948
33.387276,28.209514780600387,0.1016375825552395
33.389664,28.23108083739149,0.1014497908427805
33.392044,28.251203871943623,0.1012608295310343
33.39444,28.265180834629646,0.1010896610995922
33.396828,28.279437336569387,0.100915575713752
33.399212,28.29555616962869,0.1007381905173885
33.401608,28.313025477128345,0.1005540591576677
33.403991999999995,28.333567820561058,0.1003616630429345
33.406375999999995,28.35066504100838,0.100172988705748
33.408772,28.371114836642477,0.0999725144743188
33.411159999999995,28.38905067485096,0.0997739421310914
33.413536,28.404193016380106,0.0995804464794491
33.41594,28.41896327085691,0.0993821953256581
33.418327999999995,28.42921746716169,0.0991912737361053
33.420708,28.43723724529457,0.0989984231646177
33.423103999999995,28.443674231561616,0.098805698482003
33.425495999999995,28.449180052268886,0.0986145685745258
33.427876,28.45696751297629,0.0984150671728897
33.430271999999995,28.46689684405697,0.0982092129823553
33.43266,28.48190131181713,0.0979905589436622
33.435044,28.49825625401764,0.0977656187125924
33.437439999999995,28.51195746916568,0.0975438860104361
33.439828,28.52752101543328,0.097319396912739
33.442224,28.54443503614123,0.0970882565817089
33.44462,28.55734485535635,0.0968671438644443
33.447008,28.566669781959224,0.096650772041223
33.449388,28.57627424781581,0.0964312880046175
33.451792,28.582805677739344,0.096220132095798
33.45418,28.59105966915557,0.0960075427414337
33.45656,28.598522264638884,0.0957951512099648
33.458956,28.607847191241756,0.0955797156448703
33.461348,28.621316088964317,0.0953531732007118
33.463732,28.63129264187324,0.0951395546069019
33.466128,28.64126919478217,0.0949261952326407
33.468516,28.65683274104976,0.0947037653077977
33.4709,28.67132535213072,0.0944845273057524
33.473296,28.68837914246553,0.0942541191244977
33.475683999999994,28.705572702427208,0.094022374873679
33.478064,28.71811043458999,0.0937983223796184
33.48046,28.722919303020824,0.0935897157323182
33.482848,28.724515365891747,0.0933906074243621
33.485232,28.73104679581528,0.0931809654400909
33.487628,28.73157192349956,0.0929850758321654
33.490016,28.731305655250925,0.0927889568928659
33.4924,28.731039387002287,0.0925926966678661
33.494796,28.73491708987335,0.0923857360965378
33.49718,28.737723857557768,0.0921819702264612
33.499564,28.74029830781671,0.0919714079275129
33.50196,28.74408346288915,0.0917563818454627
33.504348,28.744795582028537,0.0915488437007955
33.506727999999995,28.745647470794783,0.0913398288742496
33.509124,28.74649935956103,0.0911311203611821
33.511512,28.75270592426047,0.0909073843720951
33.513895999999995,28.7556996834,0.0906926519612683
33.516299999999994,28.756039715487045,0.0904806729850825
33.518688,28.75959255313401,0.0902598076847387
33.521068,28.764588413019947,0.0900414528147907
33.523467999999994,28.77065520809252,0.089820435789873
33.525856,28.780726204657935,0.0895909143075407
33.528236,28.794521863462464,0.0893559420160732
33.530635999999994,28.80845729189385,0.0891192728729062
33.533024,28.81810897957868,0.0888946178335752
33.535404,28.83162509912949,0.0886629440249729
33.5378,28.849657276852327,0.0884266971542721
33.540188,28.87262482162777,0.0881811125101743
33.542572,28.8982460934557,0.0879341342728167
33.544968,28.9247985308434,0.0876861505228785
33.547356,28.95172305528344,0.0874434519051565
33.549736,28.977716414163705,0.0872025306647623
33.552136,29.0077139745368,0.086953572746947
33.554524,29.0365008300964,0.0867093625334565
33.556904,29.06542745528285,0.0864642091638516
33.5593,29.09328314528268,0.0862226104224649
33.561688,29.12435164084241,0.0859726659766776
33.564072,29.15621153233506,0.085723434648687
33.566468,29.183647913454298,0.085487155251809
33.568856,29.20521776196114,0.0852613992990146
