Time,Force,Position
32.825320000000005,13.448929805872863,0.1476436162283513
32.827715999999995,13.828259559126325,0.1471479337796366
32.830104000000006,14.173610300808289,0.1466650271386803
32.83248400000001,14.479859672411038,0.1462591378739341
32.83488,14.752454897666384,0.1458767329673781
32.837267999999995,14.99428202105228,0.1455071910491683
32.839652,15.210741044472291,0.145140914714677
32.842048000000005,15.404485694978892,0.1447590391525106
32.844432,15.57747085149026,0.1443660798108334
32.846816000000004,15.73230301923062,0.1439646095164224
32.849208000000004,15.871076846745009,0.1435530698297858
32.851596,15.99067207627213,0.1431772379270376
32.853976,16.100772450462102,0.1427846039811815
32.856392,16.194765366739993,0.1424487648989268
32.85878,16.28489574700978,0.1420921618938348
32.86116,16.367391707204106,0.1417548929183666
32.863556,16.442904873629026,0.1414380988892874
32.865944,16.513297577404103,0.1411274265469947
32.868328000000005,16.57759143114131,0.1408463287352537
32.870724,16.641373428199323,0.1405621145608929
32.873112000000006,16.69714702227167,0.140333793550648
32.875496,16.751198054851315,0.14011319764306
32.877892,16.800593259632066,0.1399198309918608
32.88028,16.853760348480183,0.1396896782419765
32.88266,16.90697465915654,0.1394433071851072
32.885056000000006,16.961167357220912,0.139175472049089
32.887444,17.012753550061056,0.1389049371921878
32.889824000000004,17.063036490289086,0.1386346438366101
32.892224,17.109502220479385,0.1383728041329482
32.894608000000005,17.15564308544559,0.1380896879745093
32.89698800000001,17.199456984441287,0.1377973140181874
32.899388,17.240804147839608,0.1374981089005827
32.901776,17.275680374147726,0.1372177189946014
32.904156,17.311302670418385,0.1369059627190598
32.906552000000005,17.343946374412475,0.1365836728999238
32.90894,17.375194277995835,0.1362464306436162
32.91132,17.403044280422044,0.1359062939282109
32.91371600000001,17.433455462102113,0.1355427236177639
32.916104000000004,17.46377409598356,0.1351657489136875
32.918488,17.495722743559092,0.1347705932366729
32.920884,17.533817463000727,0.1343356895761067
32.923272,17.57205195206923,0.1338975400034669
32.925656000000004,17.609495045204817,0.13346019100091
32.928051999999994,17.638278109048674,0.1330701745169951
32.930440000000004,17.663196741026553,0.1327016490287821
32.93282000000001,17.682528379645767,0.1323604544961077
32.935216,17.69683210341375,0.1320349457153113
32.937608,17.705084198972113,0.1317162614913203
32.939988,17.708867458186685,0.1314008134749019
32.942387999999994,17.701104643631577,0.1311318454169279
32.944772,17.690455784598523,0.1308630312483883
32.94715600000001,17.676269254781456,0.1305923352709248
32.949552,17.659336450113297,0.1303178899176114
32.95194000000001,17.635373629847493,0.1300691418242004
32.954324,17.606615212155933,0.1298448110835487
32.956720000000004,17.573340736292344,0.1296386093774321
32.959112000000005,17.538064159682342,0.1294432486066549
32.96149200000001,17.49598988490017,0.1292837426526536
32.963888,17.453915610117996,0.1291232377448952
32.96627600000001,17.40690596828321,0.1289894250463072
32.96866,17.354029793836034,0.1288868155781284
32.971059999999994,17.300362223455938,0.1287848250664847
32.973444,17.252049329009036,0.1286450852640686
32.97582800000001,17.208811571241608,0.1284742460687067
32.978224,17.165853352727897,0.1282968450960254
32.980616,17.125456313468046,0.1280950553423713
32.982996,17.086130209394835,0.1278851599071645
32.985392000000004,17.044382695694622,0.1276952377897918
32.98778,17.002355642740692,0.1275105959413505
32.99016400000001,16.96670697907835,0.1272978713477173
32.99256,16.92877667541587,0.1271021661986809
32.99494800000001,16.892009854738646,0.1269122628214463
32.997332,16.85747745223331,0.1267207844085744
32.999728000000005,16.832908331631824,0.1264873995125656
33.002116,16.80936292438873,0.1262630751979984
33.00450000000001,16.78642192162345,0.1260569734430214
33.006896,16.766366963336125,0.1258515546195138
33.009288,16.755204351766,0.1256120646541972
33.011668,16.742923583180993,0.1253967351748109
33.01408000000001,16.73432025500686,0.1251811766556003
33.016468,16.732746942430367,0.1249404210012263
33.018851999999995,16.737132710264888,0.1246824399884044
33.021264,16.739329385897886,0.1244569571510175
33.023652,16.744551875635693,0.124230399902675
33.026032,16.757735546530927,0.1239761623647263
33.028428000000005,16.774736427463893,0.1237200276475926
33.030816,16.793831956941894,0.1234669337425657
33.033196000000004,16.825824034629925,0.1231608046264269
33.035596,16.863635423102107,0.1228420109464171
33.037983999999994,16.90261029455954,0.122531303292108
33.040364,16.95061728236104,0.1221883637894752
33.042764000000005,17.000998457961295,0.1218434542999576
33.045152,17.05347428210658,0.1215026092005723
33.047532000000004,17.103249157371152,0.1211902273419361
33.049932,17.157400321180894,0.1208648324806669
33.052319999999995,17.21928034872258,0.1205032383916483
33.0547,17.28074106738369,0.120150921009021
33.05711600000001,17.338849210858022,0.1198242125743585
33.059504000000004,17.40361528287766,0.1194687772298568
33.061884000000006,17.46931252045708,0.119110766042555
33.064284,17.537663485088977,0.1187479469250151
33.066672,17.603872579347595,0.1184010937821618
33.069052,17.66994190397935,0.1180579258230256
33.071448000000004,17.734009127864688,0.1177268305225616
33.073836,17.790207718391223,0.1174357637185548
33.076216,17.846406308917754,0.1171467767907933
33.078616,17.902465129817422,0.1168615266897555
33.08100400000001,17.951866022171785,0.1166081212867636
33.083383999999995,18.00089482747381,0.1163492159096106
33.085792,18.04941177609664,0.1160866118055726
33.088179999999994,18.088989156174023,0.1158685585606582
33.090564,18.128706305878268,0.1156488624873229
33.092960000000005,18.17098463483637,0.1154099998835481
33.095348,18.210749006368854,0.1151765175122241
33.09773200000001,18.248139190102584,0.1149460451073488
33.100128,18.27994238047765,0.114737296235057
33.102515999999994,18.314958376412623,0.1145107645167182
33.1049,18.35160438604168,0.1142680071697926
33.107296000000005,18.383734337498705,0.1140406407622725
33.109684,18.415631971530253,0.1138039527932566
33.11206800000001,18.43807818033716,0.1136038009816536
33.114464,18.45801043171845,0.1134084916844118
33.116851999999994,18.4805038623536,0.1131938003030851
33.119232,18.505418702615746,0.1129626460628833
33.121632000000005,18.535827988437937,0.1126994892487109
33.12402,18.56665658314072,0.1124298322293649
33.12640400000001,18.59897542191072,0.1121472022748664
33.1288,18.62649866325496,0.1118834208706865
33.131192,18.649086537546594,0.1116415825740418
33.133572,18.66967231109181,0.1114091215500023
33.135968000000005,18.68988599758469,0.1111685723282395
33.138356,18.7057233955324,0.1109387786772544
33.140736000000004,18.716345887173773,0.11073616203969
33.143136,18.72510604769559,0.11053956281662
33.145523999999995,18.736008078590693,0.1103318680282784
33.147904,18.750262684672563,0.1101046284261411
33.1503,18.758138901462846,0.1098966118614249
33.152688,18.76336139120065,0.1096956170705118
33.155072000000004,18.76606992351285,0.1094984230000403
33.157467999999994,18.766776355078637,0.1093102129522832
33.159856000000005,18.77204606664468,0.1090935774940348
33.16224,18.779597418210876,0.1088631095920724
33.164636,18.78128223716467,0.1086563928827345
33.167024,18.77724029313294,0.108470629923127
33.169404,18.770404852421876,0.10829421567317
33.171803999999995,18.75891358391192,0.1081328102428764
33.174188,18.744768588349487,0.1079776814178057
33.17657200000001,18.73490733353361,0.1078000887972686
33.178968,18.728119114650784,0.1076083520245994
33.181355999999994,18.7236125357681,0.1074029551660123
33.18374,18.724041323938028,0.1071777362869941
33.186144,18.727123839160427,0.106946206547831
33.188531999999995,18.72848379289013,0.1067175255851659
33.190916,18.73263724329917,0.106479857020305
33.193312000000006,18.73143601777502,0.1062698686448513
33.195704000000006,18.72674244743723,0.1060818516109286
33.198083999999994,18.73056913676431,0.105865487268316
33.200484,18.73555930907664,0.1056565646408421
33.202872,18.74599670512078,0.1054333224474643
33.205256000000006,18.760018993777177,0.1052018648400739
33.207652,18.77534453504569,0.1049757659903065
33.210036,18.786106796313923,0.10477640735755
33.212416000000005,18.79593789202238,0.1045792445552071
33.21482,18.808282945156453,0.1043786493201771
33.217203999999995,18.819137754223306,0.1041913960988571
33.219584,18.829573254409578,0.1040117126104156
33.22198,18.84038084164819,0.1038397422599238
33.224368,18.84690468814025,0.1036893754013411
33.226748,18.852078060191943,0.1035498028767336
33.229152,18.85483002261665,0.1034262805096605
33.231539999999995,18.855300345041208,0.1033162655170563
33.23392,18.857632998585327,0.1032009619198503
33.236316,18.867834285488254,0.1030564342265827
33.238704,18.87724417645826,0.1029121297229499
33.241084,18.888004541868625,0.102757070816348
33.243483999999995,18.900767008025408,0.1025941513360192
33.245872000000006,18.905009214517328,0.102458391864472
33.24825200000001,18.90780839877027,0.1023203731804491
33.250656000000006,18.90488082003769,0.1022010589587421
33.25304,18.89408460794629,0.102110728678467
33.255424000000005,18.879423963988923,0.1020335779714836
33.257819999999995,18.871188931151387,0.1019250360422675
33.260208000000006,18.8665387909261,0.1018082448120447
33.262587999999994,18.860445628461843,0.1016889726664057
33.26499200000001,18.853421300437805,0.101572206526894
33.26738,18.848399073160184,0.1014474631046781
33.269760000000005,18.842305910695924,0.101327894708886
33.272155999999995,18.83700414416458,0.1012079919571473
33.274544000000006,18.832913082446737,0.1010803551153438
33.276923999999994,18.827611315915394,0.1009603615401912
33.27932,18.82109884457055,0.100848127280835
33.281707999999995,18.811373567665797,0.100751578652525
33.284092,18.792149643708157,0.1006992921336249
33.286488000000006,18.77837294348232,0.1006337421201448
33.288876,18.76869299254794,0.1005653748430383
33.291256000000004,18.758873271986698,0.1004995627816896
33.29366,18.75394169664982,0.1004309231023296
33.296043999999995,18.75231547467148,0.1003596692405375
33.298428,18.755065541238316,0.1002806194410312
33.300832,18.766056328216287,0.1001808950968328
33.30322,18.77797828075404,0.1000784877395903
33.3056,18.78612834922444,0.1000019373221467
33.307996,18.799213784747447,0.0999079345136613
33.310384,18.81611643030819,0.0998166400368882
33.312764,18.835533033294546,0.0997228075802412
33.315160000000006,18.85611311926615,0.0996367680019601
33.317548,18.88255973785015,0.0995310050655937
33.319928000000004,18.914593349792824,0.0994104624406374
33.322328,18.94392601285477,0.0993101718682876
33.324712000000005,18.98005637408889,0.0991877418451098
33.327096,19.01991139756212,0.0990556910090656
33.329492,19.06228037846097,0.0989213301793036
33.33188,19.11265776234549,0.0987570214610305
33.334276,19.156749304737037,0.0986207672133208
33.33667200000001,19.202842947875,0.098478155806294
33.33906,19.251450548438577,0.0983339818804477
33.341440000000006,19.29940652269609,0.0981876625953176
33.343836,19.343498065087637,0.0980538653746645
33.34622400000001,19.38931216897188,0.0979185025827836
33.348608,19.431261840990143,0.0977956379713864
33.351004,19.47945013267314,0.0976616516433561
33.353392,19.52884912916963,0.0975204815533332
33.355776000000006,19.573824615292708,0.0974020226582715
33.358172,19.621081741415928,0.0972724940915838
33.36056000000001,19.67034096828556,0.097136391471857
33.362939999999995,19.72323230959569,0.0969797742387803
33.36534400000001,19.773702241278823,0.0968386510634876
33.367732000000004,19.8223098418424,0.0967029902222335
33.370116,19.878134449458727,0.0965400790547251
33.372512,19.93009462520908,0.0963896643259845
33.3749,19.980844096145933,0.0962469063318823
33.37728,20.033875207082925,0.0960933630301029
33.379676,20.084904217273497,0.095947620259445
33.382064,20.141148133770404,0.0957817355802447
33.384444,20.192875992095274,0.0956254074719797
33.386844,20.240087792248115,0.095478133878681
33.389228,20.290232858707157,0.0953227740069564
33.391611999999995,20.345033752965083,0.095156934085895
33.394008,20.394247653864348,0.0950043647021488
33.396392000000006,20.44481202920397,0.0948428108682049
33.398776,20.48927755450572,0.0946901588837792
33.40118,20.535745180553885,0.0945315559611915
33.40356800000001,20.58449444660219,0.0943622844590479
33.405947999999995,20.628448115224742,0.0942067402297418
33.408348000000004,20.672541553474154,0.0940497649121878
33.410736,20.71263079023073,0.0939067566743863
33.413120000000006,20.74755234250922,0.0937694005483789
33.415516,20.781822268481665,0.0936300187260701
33.4179,20.80836333072214,0.0935122315884905
33.420283999999995,20.837046263335907,0.0933862669475141
33.42268,20.864425943337555,0.0932555328343142
33.425068,20.885007925167034,0.0931437427446853
33.427452,20.90279641031718,0.0930381707323142
33.42984800000001,20.917000002855072,0.0929387891120134
33.432236,20.93013266020633,0.0928436938957004
33.434616000000005,20.94540718793085,0.0927401361899805
33.437016,20.955094722296717,0.0926488031242946
33.439404,20.958543636997845,0.0925670181257733
33.441784,20.970000954684643,0.0924605378334236
33.44418400000001,20.98360014274472,0.0923459713542483
33.446572,20.995709086737577,0.0922422259655145
33.448952000000006,21.001020332558262,0.0921567798887432
33.451359999999994,21.004609016886256,0.0920732424699681
33.453748000000004,21.00433326934828,0.0919996677414021
33.45612800000001,20.998330758824764,0.0919401342936151
33.458524,20.98939498199505,0.0918887043660063
33.46091200000001,20.98604619852401,0.0918255055163593
33.463296,20.982417875799257,0.0917668419442665
33.465692000000004,20.9787895530745,0.0917080876149609
33.46808,20.972507503297265,0.0916529849130988
33.47046,20.96529428796025,0.0915997813431819
33.472864,20.9611541085563,0.0915362177762008
33.475252,20.9571536987792,0.0914703614265013
33.477636000000004,20.950731879375112,0.0914173144777041
33.480031999999994,20.94659169997116,0.0913536511999278
33.482420000000005,20.94110104612685,0.0912986657453898
33.48480000000001,20.937332953775226,0.0912420186303704
33.487196,20.93663789735666,0.0911750320161902
33.48958400000001,20.92434954534018,0.0911378600471696
33.491968,20.9074053655248,0.0911101657817883
33.494364000000004,20.89595563126948,0.0910594537771863
33.496752,20.88757893294721,0.0909984445158585
33.49913600000001,20.87720013387853,0.0909434631765502
33.501532,20.8740383418626,0.090863914421665
33.50392000000001,20.87809355689941,0.0907599780973713
33.5063,20.88228854156309,0.0906536350641866
33.508700000000005,20.87996536730832,0.0905605398666932
33.511088,20.87619917081457,0.0904645211503859
33.513468,20.87657694544052,0.090354274269182
33.515868,20.874673080066326,0.0902544415108968
33.518255999999994,20.87370038025191,0.0901527192496991
33.52064,20.874078154877854,0.0900425134094401
33.523036000000005,20.873524763944012,0.0899340559178291
33.525424,20.874321847450545,0.0898168729698563
33.527804,20.871114729464235,0.0897115804332015
33.530204,20.86939785554515,0.0895955356522517
33.532591999999994,20.87010239125306,0.089466992185161
33.534972,20.86945645252061,0.0893469835592581
33.537375999999995,20.877470543079884,0.089205754826458
33.539764000000005,20.88865021737083,0.0890661659562515
33.54214400000001,20.898479417221417,0.0889355920936638
33.54454,20.915246084871036,0.0887861497191467
33.546927999999994,20.93187298289379,0.0886388494773398
33.549308,20.944076370543133,0.088510138562178
33.551704,20.949714377445783,0.0884079195476313
33.554096,20.95614378028135,0.0883060095394659
33.556476,20.97123321240865,0.088183728329662
33.55888,20.985763566028503,0.0880702643498707
33.561268,20.996941344461572,0.0879711379946102
33.563652000000005,21.007839583640934,0.0878762293849103
33.566047999999995,21.0212517802459,0.0877806393483574
33.568436000000005,21.03503606390321,0.0876923926491499
33.57081600000001,21.055478276105823,0.0875899102182178
33.573212,21.07992468980128,0.0874763405021178
33.575599999999994,21.10981832722853,0.0873546075982606
33.577984,21.13836149021544,0.0872414690625038
33.580388,21.16620580506804,0.0871397523311018
33.582776,21.19898548697326,0.0870254293876072
33.585156,21.22869213294542,0.0869209832995752
33.587552,21.255884821491964,0.0868174346817096
33.589944,21.280795870038364,0.0867239813120595
33.592327999999995,21.300631781905302,0.086646076385421
33.594724,21.32326119045157,0.0865632390510788
33.597112,21.35203667086395,0.0864620843078012
33.599496,21.3858872879558,0.086346226868734
33.60189200000001,21.42774630803332,0.0862092597287087
33.60428,21.46224855143123,0.0860970682952654
33.606663999999995,21.499684061135337,0.085977920088939
33.60906,21.54233447714577,0.0858424511431724
33.611448,21.590199799462543,0.0856904538899799
33.613832,21.63634256028662,0.0855401454969959
33.61622800000001,21.682345551483834,0.0853924201175159
33.618616,21.725555046001716,0.0852505057283127
33.620996000000005,21.77048710201229,0.0851086324835257
33.623396,21.813417057276443,0.0849724440226239
33.625780000000006,21.856347012540606,0.0848363557918621
33.628164,21.90062744224512,0.0846929906073978
33.63056,21.939972504897028,0.0845620858789917
33.632948,21.983321769041765,0.0844213236137941
33.635328,22.028393594679205,0.0842797148301026
33.637724000000006,22.076957765130278,0.0841234801297163
33.640112,22.12351983483493,0.0839725713167738
33.642492000000004,22.170361443793308,0.0838180955993661
33.64490000000001,22.215061182378403,0.0836718844625517
33.647284,22.25789858984394,0.0835292450417771
33.649668000000005,22.29458992544337,0.0834047455644629
33.652064,22.335844541043077,0.0832620507148417
33.654452000000006,22.378449631083136,0.0831123956527005
33.656831999999994,22.417841915563287,0.0829739548895738
33.659228,22.456303034483653,0.0828376451279709
33.661615999999995,22.494903923030886,0.0826996780557702
33.663996,22.530199458219585,0.0825614902596422
33.666396000000006,22.563492892661863,0.0824285607442042
33.668784,22.59012839855884,0.0823080417203317
33.671164000000005,22.620396018896308,0.0821716738055876
33.673559999999995,22.652945279233915,0.0820267650965824
33.675948000000005,22.681769877332407,0.0818878329423587
33.678332,22.71152564099068,0.0817474978349398
33.680736,22.738348138342754,0.0816138862279217
33.68312400000001,22.76531040532169,0.0814785048961093
33.685503999999995,22.78854801006151,0.0813490095183515
33.6879,22.814067254801472,0.0812109142608951
33.690292,22.83893487323537,0.081070641218738
33.692672,22.858495037564325,0.0809346620255417
33.695072,22.87568101409452,0.0807968429773867
33.69746000000001,22.88956163726619,0.080658391522586
33.699839999999995,22.89957782857188,0.0805274246106123
33.702236,22.90600912726532,0.0804000405989511
33.704628,22.91234787816014,0.0802622119487325
33.707008,22.917103837189128,0.0801232633860432
33.709404000000006,22.922930731404755,0.0799813021166769
33.711792,22.931970431180297,0.0798295919359451
33.714172000000005,22.94035850464977,0.079675250156567
33.716572,22.950888448492535,0.0795143476818552
33.71896,22.95569162934976,0.079363406981614
33.72134,22.95891201834116,0.0792113124025655
33.723736,22.96148078102649,0.0790564415587838
33.726124,22.967821427779175,0.0788843692796025
33.728508000000005,22.97206742598684,0.0787062680693787
33.730912000000004,22.977943437888573,0.0785174936916603
33.7333,22.98381944979031,0.0783286920383431
33.735684000000006,22.986901965012716,0.0781435986091705
33.73808,22.98584050911542,0.0779691807691854
33.74046800000001,22.987572549897465,0.0777909993824784
33.742847999999995,22.99195831773198,0.0776112021229255
33.745244,22.99713548149942,0.0774318892831541
33.747632,23.00659638601341,0.0772401218050154
33.750012,23.01670891683345,0.0770511548172204
33.752408,23.023329102839863,0.0768754596655366
33.754796,23.02794718809986,0.0767040735287619
33.757176,23.024045013694987,0.0765449682556728
