Time,Force,Position
32.357724,4.21585728044983,0.1713989286097314
32.360108,4.5222746849289885,0.1704901384798961
32.362503999999994,4.839165332133317,0.1696221098318712
32.364892,5.173466689861842,0.1685556726484514
32.367272,5.519032686248457,0.1675711860063581
32.369676,5.87558378203944,0.1667001904006687
32.372063999999995,6.247915574660541,0.1657730583202166
32.374444,6.634165732992205,0.1648159211824194
32.376839999999994,7.033682630728376,0.1638602263500014
32.379228,7.44553510230927,0.1629760048886969
32.381612,7.86776826881672,0.1621042425259436
32.384007999999994,8.298519799131162,0.1612683914697011
32.386396,8.737417606200266,0.160427045077485
32.388776,9.187302408531604,0.1595557763172228
32.391172,9.646311875005624,0.1586930734315385
32.39356,10.11114065226379,0.1579071125787277
32.39594,10.580765026947708,0.1571242232549441
32.398336,11.050948480139068,0.1564086423870895
32.400727999999994,11.52052752885261,0.1557388876253285
32.403108,11.98857100752856,0.1551267922325978
32.405504,12.451121936502323,0.1545663113831991
32.407888,12.913954300587683,0.1539748939832634
32.410272,13.372691811239456,0.1533695058049416
32.412672,13.81988514397942,0.1528278193782178
32.41506,14.25451058544918,0.1523107052928369
32.417444,14.681970033410174,0.1517597839345096
32.41984,15.096676494503727,0.1512171676820778
32.422228,15.4945332194384,0.1506833391564971
32.424608,15.874236955602068,0.1501591868906642
32.427008,16.232622119263052,0.1496560391554453
32.429399999999994,16.571690811167777,0.1491520050985934
32.43178,16.89321281463718,0.1486196328366862
32.434176,17.197979525604183,0.1480557826154518
32.436564,17.47612020996356,0.1475350210397022
32.438948,17.72842626364823,0.1470507019267965
32.441343999999994,17.9524762770312,0.1466231614765066
32.443732,18.155020726456385,0.146220845571148
32.446116,18.33363820229679,0.1458632018653509
32.448511999999994,18.491214749030373,0.1455467499778888
32.450896,18.62695897072421,0.1452721998752643
32.45328,18.74776111334909,0.1450086152080112
32.455676,18.845845091344824,0.1448181131902366
32.458064,18.93066232993605,0.1446461758078806
32.460448,19.00607726098875,0.1444691987907964
32.462844,19.075814546742038,0.1442669054680934
32.465236,19.12846598719521,0.1441318163659782
32.467616,19.17045719346811,0.1440167321479524
32.470012,19.20816655485233,0.1438902257807568
32.4724,19.24168661914648,0.1437646109419805
32.474784,19.27059807746998,0.1436478603561153
32.47718,19.297275117621588,0.1435346472591691
32.479568,19.322741452959693,0.143432884403253
32.481952,19.346997083484304,0.1433423816560995
32.484348,19.37721179441992,0.1432321823429097
32.486736,19.41310604651283,0.1431079870762927
32.48912,19.45295727827033,0.142975182106926
32.491516,19.499838525625467,0.1428164695572069
32.493904,19.552678853391612,0.1426377724901916
32.496288,19.61203734007621,0.1424290848204532
32.498684,19.68028817347801,0.1421860014278177
32.501072,19.754126000238475,0.1419189568990055
32.503452,19.83676362591753,0.1416052297725734
32.505852,19.924476388276062,0.1412650234950389
32.50824,20.015262186567647,0.1409104305126088
32.51062,20.10963287747148,0.1405459531725184
32.51302,20.21187220173412,0.1401412486414965
32.515408,20.31541477860888,0.1397407546787517
32.517788,20.42133154328239,0.1393393465093235
32.520188,20.526689229448465,0.1389501361371825
32.522576,20.639216700839043,0.1385367747176765
32.524956,20.754258129655238,0.1381196819385539
32.527352,20.87037049365807,0.137700318330592
32.52974,20.984620526541335,0.1372919444884282
32.532124,21.096356601999,0.1368944736775575
32.53452,21.202133597045652,0.1365166265199145
32.536908,21.30888897948033,0.13612307864685
32.539303999999994,21.4050294537051,0.1357684018100792
32.5417,21.50270739382533,0.135389562226912
32.544087999999995,21.59470579278828,0.1350251305290931
32.546468,21.679721397981837,0.1346734131955307
32.548863999999995,21.75533279977898,0.1343503994185234
32.551252,21.82647536523234,0.1340328712689021
32.553636,21.88900512322222,0.1337425293995563
32.556031999999995,21.946506966360868,0.1334670318586855
32.55842,21.99325413166276,0.1332295614263804
32.5608,22.03273896394153,0.1330069161848225
32.563196,22.064961463197164,0.1327977360067221
32.565583999999994,22.090713025362604,0.1326015431578958
32.567964,22.115627865624745,0.1323830286090019
32.570364,22.125831048385542,0.1322069376395801
32.572751999999994,22.12798050219029,0.1320454644158502
32.575132,22.12072575259865,0.1319091818756829
32.577532,22.10686029628994,0.1317870860596085
32.579919999999994,22.08359063658483,0.1316899065845535
32.5823,22.061578903521458,0.1315709027401472
32.5847,22.0331887811665,0.1314743792932269
32.587084,22.00843077325204,0.1313525167985117
32.589468,21.979156707165544,0.131245771961406
32.591868,21.94657728772052,0.1311457829753888
32.594252,21.91013343640952,0.1310620754287779
32.596636,21.87769378659135,0.1309591321050686
32.599031999999994,21.84003923046685,0.1308832522821828
32.601423999999994,21.802105135088635,0.130812000863878
32.603804,21.755091701538117,0.1307847971730407
32.606199999999994,21.71408457022684,0.1307287614472034
32.608591999999994,21.67330975634104,0.1306809908867091
32.610972,21.640915432493248,0.1306010407292116
32.613372,21.61275762756377,0.1305104161519164
32.615759999999995,21.584273061552327,0.1304376090046775
32.618143999999994,21.56561200781786,0.1303332802469795
32.62054,21.55011653781507,0.130224354943208
32.622927999999995,21.53857804747687,0.1301097404540609
32.625311999999994,21.5332781768034,0.1299752381543572
32.627708,21.536730883220272,0.1298150858610203
32.630095999999995,21.539856828555177,0.1296733220741278
32.73524,20.43710261115018,0.1296196449439316
32.737627999999994,20.432680996634637,0.1296073559782647
32.740008,20.43407869290324,0.1295819595994673
32.742408,20.439665686261904,0.1295599117061907
32.744795999999994,20.45214292559136,0.1295186436460309
32.74718,20.46671481346585,0.1294792264283398
32.749576,20.48566298988551,0.1294266880436416
32.751963999999994,20.505774649290423,0.1293796250752905
32.754348,20.53226469798693,0.1293096888288711
32.756744,20.561548243362765,0.1292292581914172
32.759131999999994,20.596418782097278,0.1291272860106581
32.761516,20.630870011951203,0.1290328116892654
32.763912,20.670396378484604,0.1289129949441759
32.766299999999994,20.7152774209512,0.1287630455392764
32.768684,20.76202079453735,0.1286057542885699
32.771083999999995,20.80820508961606,0.1284593717109862
32.773472,20.85452915432163,0.1283099983221396
32.775856,20.90006182309428,0.1281619587568383
32.778251999999995,20.950809398173263,0.1279867767619814
32.780643999999995,21.003047217319462,0.1277992463297215
32.783027999999995,21.05528503646567,0.1276127435792555
32.785428,21.103658423745895,0.1274434207433888
32.787816,21.153382285466485,0.1272638982652071
32.7902,21.196727757895488,0.1271063172388584
32.7926,21.23741950327201,0.1269574180137531
32.794988,21.27624891752898,0.1268159122088975
32.797372,21.311074130293115,0.1266933932923384
32.799768,21.35125401899045,0.1265424329960411
32.802156,21.38971134619508,0.1263967544203707
32.80454,21.427609594892267,0.1262615262906533
32.806951999999995,21.46685831802981,0.1261168946441339
32.809344,21.51211334340661,0.1259455014977352
32.811724,21.55843930397005,0.1257698522385893
32.814124,21.60541689083955,0.1255972188986175
32.816516,21.65746961438852,0.1254020831763962
32.818895999999995,21.71008141644493,0.1251984551789812
32.821296,21.77070162148701,0.1249604589305224
32.823691999999994,21.83546579764878,0.1247036659542164
32.826076,21.898088103437274,0.1244597899987346
32.828492,21.960570639598902,0.1242200374843559
32.830884,22.021051075014125,0.1239896583732884
32.833268,22.08739804304173,0.1237367379327335
32.835684,22.15360524144248,0.1234874143854002
32.838075999999994,22.23168527469487,0.1231902075236098
32.84046,22.310696473507036,0.1228905712948238
32.842859999999995,22.3921290819462,0.1225766512012434
32.845248,22.479987301505197,0.1222315165224073
32.847632,22.557974786958965,0.1219277446888373
32.850036,22.63689343797251,0.1216222548424152
32.852424,22.714508836373945,0.1213147299116464
32.854803999999994,22.78518676697635,0.1210363876972676
32.857208,22.850417473846942,0.1207755093284916
32.859592,22.91071281366493,0.1205353677149393
32.861971999999994,22.9672834912438,0.1203084442637765
32.864368,23.018267175464,0.1201006806238315
32.866755999999995,23.065246658191363,0.1199097086591535
32.869136,23.10528867311969,0.1197472211717439
32.871531999999995,23.14388766580906,0.1195852026683551
32.87392,23.180252240326528,0.1194235962560039
32.8763,23.21303192223174,0.1192719557057012
32.878704,23.24944371857745,0.1190991246877449
32.881091999999995,23.28161899600485,0.1189350484530504
32.883472,23.31048892007372,0.1187761468718808
32.885867999999995,23.32790531817152,0.1186563700771815
32.888256,23.34494962921699,0.1185310035529832
32.890636,23.360923005075826,0.1184110856512369
32.893032,23.37489428018824,0.1182995803834048
32.895419999999994,23.394220231233845,0.1181633560867168
32.8978,23.411171994480693,0.1180293268803374
32.9002,23.429614001794764,0.1178843388139557
32.902584,23.45313114578831,0.1177193033367483
32.904964,23.47664828978185,0.1175543930919645
32.907368,23.501655677842614,0.1173783679197456
32.909755999999994,23.52386956922404,0.1172105308206166
32.912136,23.548365100605604,0.1170311974805564
32.914531999999994,23.576073437547084,0.1168374610609237
32.91692,23.608205284861977,0.1166228075570106
32.9193,23.635913621803457,0.1164300849014172
32.921699999999994,23.66734662098405,0.1162273419863988
32.924084,23.698919389791502,0.1160226724658873
32.926464,23.727139583412185,0.1158352979549644
32.92886,23.752007201846084,0.1156644303521371
32.931248,23.7793887777056,0.115490058952468
32.933632,23.812916425431236,0.1152915273721049
32.936028,23.846164533903146,0.1150977028154509
32.938412,23.87782985050921,0.1149053867199862
32.940796,23.90684144006281,0.1147194188018397
32.943192,23.935853029616403,0.1145341582032804
32.94558,23.96458507991628,0.1143533124397592
32.947976,23.989824785402515,0.1141910542740759
32.950368,24.016135426075397,0.1140249938299348
32.952755999999994,24.04659003786796,0.1138430819286737
32.955136,24.07676511040681,0.1136657533499456
32.957532,24.11122392369222,0.1134701915223312
32.95992,24.146194593656823,0.1132791665238354
32.9623,24.18051363731537,0.1130871723282611
32.964704,24.208686609107804,0.1129188665858452
32.967091999999994,24.24142286090051,0.1127286469097983
32.969472,24.267221644894192,0.1125622589955667
32.971872,24.295162299261147,0.1123872586119144
32.974259999999994,24.32072876582935,0.1122135690120415
32.976644,24.349787577211192,0.112022290964395
32.979043999999995,24.37540126560764,0.1118368889641798
32.981432,24.39822145732475,0.1116594321276833
32.983812,24.424254454601773,0.111469225828531
32.986208,24.45201001337149,0.111276644385921
32.988595999999994,24.47748393214108,0.1110949807765139
32.99098,24.499884814977616,0.1109249024502539
32.993372,24.526569438560696,0.1107376956468483
32.99576,24.557398033263475,0.1105352145668743
32.99814,24.58035799460745,0.1103580611808959
33.000539999999994,24.59838258889881,0.1101972996208039
33.002928,24.616826492070757,0.1100308093174289
33.005308,24.63405969042919,0.1098711307588689
33.007704,24.64584566505582,0.1097236110778753
33.010092,24.658143496361657,0.109580109755534
33.012476,24.671652032480985,0.1094301321859999
33.014872,24.67873495748048,0.1093062817239458
33.01726,24.690753249532587,0.1091667871764087
33.019656,24.700350131957705,0.1090401786170955
33.022051999999995,24.71446307255485,0.108904191319076
33.02444,24.728576013151987,0.108768523846193
33.026824,24.74976619117502,0.1086092866786817
33.029219999999995,24.77025752106375,0.1084601419338693
33.031608,24.784882318340085,0.1083289296691851
33.033988,24.797784554123727,0.1082005066416776
33.036384,24.816553322519763,0.1080548001315775
33.038771999999994,24.83918652278177,0.1078983966099497
33.041152,24.857116673416645,0.1077652016391049
33.043552,24.87383611923802,0.1076386232493262
33.045939999999995,24.896561867298644,0.107492801074052
33.04832,24.921010176851965,0.107344650275662
33.050715999999994,24.94597034308448,0.1072006150442257
33.053107999999995,24.97279284043656,0.1070526634367022
33.055488,25.005202331147306,0.1068917651140933
33.057891999999995,25.03495809480557,0.1067357124088442
33.06028,25.06671595921026,0.1065735763277881
33.062664,25.10354896029442,0.106394711102769
33.065059999999995,25.14252383175186,0.1062085250775873
33.067448,25.18364057358257,0.1060145062029948
33.069827999999994,25.22289498429373,0.1058254508508988
33.072224,25.262381712430365,0.10564446991904
33.074611999999995,25.29837609575336,0.1054805433646177
33.076995999999994,25.332787687210526,0.1053168737960309
33.079392,25.370784171279936,0.10514686964503
33.081779999999995,25.41036344721519,0.1049769346101035
33.084163999999994,25.449291096844387,0.1048062212501805
33.08656,25.484633853861325,0.104642355662857
33.088947999999995,25.520675459012573,0.1044690114006003
33.091331999999994,25.55606543785775,0.1042944020278212
33.093728,25.59252635188957,0.1041166199056477
33.096115999999995,25.63033774036176,0.1039316263653822
33.098499999999994,25.66735773290102,0.1037472465568097
33.100896,25.70265516394759,0.1035656570696408
33.103283999999995,25.73501932868796,0.1033924531738556
33.105664,25.771247925294304,0.1032097567586485
33.108059999999995,25.80905931376649,0.1030274392596959
33.110448,25.85022327742545,0.1028327237512756
33.112832,25.886172334778063,0.1026558784642183
33.115227999999995,25.919048356197635,0.1024888928289508
33.117616,25.952995312803843,0.1023185706327369
33.119996,25.98871205273099,0.1021357626343756
33.122392,26.023637396725217,0.1019534790687431
33.124779999999994,26.065500208518475,0.1017526832016007
33.127164,26.106571624378816,0.1015524587713148
33.12956,26.148062349119737,0.1013473716174991
33.131947999999994,26.18540910274097,0.1011558934069058
33.134332,26.227411684161087,0.1009555614361335
33.136728,26.272207762260543,0.1007502243211157
33.139115999999994,26.31593290517336,0.1005489933046438
33.141512,26.3563054728994,0.1003612292549925
33.143908,26.395467335811936,0.1001795616133144
33.146296,26.43476896835134,0.0999965082888847
33.148675999999995,26.47192873051746,0.0998210024319753
33.151076,26.513232463803277,0.0996333168117058
33.153464,26.55360503152932,0.0994482247770793
33.155848,26.595467843322577,0.0992550412288297
33.158244,26.62997387843622,0.0990858232546584
33.160632,26.667832488736646,0.0989043123094797
33.163016,26.711325314223984,0.098701908844031
33.165412,26.755749305271102,0.0984985558185599
33.1678,26.79896259150472,0.098301433333076
33.170179999999995,26.843246812924978,0.0981013459912648
33.17258,26.88767080397209,0.0979008948790154
33.174968,26.93609899651204,0.097690961876058
33.177347999999995,26.986109980917824,0.0974821186409182
33.179744,27.040125166816445,0.0972634492937213
33.182132,27.08920498566245,0.0970573225928968
33.184515999999995,27.13842457413532,0.0968504275066534
33.186912,27.193091386339997,0.0966361322425039
33.1893,27.25218170891809,0.0964072510513346
33.19168,27.313925758548656,0.0961759942768198
33.19408,27.378323535231704,0.0959425071612275
33.196468,27.447656678967352,0.0956980889169147
33.198851999999995,27.51563934826265,0.0954617231011313
33.201248,27.58320270867736,0.095231279339529
33.203636,27.650486529838357,0.0950057381784691
33.206019999999995,27.72885178991807,0.0947537843722616
33.208416,27.81080194261004,0.0944988480191717
33.210804,27.893915578287263,0.0942512922500272
33.213187999999995,27.97502711321807,0.0940094594990629
33.215584,28.05599887852201,0.0937702411838997
33.217972,28.13790180938574,0.0935306025402334
33.220355999999995,28.21766286987619,0.0932989237160542
33.222756,28.29742393036664,0.0930690158915827
33.225144,28.37853546529745,0.0928342216752037
33.227528,28.459786769855118,0.0925990120152976
33.229924,28.551328117398587,0.0923393293642083
33.232312,28.641798529755427,0.0920839776025072
33.234691999999995,28.72845173207453,0.0918274622237352
33.237092,28.810821193647083,0.0915841707633974
33.23948,28.89603137372721,0.0913284996199768
33.24186,28.97593409970239,0.0910786874552185
33.24426,29.053322868251943,0.0908309530453779
33.246644,29.12861698825648,0.0905801058025
33.249028,29.205169034902752,0.0903157855231528
33.251424,29.278415728190485,0.0900531552471937
33.253816,29.340069125880305,0.0898127807352484
33.2562,29.39562367353226,0.0895779695546814
33.258596,29.447081471892755,0.0893445060544327
33.260984,29.50002951432048,0.0891040457824443
33.263368,29.554607570442283,0.0888552868753102
33.265764,29.605088877272628,0.088607269438172
33.268152,29.652125061117584,0.0883618338314545
33.270532,29.694133330111317,0.0881186603162952
33.272932,29.727621339440173,0.087888959183398
33.27532,29.75873516097028,0.087658956917181
33.2777,29.779838478768305,0.087450276000823
33.2801,29.801500875073767,0.0872358999748867
33.282488,29.81995046581932,0.0870300934873746
33.284868,29.84217194063222,0.0868101586498001
33.287264,29.85359151578012,0.0866101635364041
33.289652,29.870086227607494,0.0863997570052395
33.292036,29.88979374499479,0.086181768368637
33.294436,29.912574298315132,0.0859576990553721
33.296823999999994,29.932933442008483,0.0857426420899629
33.299204,29.953292585701828,0.085527871367257
33.301604,29.97900640532837,0.0852998175909132
33.303988,30.00271812420849,0.0850755967100756
33.306372,30.02484705122278,0.0848509630381349
33.308768,30.044322251184592,0.0846286163136468
33.311156,30.05779114890716,0.0844179048842512
33.313536,30.07484493924197,0.084204477875491
33.315932,30.092178268830505,0.0839881141609498
33.31832,30.107090188792046,0.0837800495532158
33.320699999999995,30.12721701505992,0.0835603778531828
33.323096,30.14934594207421,0.0833374866198
33.325484,30.170171616476377,0.0831106428436273
33.327867999999995,30.185270527893017,0.082892003223079
33.330264,30.20106828744396,0.0826657310328357
33.332652,30.21048765770331,0.0824457220673196
33.335035999999995,30.22619286945564,0.0822116525556321
33.337432,30.238452958222577,0.0819792722711788
33.33982,30.24205301769778,0.0817595534368797
33.342203999999995,30.23899514862768,0.0815487631792207
33.3446,30.23342332213196,0.0813379775977691
33.346988,30.22333543746421,0.0811306191688835
33.349368,30.2064498546243,0.0809333390109269
33.351768,30.194127551784657,0.0807228404672204
33.354156,30.1798031481986,0.0805156871826012
33.356536,30.16454757905276,0.0803093979408501
33.358936,30.150130627668087,0.0800937298139685
33.361324,30.12933528699182,0.0798833555753862
33.36372,30.104815284076448,0.0796765713321964
33.366116,30.08206506448201,0.0794594201418222
33.368503999999994,30.05479878671554,0.0792454271583867
33.370884,30.021014350030622,0.0790379620435399
33.373284,29.988440618159203,0.0788261206120735
33.375671999999994,29.95814852628792,0.0786073987010029
33.378052,29.927576895162925,0.0783913686396925
33.380447999999994,29.89765689034398,0.0781769144229909
33.382836,29.861870352912646,0.0779707754779558
33.385216,29.8216603051079,0.0777754687858075
33.387612,29.78238142286293,0.0775786381805326
33.39,29.742962770991102,0.0773827658311479
33.392384,29.703683888746134,0.0771848982721695
33.39478,29.667989899113422,0.0769844163378047
33.397168,29.636951737279592,0.0767789855460163
33.399552,29.60214169137841,0.0765867129858226
33.401956,29.567052106223517,0.0763970508536807
33.404343999999995,29.53089158588197,0.0762094206749898
33.406727999999994,29.495754778898828,0.0760287600248477
33.409124,29.467136130834128,0.0758416238988917
33.411516,29.445966807247657,0.0756472814816203
33.413895999999994,29.425029801086666,0.0754594428258749
33.416292,29.404185342724283,0.0752794297563158
33.418684,29.386506468093582,0.0751016967168095
33.421063999999994,29.37120178126163,0.0749258815525297
33.423464,29.356269181482016,0.0747551265809289
33.425847999999995,29.34291937356824,0.0745856205111571
