Time,Force,Position
3.9695839999999993,2.974032347757169,0.1686628832541618
3.971968,2.978361414474098,0.168616118751001
3.974364,2.984692581937443,0.1684777752645138
3.976747999999999,2.992746310893484,0.1682907025217087
3.9791279999999993,3.0045247020886388,0.1679629511745902
3.981524,3.0258942881352966,0.1672444452936142
3.983908,3.048287587540351,0.1665796468936589
3.986288,3.070541117318544,0.1659317989731064
3.98868,3.091863481536959,0.1653287161814184
3.991068,3.111603053889538,0.1647630271884382
3.993447999999999,3.131901704749557,0.1641404382038226
3.995844,3.1539701389305166,0.1633650325718756
3.998232,3.1799502268056923,0.1623274385551111
4.000615999999999,3.1986207598295024,0.1615329450975306
4.003012,3.213194543561861,0.16085663847449
4.0054,3.220830859495191,0.1604687641571691
4.00778,3.2279553187493235,0.1600661325669865
4.010195999999999,3.234800238749735,0.1596948100998578
4.01258,3.2412258498695667,0.1593786482135045
4.01498,3.248675174347793,0.1591111807051245
4.0173760000000005,3.259569621811412,0.1587470112533954
4.01976,3.271907091514008,0.1583734957025995
4.022143999999999,3.28624666196302,0.1579280094574727
4.02454,3.2995152972253936,0.157540442920494
4.026923999999999,3.3078485654351555,0.1573441465521463
4.029304,3.312457171405804,0.1572796406420775
4.031699999999999,3.3157625247643367,0.157209534768028
4.034087999999999,3.318276482189951,0.1571522358494839
4.036472,3.3221409140559244,0.1570166088263437
4.038867999999999,3.3278676770414544,0.1568235272632309
4.041252,3.331173030399988,0.1567562995798325
4.043652,3.3395535204379927,0.1565037575299124
4.046047999999999,3.3496565719686937,0.1562191322730163
4.048432,3.3699098968583394,0.1555672604307734
4.0508120000000005,3.388021351374708,0.1549960644365518
4.053212,3.413489582570686,0.1541267975367106
4.055596,3.4378868785800263,0.1533074561028803
4.057979999999999,3.46670768496278,0.1523073735577456
4.060383999999999,3.4968789657858927,0.1512386334738175
4.062768,3.5226739580638347,0.1502806827877523
4.065147999999999,3.544744288102663,0.1494319179498145
4.067539999999999,3.5636490344098197,0.1486289508089545
4.069927999999999,3.5797602840376403,0.1479186405422128
4.072308,3.595871533665461,0.1472144240878834
4.074712,3.615707445532395,0.1463953581165518
4.0771,3.6352638181456096,0.1456167914255304
4.07948,3.658544852997937,0.1447537948706828
4.0818840000000005,3.6839677582235417,0.1438116991840252
4.084272,3.705526231583173,0.1429909731852664
4.086651999999999,3.7232202730768313,0.1422858178169887
4.089048,3.742404558637707,0.1414980690283969
4.091436,3.7542320675189735,0.1409848465142234
4.093816,3.761263978974489,0.140611315921545
4.096216,3.763220753750532,0.1404080514875442
4.098599999999999,3.7691817300194086,0.1400816265628376
4.100984,3.7723492096089504,0.1398291621173319
4.10338,3.778449955504687,0.1394972692989298
4.105767999999999,3.7821292917734266,0.1392709857433896
4.108164,3.783526988042029,0.1391310076951081
4.11056,3.786647245803327,0.1389599243647435
4.112947999999999,3.795773805803876,0.1386172888191492
4.115328,3.8094164239764567,0.1381827005367851
4.117723999999999,3.8233385814027576,0.1377229660125691
4.120111999999999,3.835398407709502,0.1373063712127509
4.122491999999999,3.847086146963908,0.1368587665764104
4.124888,3.858122259912257,0.1364077329899329
4.127276,3.861289739501799,0.1361672513829038
4.129655999999999,3.8603132479716464,0.1360517366136775
4.132052,3.859988382747552,0.1359418220482649
4.13444,3.863947258270012,0.1356905682716994
4.13682,3.864833097859417,0.1355312230700375
4.139227999999999,3.869211282262456,0.1352371723435769
4.141612,3.8745206322252743,0.1349183211297395
4.143991999999999,3.877827881441677,0.1346558415137133
4.1464,3.878481403605604,0.1344461920847574
4.148783999999999,3.880997256889089,0.1341952089189605
4.151164,3.878997052000541,0.1340375823130069
4.153568,3.875553824873017,0.133880635739943
4.155956,3.873321302558992,0.1336744532410718
4.158339999999999,3.873230650618245,0.1333995089536692
4.160736,3.869275566811524,0.1332226565719738
4.163119999999999,3.8626667559523273,0.1330926230631419
4.1655,3.859363298451664,0.1329239219769141
4.167895999999999,3.85741031539136,0.1326956005918552
4.170283999999999,3.853967088263835,0.1325394580002024
4.172663999999999,3.8491733866959534,0.1324425048224279
4.175068,3.848523656247764,0.1322257280209882
4.177451999999999,3.8541597672925465,0.1318235293716695
4.179836,3.860075417591049,0.1313917903789087
4.182231999999999,3.863849197516275,0.1310301263720461
4.184619999999999,3.8696250781879176,0.1306136580002423
4.186999999999999,3.872048383672784,0.1303098041704689
4.189396,3.877684494717567,0.1299084993564945
4.191784,3.8881162031881007,0.1293981773409825
4.194168,3.89999093389761,0.1288896561566328
4.196564,3.9057195927410095,0.1285488632605131
4.232403999999999,3.835198494486289,0.1283828096345598
4.234791999999999,3.8356650251951128,0.1282690643373549
4.239592,3.8292413099331504,0.1282490420880244
4.241975999999999,3.824400386537024,0.1282182905318264
4.24436,3.8257055350070095,0.128028084682709
4.246756,3.831294424223549,0.1277119779643105
4.249139999999999,3.842889615679338,0.1272481015799076
4.251519999999999,3.8511322319483527,0.1268930335805744
4.253916,3.86309951045648,0.1264671171626608
4.256304,3.879210760084301,0.1259255521900046
4.258683999999999,3.897324110458539,0.1253245560109105
4.26108,3.91180534639228,0.1248498596134792
4.263468,3.926566121579743,0.1243443160040116
4.265848,3.935180824901094,0.1240087174556303
4.2682400000000005,3.943004132289528,0.1236810098272133
4.270628,3.957253050797792,0.1231646915204194
4.273007999999999,3.966846141507165,0.1227399654382503
4.27542,3.9733661962834823,0.1223998229680583
4.277808,3.9760218191938272,0.1221455842833174
4.280187999999999,3.9786774421041695,0.1218917134537948
4.282591999999999,3.9743955972154863,0.1218071549116639
4.284976,3.9686707300878257,0.1217188276119169
4.287355999999999,3.96601889889322,0.1215490073234891
4.289752,3.959874722884978,0.1214994718231468
4.29214,3.953870316503597,0.1214352649336401
4.29452,3.950007780495493,0.1213097901440086
4.296923999999999,3.9422808126214153,0.1212641094456687
4.299308,3.937906419934113,0.1211170604933297
4.301688,3.930738530567476,0.1210193503385532
4.304096,3.9247813460143375,0.1208795453342811
4.306479999999999,3.9260411685139487,0.1205690484738423
4.308859999999999,3.931584731760114,0.1201416090581454
4.311264,3.941923892432031,0.1196281027910377
4.313647999999999,3.957617729037141,0.1189742776289558
4.316027999999999,3.972240630455612,0.1183485168738436
4.318424,3.983930265567888,0.117794381161208
4.320808,3.997482231799721,0.1172028155904103
4.323188,4.013176068404831,0.1165573317940437
4.325592,4.031523632062415,0.1158706359069951
4.32798,4.04880026053336,0.1152104973315587
4.330359999999999,4.069010155310502,0.114484576991022
4.332763999999999,4.08959213713998,0.1137923044788309
4.335151999999999,4.10281734228985,0.1132771012054103
4.337532,4.121257453746051,0.1126342948752088
4.3399280000000005,4.137695464455836,0.1120438481126401
4.342316,4.151851835165483,0.1115323018205852
4.344695999999999,4.166147975501991,0.111006776227174
4.347099999999999,4.177371079905443,0.1105550970429766
4.349484,4.189665119495534,0.1100761708516158
4.373376,4.1041056026575,0.109830946487116
4.375772,4.094516303663864,0.1097937953931504
4.378159999999999,4.0859979398568695,0.1097302475656593
4.38054,4.076967719370676,0.1096444474634511
4.382935999999999,4.077016837056788,0.1093755254001181
4.385323999999999,4.073992918809844,0.1091728294703836
4.387703999999999,4.070689461309181,0.1089938046551818
4.3901,4.063521571942545,0.1088798988011712
4.392488,4.059007409628382,0.1087374538511675
4.394883999999999,4.055284643247138,0.1085932943260089
4.39728,4.05314466873173,0.1084467146743983
4.399668,4.057942162015352,0.1081720574938617
4.402047999999999,4.060597784925696,0.1079450681657801
4.404444,4.062042703022541,0.1077539659231254
4.406832,4.066141348171861,0.107532323808502
4.409212,4.070659302201761,0.1072745046254528
4.411607999999999,4.082394263284411,0.1068650924980642
4.413995999999999,4.096922721046396,0.1064105457890669
4.41638,4.108517912502186,0.1060120042013348
4.418775999999999,4.122906600637311,0.1055754259100829
4.42116,4.133011548025881,0.1052443548075803
4.423544,4.144699287280288,0.1049170172398193
4.425948,4.1591805232140295,0.1045595486938054
4.428331999999999,4.173382219894051,0.1042239219897544
4.430716,4.186652751014295,0.1039080793744718
4.433112,4.196058850268564,0.1036488899837548
4.435499999999999,4.206675654336332,0.1033561059533817
4.437884,4.218083854337018,0.1030573359081223
4.44028,4.227629723218148,0.102785903739532
4.442663999999999,4.237315361726138,0.1025032517469082
4.445043999999999,4.243416107621874,0.102258131477746
4.447443999999999,4.245652421651639,0.102074550316811
4.449831999999999,4.251892937174237,0.1018186398746327
4.452228,4.262417193443386,0.1014689743455119
4.454623999999999,4.275083320085814,0.1010755323817533
4.457011999999999,4.288680612288021,0.1006734465694008
4.459391999999999,4.292267400758144,0.1004459678008984
4.461788,4.297064894041765,0.100185286691341
4.464176,4.301862387325386,0.0999236295407319
4.466559999999999,4.303866383929672,0.0996973889822543
4.468956,4.308012250907235,0.0994260528842056
4.47134,4.307642059712767,0.0992009287461359
4.47372,4.299403235159492,0.0990991665592837
4.476124,4.294097676912411,0.098952663458461
4.478512,4.287721183478692,0.0988284299886575
4.480891999999999,4.287211222657365,0.0986158505071536
4.483295999999999,4.281626125156564,0.098490879724799
4.485683999999999,4.279393602842538,0.0982875151461985
4.488064,4.2760901453418745,0.0981060858064812
4.490456,4.273857623027849,0.0979027528323257
4.492844,4.272556266273604,0.0976872558050268
4.495224,4.272325844705994,0.0974491673989042
4.497615999999999,4.272235192765247,0.097201120032016
4.500003999999999,4.272004771197639,0.0969666526965451
4.502404,4.267909917764058,0.0967850056437616
4.5048,4.260742028397421,0.0966562130201334
4.507187999999999,4.260371837202952,0.096431210192299
4.509568,4.257859775635208,0.096249497053156
4.511963999999999,4.258280980373658,0.0960260146397139
4.514351999999999,4.259773120298746,0.0957809095811911
4.516731999999999,4.258331993917639,0.0955774704084508
4.519128,4.259684364215867,0.0953431342714816
4.521512,4.263178604887373,0.0950620541382526
4.5239080000000005,4.265090053693042,0.0947813535574723
4.526311999999999,4.267141272125571,0.0944913109180864
4.528696,4.266910850557963,0.0942557969750342
4.531075999999999,4.272546961602745,0.0939366427410462
4.533472,4.278694929326726,0.0936437368031328
4.535855999999999,4.286053601864203,0.0933187119620298
4.538236,4.290479008095487,0.0930341786677736
4.540632,4.297697911006106,0.0927215712483068
4.54302,4.304777044289865,0.0924207489081651
4.545399999999999,4.310925012013844,0.0921313405118691
4.547803999999999,4.314139713431629,0.0918823941841286
4.550191999999999,4.3172146452225535,0.0916420976563469
4.552572,4.324433548133172,0.091331800859392
4.554967999999999,4.329929889551095,0.0910317300022638
4.557356,4.337568101342294,0.0906920234942922
4.559735999999999,4.344135377946854,0.0903756220634913
4.562139999999999,4.351633820111193,0.0900521732451672
4.564527999999999,4.364067629328144,0.0896655837051685
4.566908,4.374499337798679,0.0893082785325844
4.569312,4.386793377388769,0.0889323146534541
4.5717,4.398807877725139,0.0885792459919629
4.574076,4.405887011008898,0.0882887378088197
4.576471999999999,4.410591956493902,0.0879902326840657
4.578859999999999,4.414645275672848,0.0876820230856529
4.581239999999999,4.415393241493261,0.0873763635160923
4.583644,4.421216343993147,0.0870029634309573
4.586031999999999,4.429041547239449,0.0866018493594745
4.588412,4.434352793060137,0.0862060602903889
4.590812,4.441805909254103,0.0857767813141788
4.593195999999999,4.449119255821207,0.0853587510593811
4.59558,4.455501436828534,0.0849461048012464
4.597975999999999,4.465887819328693,0.0844822420104121
4.600363999999999,4.473061396268938,0.0840746461640655
4.602739999999999,4.481166138768961,0.0836616748917223
4.605136,4.48633761496279,0.0832813573614511
4.607519999999999,4.491648860783478,0.0828932842353216
4.609904,4.494958005857748,0.0825306507674065
4.612299999999999,4.493983410185465,0.0822390961420208
4.6146840000000005,4.493008814513182,0.0819465019327879
4.617068,4.492034218840899,0.0816540455303339
4.619463999999999,4.48891775279534,0.081395121711148
4.621848,4.49166781936217,0.0810717098295512
4.624231999999999,4.500936044847448,0.0807001526050254
4.626643999999999,4.504989364026394,0.0804030624280789
4.6290320000000005,4.509554539884537,0.0801282368145127
4.631411999999999,4.503689903130017,0.0800067101570846
4.633808,4.497685496748636,0.0798951549410395
4.636196,4.491261781486674,0.07981388406987
4.6385760000000005,4.483627361411214,0.0797595253473896
4.640972,4.475061775775974,0.0797116323540765
4.64336,4.470360622006709,0.0796261772037588
4.64574,4.465659468237443,0.0795408363970557
4.64814,4.461237853721898,0.0794349152551113
4.650523999999999,4.4565366999526335,0.079349260382952
4.652904,4.4544892732358425,0.0792542230453734
4.65532,4.449508580212856,0.0791881610846099
4.657703999999999,4.44438811756301,0.0791319789153135
4.6601,4.441828834167022,0.0790124053496978
4.662495999999999,4.440060946703951,0.0788963589128181
4.66488,4.438572598494601,0.0787601465300573
4.667259999999999,4.443370091778222,0.0785376161854713
4.669663999999999,4.444954779501928,0.0783640073613085
4.672051999999999,4.441743869799881,0.0782313976005623
4.674432,4.445610197523724,0.0780174059111203
4.676836,4.452549561180622,0.0777668524444839
4.679219999999999,4.46577476633049,0.0774277194448379
4.6816,4.478720432226639,0.0771085514049082
4.6839960000000005,4.493668198869205,0.0767677934281859
4.686384,4.504611764018938,0.0764694381826546
4.688763999999999,4.518348825848005,0.076154608216441
4.691167999999999,4.529944017303794,0.075873842725606
4.693555999999999,4.53767477689361,0.0756271906314574
4.695936,4.546057162789484,0.0753944781739819
4.69834,4.551785821632883,0.0751688109282181
4.700723999999999,4.555931688610446,0.0749351452561272
4.703108,4.563802217827123,0.0746790967004667
4.705504,4.573674847790216,0.0744020718100515
4.707891999999999,4.579915363312814,0.0742013209174223
4.710272,4.5901600803282445,0.0739612850014144
4.712676,4.6029187547692905,0.0737276082443898
4.715059999999999,4.609531357344225,0.0735664866956801
4.717444,4.61698257768032,0.0733472929945251
4.71984,4.626435898762833,0.0731088787050023
4.722227999999999,4.630953852792733,0.0729163891149446
4.724608,4.635332037195774,0.0727355877113904
4.727008,4.640641387158592,0.0725518426606384
4.729391999999999,4.645438880442214,0.0723442498949485
4.731776,4.646371941859861,0.072164306804164
4.734171999999999,4.649446873650786,0.0719541493234856
4.736556,4.650799243949014,0.0717452034366888
4.73894,4.653362319060741,0.0715132905257495
4.741344,4.661791926784859,0.0712367635896799
4.743732,4.669290368949197,0.0709641733486786
4.746112,4.678790911859953,0.0706725053271528
4.748507999999999,4.688943081076768,0.0703951127585085
4.750895999999999,4.696581292867966,0.0701139719471678
4.75328,4.699563676860274,0.0698535512134689
4.755675999999999,4.705107240106439,0.0695358018410668
4.758063999999999,4.701990774060879,0.0692764959726209
4.760444,4.690865905029651,0.069090181103745
4.762843999999999,4.6808119711850615,0.0688887622667035
4.7652280000000005,4.669919419579311,0.0687439121322805
4.767612,4.658095702413784,0.068602872923438
4.770007999999999,4.647203150808033,0.0684565250661309
4.772395999999999,4.630863375470474,0.0683256100802869
4.77478,4.611730103453578,0.0682063032271654
4.777184,4.594738701809961,0.0680573869767038
4.779567999999999,4.583753602405594,0.0678545464579153
4.781952,4.576121078188002,0.0676012628584308
4.784348,4.566486453223994,0.0673641200123963
4.786731999999999,4.55405833158065,0.0671374846644723
4.789116,4.533901346205361,0.0669588943074915
4.791511999999999,4.517096936016846,0.0667302976546883
4.793899999999999,4.50136346101497,0.0664877320883371
4.796279999999999,4.488051395640092,0.0662007153873518
4.798684,4.472317920638216,0.0659559091288373
4.801072,4.463382143808508,0.0656674521943222
4.803452,4.457379633284996,0.0653610446114849
4.805856,4.457383425000735,0.0650050229677327
4.808244,4.467165403023081,0.0645266537246206
4.810623999999999,4.479089251418703,0.0640247556412062
4.81302,4.49529684056088,0.0634763681580792
4.815403999999999,4.510573264143278,0.0629317313291983
4.817784,4.528782954031871,0.0623716446423069
4.820188,4.552719406905995,0.0617851832602647
4.822576,4.577726794966757,0.061188572239364
4.824959999999999,4.603385809333577,0.0606158316896775
4.827356,4.625180391834425,0.060068327317362
4.829744,4.646555665454691,0.0595567516692296
4.832124,4.670212579075093,0.0590140694391366
4.83452,4.694940427882135,0.0584596059707905
4.836907999999999,4.723532708555149,0.0578841582978723
4.839288,4.74784124848161,0.0573566856195882
4.841692,4.771078853221432,0.056844604150216
4.84408,4.790172486841562,0.0563702554805642
4.84646,4.816762666768161,0.0558237874216422
4.848863999999999,4.840279810761704,0.0553065651122594
4.851251999999999,4.857511113262275,0.0548455267786407
4.8536280000000005,4.875394042068906,0.0544052510495113
4.856031999999999,4.888713690875262,0.054029882564063
4.858419999999999,4.901102174121838,0.0536586080849155
