Time,Force,Position
5.805576,2.4637603809986937,0.1742556380128782
5.80796,2.4677173606632845,0.1741501942223599
5.810355999999999,2.4741882977534897,0.1739621195520238
5.812744,2.491461134508697,0.1732335296571963
5.815123999999999,2.519535870928907,0.1719573341498774
5.817523999999999,2.5478901466028376,0.1706307134495705
5.819911999999999,2.571448824851016,0.1695452710957822
5.822291999999999,2.595938668658972,0.1684408076338354
5.824688,2.619776886160871,0.1673062375685616
5.827076,2.641333463662632,0.1663386599920278
5.829459999999999,2.661027710044837,0.165486501929201
5.831856,2.679930560494124,0.1646606451610131
5.834244,2.70018388538377,0.1637235403727331
5.836635999999999,2.7233704765796105,0.162644638136248
5.839036,2.7476280029620903,0.1615041525915766
5.891599999999999,2.826756221106686,0.1610000068447202
5.893979999999999,2.8289906392785804,0.1609747458316316
5.896376,2.833366927823752,0.160845214439282
5.898764,2.842958122675255,0.1604810041814024
5.901143999999999,2.855901892713535,0.1599407199991685
5.903547999999999,2.867123101259118,0.1594487790414533
5.905935999999999,2.87997432349878,0.1588348258676712
5.90832,2.8981802216716344,0.1579344827232575
5.910715999999999,2.918667759844628,0.1568948701933093
5.913103999999999,2.941297168390896,0.1557466004878862
5.915483999999999,2.9669996128702207,0.154493834327169
5.91788,2.9897687910433506,0.1533535904324809
5.920268,3.007602602163868,0.152438974191891
5.922647999999999,3.029300845150359,0.1513862509948758
5.925051999999999,3.05127862739057,0.1502690622569897
5.927439999999999,3.078191776683394,0.1489978659017901
5.929819999999999,3.1001695589236054,0.147923093088806
5.932224,3.117863600417263,0.1470738302264708
5.934612,3.135837181164641,0.1461914931215862
5.936992,3.1508774956058234,0.1454244521042372
5.939387999999999,3.169130615606921,0.1445300678210606
5.941775999999999,3.186592339675101,0.143664684178039
5.944156,3.2048454596762,0.1428043444981436
5.946551999999999,3.2150901766916307,0.142240233420919
5.94894,3.225195124080201,0.1417004108900417
5.951319999999999,3.239164503334745,0.1410426809733474
5.953716,3.250852242589151,0.1404918377826889
5.956104,3.2653334785228934,0.1398712341809424
5.958484,3.2827479807628297,0.1391686350329299
5.96088,3.2990915478161287,0.1385123424661944
5.963267999999999,3.3084976470703986,0.1380856988512321
5.965664,3.318043515951528,0.1376342914392873
5.96806,3.33252475188527,0.1370310464376998
5.970447999999999,3.3423501600201195,0.1365581050926741
5.972828,3.3523153377818304,0.1360611847772473
5.975223999999999,3.3508269895724805,0.1359030642077993
6.011056,3.214625716459164,0.1358226918580214
6.013444,3.2035480692561804,0.1356858086575898
6.015827999999999,3.187023198321386,0.1356721165257643
6.018224,3.1747820681331462,0.1354963450930284
6.020612,3.1696181753707955,0.1350952910854134
6.022995999999999,3.1695294192879166,0.1345235840242119
6.025392,3.169859972085619,0.1339123251260867
6.02778,3.167908884883184,0.1333855007386706
6.030175999999999,3.171312473613941,0.132660864380382
6.032572,3.177928867904614,0.1318298167339294
6.03496,3.187618298128342,0.1308837157979445
6.037339999999999,3.1995893683522074,0.1298476855857178
6.039736,3.211280899322353,0.1288403402755165
6.042119999999999,3.2208305599192206,0.1279215695112959
6.044504,3.233313486822284,0.1269276660256593
6.046899999999999,3.2525941118975163,0.1257582576843
6.049287999999999,3.269593096972611,0.1246755265297852
6.051667999999999,3.2855211468610674,0.1236245631152264
6.163971999999999,2.750246756425977,0.1225457411203889
6.166368,2.746569316015107,0.1225358376388122
6.168767999999998,2.7456853722835723,0.1224581234125415
6.171155999999998,2.744661658925177,0.1223977999774552
6.173536,2.7425670103801427,0.1223787159265567
6.178323999999998,2.7396809659021906,0.1223636127707587
6.180704,2.7439647066487445,0.1221975463215165
6.183107999999999,2.7536031233284914,0.1218263675536093
6.185495999999999,2.76775759818027,0.1213464262569975
6.187876000000001,2.779258345979573,0.1209121114864154
6.19028,2.792900964152153,0.120385821159788
6.192663999999999,2.8025393808319,0.1200022299027579
6.195044000000001,2.8132487326982853,0.1195725926213278
6.197439999999999,2.8236785453109503,0.1191843238751458
6.199827999999998,2.838112559416449,0.118664450955279
6.202208000000001,2.8533379694548664,0.1181489538653512
6.204611999999999,2.8684236098664218,0.1176444339013185
6.206995999999998,2.879784588038866,0.1172361085332253
6.209379999999998,2.8910057965844485,0.1168513687379307
6.216547999999998,2.890913248785832,0.1167672193589689
6.218952,2.8922637232261903,0.1166916776266132
6.221335999999999,2.896827003226465,0.1164947555306145
6.223715999999998,2.9003193480401004,0.1163408431813358
6.226111999999999,2.9039514624805967,0.1161674586381021
6.228499999999999,2.908514742480871,0.1159771267787281
6.230880000000001,2.9115877784139266,0.1158806808033628
6.233283999999999,2.9168026847202597,0.1157121929447108
6.235667999999999,2.9274648147584013,0.1154372217921736
6.238048000000001,2.93970973666238,0.1151580505988585
6.240443999999998,2.953677220059055,0.1148540086863467
6.242828000000001,2.9675049338288697,0.114565693805533
6.245208,2.980541251665766,0.1142820564138713
6.247611999999998,2.992227095062303,0.1140734682095901
6.249996000000001,3.0020506073392843,0.1139068846117214
6.2523800000000005,3.0157385514822383,0.1136479674195156
6.254775999999998,3.0308695178641685,0.1133923987473717
6.257163999999998,3.0461402538729594,0.1131250080163272
6.259544,3.0677893791733384,0.1127373064201262
6.261947999999999,3.095444806712968,0.1121906228092194
6.264335999999998,3.1288269972381277,0.111527883113283
6.266716000000001,3.159275921457092,0.1109511348236695
6.269111999999998,3.190096932728393,0.1104287010467774
6.271499999999998,3.218776073626417,0.1099710009136359
6.27388,3.2503884808306367,0.1094473297743613
6.276283999999999,3.276925751355384,0.1090628636324034
6.278671999999999,3.3026716259472133,0.1086872358845582
6.281055999999998,3.320688636807096,0.108481299465228
6.283455999999999,3.3380540213609207,0.1082703300280806
6.285843999999999,3.3556989451684647,0.1080355232993548
6.288223999999998,3.372692242669952,0.1077894929894246
6.290628,3.393969280917993,0.1074266674226127
6.293011999999999,3.4163172543526725,0.1070359294374493
6.295395999999998,3.4388049974142127,0.1066338346403502
6.297791999999999,3.4623636756623912,0.1062043817041192
6.300175999999999,3.483268626858095,0.105816105060674
6.302556000000001,3.508085231748016,0.1052758462655358
6.304955999999999,3.5298288007048804,0.1048083708219626
6.307339999999998,3.546125145929936,0.1044227725280436
6.309724000000001,3.5564151889157403,0.1041742913105131
6.312119999999998,3.5572538066769024,0.1040906337178131
6.314507999999998,3.557161258878285,0.1040218129681831
6.3168880000000005,3.5557654584675524,0.103927620871661
6.319291999999999,3.559864103616872,0.1036783434589893
6.321675999999998,3.562240187273496,0.1034465376685145
6.324060000000001,3.565966745370478,0.1031564772323235
6.326455999999999,3.568110511601624,0.1028685111026908
6.328839999999998,3.576120810445161,0.1024600547390336
6.33122,3.5806859863033047,0.1020845838972684
6.333616000000001,3.5825974351089744,0.1017409191276142
6.336004000000001,3.584648653541503,0.1013841201667539
6.338395999999998,3.5828354401080587,0.1011013393444702
6.340791999999999,3.580230830741697,0.1008195060267223
6.343179999999999,3.577254134322997,0.1004981846981544
6.345560000000001,3.5725548764116,0.1001900871096239
6.347963999999999,3.5690663233137023,0.0998427960027345
6.350351999999999,3.5612940294692503,0.0996003396676154
6.352731999999998,3.559016181184852,0.0992168244736281
6.355136,3.5628844047665638,0.0987103249104003
6.357524,3.5702449731619117,0.0981019855766478
6.3599039999999984,3.587476275662484,0.0973224706685779
6.362304,3.607128987790053,0.0964706248117977
6.364692,3.625850534357845,0.0956320577832963
6.367075999999999,3.635772282007051,0.0949406361971998
6.369472,3.64369192890984,0.0942833014357558
6.371855999999999,3.651891115066349,0.0935983137140396
6.374235999999998,3.656086099730025,0.0929763725720045
6.376636,3.6616315588340593,0.0923110157972792
6.379019999999999,3.671693076110125,0.091605896502876
6.381400000000001,3.679752492639774,0.0909301774901533
6.383799999999999,3.687811909169423,0.0902566609575219
6.386183999999998,3.696942260885711,0.0895638408279489
6.388564000000001,3.7042102814824416,0.0888913826844205
6.390967999999999,3.711338532452313,0.0882354147372203
6.393355999999999,3.719397948981961,0.0875688840935748
6.395736000000001,3.724524099205415,0.0869476179797757
6.398131999999999,3.7317921198021455,0.0862816109370831
6.400519999999998,3.733845234092545,0.0857219610660533
6.402900000000001,3.7291006502107744,0.085259247488507
6.405295999999998,3.7202120952093103,0.0848711290092096
6.407683999999998,3.7054570075954567,0.0845655754941209
6.410079999999999,3.688420279981465,0.0843135368581144
6.412476,3.669521221247917,0.08407700488096
6.414864,3.655417759940119,0.0837791279911911
6.417243999999998,3.641454068259183,0.083465715372378
6.4196480000000005,3.6281420028843048,0.0831666329072079
6.422036,3.622698570868233,0.0827532400264769
6.424415999999999,3.6132509373593287,0.0824012462806974
6.426812,3.601289346424809,0.08205095868782
6.4292,3.59519428810268,0.0816233285930153
6.431579999999999,3.5878885249670525,0.0812282550438254
6.433976,3.572434589218897,0.0809616146186648
6.579728000000001,3.4540481686474047,0.0807274105026409
6.582108,3.455678182341485,0.0806537938359358
6.5845,3.461964023834456,0.0805368189452051
6.586888,3.4703917357007037,0.0803777469677649
6.5892800000000005,3.478679677940091,0.0802292981663906
6.591675999999998,3.493625548724787,0.0800075997158675
6.594060000000001,3.51015421137532,0.0797976594071824
6.596439999999999,3.524401234025715,0.079644178171239
6.598843999999998,3.5372052344371343,0.0794727240866934
6.601228000000001,3.547727594848416,0.0793564751017802
6.603608,3.56332509193917,0.0791633852193513
6.606,3.5763614097760663,0.0790514862330868
6.608388,3.5876751661202664,0.0789415397159116
6.613183999999999,3.605040550674091,0.078894241865568
6.615571999999999,3.611930796644877,0.0788797684749162
6.617952000000001,3.6191005818693824,0.0788399187972253
6.620344000000001,3.629203633400084,0.0787620645495577
6.622732000000001,3.637164814557509,0.0787273144934757
6.625112,3.644194830155155,0.078700413655953
6.627515999999998,3.6524355505663,0.0786396851250004
6.629900000000001,3.6612353494848855,0.0785307312826911
6.63228,3.6656588598583,0.0784366622591278
6.634676000000001,3.669290974298796,0.0783394393464608
6.63706,3.678697073553065,0.0781087833632841
6.639456000000001,3.6833075753815834,0.0779293467527366
6.641859999999999,3.686055746090544,0.0777653711937974
6.644243999999999,3.690014621613003,0.0775695123693974
6.646624000000001,3.693973497135463,0.0773755840237655
6.649028,3.7011451782178377,0.0771256410125374
6.651411999999999,3.704172888180519,0.0769409501344861
6.653792000000001,3.709761777397058,0.0766850802143016
6.656196,3.718563472173513,0.0763739195415296
6.658583999999999,3.723268417658517,0.076044909265868
6.660960000000001,3.7284398938523458,0.075599231054765
6.663368,3.727792059262026,0.075130921985837
6.665752,3.7194625827680015,0.0746515655413319
6.668131999999998,3.7049417084374943,0.0741039816316943
6.670527999999999,3.680225234777668,0.0735295041465339
6.672911999999998,3.649968989587415,0.0728937757861941
