Time,Force,Position
8.668216,2.235689409182529,0.1797906563424753
8.670603999999999,2.246489412989662,0.1795053578007143
8.672983999999998,2.2627366405286047,0.1789593192937783
8.675388,2.2806592077320005,0.1784060662455222
8.677772,2.3023064371745097,0.177648712131111
8.680155999999998,2.32479228437818,0.1766752783049114
8.682552,2.3469060445295136,0.1756341972833914
8.68494,2.3667853865089525,0.1746867723372385
8.687323999999998,2.388806598861669,0.1735844002732715
8.689715999999999,2.407754775281329,0.172750786300865
8.692099999999998,2.425771786141212,0.1719840072289974
8.69448,2.445790897747511,0.1711199879859242
8.696875999999998,2.466741174913589,0.1702448547494018
8.699263999999998,2.4898333224529434,0.1692444560116441
8.701655999999998,2.514275944432657,0.1681665993178956
8.704051999999999,2.533271342680561,0.1673273558661951
8.706439999999999,2.5513355753686864,0.166562725059097
8.708819999999998,2.567909563989593,0.1659288302930509
8.711211999999998,2.585554487797138,0.1652542547935542
8.713599999999998,2.606784304216936,0.1644569117957369
8.715995999999999,2.632158091756428,0.1634573724236591
8.718392,2.6572523400421995,0.1625415711686063
8.720775999999999,2.679925178700973,0.1618038755971337
8.723155999999998,2.712748290718692,0.1605871570002698
8.72556,2.7432897627362736,0.1595187861026012
8.727948,2.7791386888588043,0.1582744679983082
8.730327999999998,2.814428536473894,0.1570877463833392
8.732724,2.8478560529694272,0.1559764026290228
8.735111999999999,2.880352403905182,0.1549202961530869
8.737491999999998,2.907913387788325,0.1540721233833145
8.739896,2.937616242044746,0.1531369236735966
8.74228,2.967458865928026,0.1522244413882396
8.744659999999998,2.993576827572192,0.151461795059876
8.747055999999999,3.0156905877235247,0.1508734985573877
8.749439999999998,3.0319378152624683,0.1505259944466727
8.751823999999997,3.0531204098540234,0.1499673571993214
8.754228,3.0723009036991606,0.1495018771002464
8.756611999999999,3.095113511984795,0.1488316039109722
8.758995999999998,3.1168551850837907,0.1482332684855707
8.7614,3.135943131130312,0.1477297226405126
8.763784,3.154379450870775,0.1472495334653176
8.766163999999998,3.17216414430518,0.1467792338877379
8.768564,3.188645585127469,0.1462953924985958
8.770952,3.1996798022179487,0.1459848612884443
8.773327999999998,3.212064493748787,0.1455982324999962
8.775736,3.2216556886002903,0.1452982750904413
8.77812,3.2368810986387078,0.144758146781293
8.780499999999998,3.254108609423541,0.1441500042201618
8.782904,3.270964033156037,0.1435082931945747
8.785288,3.294105298381504,0.1426264851384856
8.787667999999998,3.315663771741135,0.1417865287788088
8.790068,3.3313557124883757,0.1411311640777826
8.792456,3.349049753982033,0.1404102081561232
8.794835999999998,3.370747996968524,0.1395556234269678
8.79724,3.3964504414478487,0.1385573095851091
8.799624,3.4212217203673947,0.1376017179817309
8.802007999999999,3.444410207421105,0.1366561945943258
8.804404,3.4655965937283986,0.1357977144084683
8.806792,3.484269022610077,0.1349855438758784
8.809171999999998,3.502150055558838,0.1341868587482295
8.811572,3.5148161822012667,0.1335762995383927
8.813956,3.523478107350861,0.1330925913812894
8.816339999999999,3.5341421332468723,0.1325476040951752
8.818731999999999,3.5468082598893003,0.1319534085654662
8.821119999999999,3.560685091345227,0.1313169487822397
8.823516,3.5765640235475717,0.1306269500560137
8.825912,3.586948510189862,0.1301445857333566
8.8283,3.5943997305259576,0.1297410939950359
8.83068,3.6022230379143907,0.1293771698359444
8.833076,3.607113078996629,0.1290965866980715
8.83546,3.606648444145674,0.1289930715825283
8.837839999999998,3.6083256796679968,0.1288153944964129
8.840235999999999,3.6087922103768215,0.1286894783390969
8.842623999999999,3.6075361795929486,0.1285924606071489
8.845007999999998,3.606419918435937,0.128481253749575
8.847404,3.605443426905784,0.1283561058792705
8.880851999999999,3.531569753464287,0.128293774061126
8.883248,3.528311621933997,0.1282525154847742
8.885636,3.526915821523265,0.1281688513407326
8.88802,3.5299435314859458,0.1279312325408159
8.890416,3.5337626373815465,0.1276891531260668
8.897588,3.526734517641769,0.1275806988902132
8.899972,3.525571034656514,0.127549034821958
8.902356,3.5285515227909525,0.1273936315643971
8.904759999999998,3.530740614992473,0.1272438851775743
8.907144,3.5360027431270487,0.1270065345454234
8.909528,3.5432669720080407,0.1267184769529905
8.911923999999997,3.5497398049561144,0.1264350705864506
8.914312,3.5595652130909645,0.12603087966737
8.916692,3.5735345923455086,0.1254998039955992
8.919088,3.5876437412269127,0.1249505457766716
8.971663999999999,3.4976645057312017,0.1246650888994309
8.974047999999998,3.501528937597176,0.1245747912366462
8.976443999999999,3.512330837262178,0.1243113788777632
8.978831999999999,3.5171264346879294,0.1242049761198472
8.981211999999998,3.52885949991271,0.1239350381429245
8.983607999999998,3.5447365362571848,0.1235441022556406
8.985995999999998,3.561544738161438,0.1231328410844686
8.988379999999998,3.5792841056254696,0.1227067020472249
8.990775999999999,3.598746034582197,0.1222525509916317
8.993159999999998,3.617416567606007,0.1218100938141327
8.995544,3.637856883950756,0.1212749646282644
8.997939999999998,3.659368135482144,0.1206975015279694
9.000327999999998,3.683021257386808,0.1200609044202655
9.002708,3.706674379291474,0.1194187174691901
9.005107999999998,3.730467270822999,0.1187498099081443
9.007495999999998,3.747602233809215,0.1182315347783676
9.009876,3.762874865675874,0.1177462548958821
9.012271999999998,3.78136030310245,0.1171707367299847
9.014659999999996,3.801335984596245,0.1165307904251482
9.01704,3.820380500530261,0.1159064227928135
9.019436,3.837702454971581,0.1153227199747384
9.021824,3.849949272733429,0.1148732761572009
9.024219999999998,3.855118853069387,0.1145971322865837
9.026616,3.862150764524903,0.1142853877208824
9.029004,3.863316143368027,0.114105064724762
9.031387999999998,3.863410587024514,0.113953752529123
9.033784,3.862713634748082,0.113805268128182
9.036172,3.861085516911872,0.113673321435462
9.038551999999996,3.86066810388916,0.1134994305233994
9.040947999999998,3.860390460493309,0.1133135291808889
9.043335999999998,3.855829076350904,0.113242168447486
9.107848,3.7104974515213,0.1130959652785846
9.110231999999998,3.7125939959242023,0.1129034316483561
9.112628,3.71869474181994,0.1126283010291794
9.115016,3.732803890701344,0.1121803679338971
9.117395999999998,3.744119542903413,0.1117795843790386
9.119792,3.761441497344733,0.1112653223624632
9.122179999999998,3.779554847718971,0.1107482289956588
9.12456,3.8027433347726816,0.110115307393157
9.126955999999998,3.825419965147194,0.1094688465431169
9.129343999999998,3.850518005148704,0.1087454912622978
9.131728,3.874964418844156,0.1080138170856922
9.134123999999998,3.902995725151861,0.1072470049000895
9.136511999999998,3.928885161086289,0.1065331059529624
9.138908,3.95821972000611,0.1058015756448386
9.141311999999996,3.990208005978405,0.1050453844710522
9.143699999999995,4.020333960831144,0.1043211184140064
9.14608,4.058608088296412,0.1034254880092072
9.148476,4.095671510948179,0.1025834869850783
9.150864,4.13045329359981,0.1018026798805569
9.153244,4.164164141064803,0.1010457769123887
9.155644,4.19401055666382,0.1003626102794374
9.158032,4.2155690300234525,0.0998657777065032
9.160412,4.234334006703747,0.0994139238979413
9.162812,4.250585025958428,0.0989817809876458
9.1652,4.268838145959527,0.0985162757069735
9.16758,4.2784312366689,0.0981842232569065
9.169976,4.289235032191771,0.0978197214448416
9.172364,4.298688353274283,0.0975021504793395
9.174748,4.30492886879688,0.0972524881509131
9.177144,4.310750075438897,0.0970389256679117
9.179532,4.31871315245419,0.0967834424296438
9.181912,4.322811797603511,0.0965836287485209
9.184312,4.324256715700356,0.0964024062694323
9.1867,4.318392078945835,0.0962971387439058
9.18908,4.308942549579061,0.0962239167040945
9.196248,4.271095314425852,0.0961863677216256
9.198644,4.260295310618719,0.0961553470206903
9.201032,4.251497407558003,0.0960918973097461
9.203411999999998,4.245632770803481,0.0959855363849917
9.217752,4.191073673260375,0.0958723692967259
9.220148,4.183579022811775,0.0958305046634925
9.222536,4.178086473109591,0.095756481707583
9.22492,4.174735793780685,0.0956396502216826
9.227316,4.167241143332084,0.0955965127404006
9.229704,4.1589550969505655,0.0955524953487653
9.232084,4.158677453554714,0.0953820616089572
9.23448,4.159982602024699,0.0952112504488283
9.236868,4.162358685681323,0.0950176307361368
9.239247999999998,4.165665934897724,0.0948154746338954
9.241644,4.170975284860543,0.0945808610080245
9.244032,4.180987684450496,0.0942269592172866
9.246415999999998,4.18527332105492,0.093947646165108
9.248812,4.187836396166647,0.0936776032125172
9.2512,4.189328536091735,0.0934307856944747
9.253579999999998,4.195616273442576,0.0931253843917853
9.25598,4.205396355607052,0.0927349671761956
9.258368,4.219180639264361,0.0922845579347014
9.260764,4.230962822175254,0.0918626055337928
9.263159999999996,4.239020342847034,0.0914752800540447
9.265548,4.2480090290785935,0.0910799271599852
9.267928,4.254995614563733,0.0907187212432912
9.270324,4.262913365608653,0.0903496348209833
9.272712,4.2641731881082645,0.0900572434717455
9.275092,4.26836627691407,0.0897250879037253
9.277488,4.277215193518768,0.089347668906287
9.279876,4.2817803693769125,0.0890554246876056
9.282256,4.291420681914528,0.0886866659563652
9.284652,4.303714721504619,0.0883041912014307
9.28704,4.311213163668958,0.0879763099107655
9.289424,4.318292296952716,0.08768121394933
9.29182,4.318666279862923,0.0875250940257704
9.294208,4.319691889079188,0.0873808568523949
9.296592,4.321508894228371,0.0872385376579094
9.298988,4.319461467511579,0.0871424574490039
9.301376,4.3147603137423145,0.0870622141141803
9.303768,4.30884845515955,0.087011974143827
9.306164,4.301074265457229,0.086978075193037
9.308552,4.297304277247742,0.0868887629123376
9.310936,4.301263152770201,0.086711136722816
9.313331999999996,4.304290862732883,0.0865425388221682
9.315716,4.306247637508927,0.0863928184429658
9.318096,4.307413016352052,0.086241199111541
9.320496,4.313373992620929,0.0860373885530259
9.32288,4.319474738516665,0.0858246776245428
9.325264,4.323201296613648,0.0856064556975706
9.327664,4.325205293217933,0.0853923631183231
9.330048,4.324276023516025,0.085213430766495
9.332432,4.318411386761503,0.0850933769550221
9.334828,4.314409081126539,0.0849571465687878
9.337216,4.312036789185654,0.084760552633867
9.339595999999998,4.319163144297656,0.0844118084197833
9.341996,4.327500204223156,0.084033446625909
9.344384,4.336116803402376,0.0836353390890278
9.34678,4.346735503328014,0.0832075646389857
9.34918,4.355352102507235,0.082804743476347
9.351563999999998,4.361966600940038,0.0824262886544689
9.353947999999995,4.367510164186203,0.0820660902405249
9.356343999999998,4.370120461126173,0.0817407476389714
9.358731999999998,4.368074930267252,0.0814548832598626
9.361112,4.365098233848552,0.0811758109119218
9.363511999999998,4.361981767802992,0.0809062378210798
9.365895999999998,4.355792265824377,0.0806784876393977
9.36828,4.347460893472484,0.0804864786778623
9.370675999999998,4.337127420374174,0.0803191291556071
9.373063999999998,4.324372537648868,0.0802075669353901
9.375448,4.313619755669978,0.0800700509395029
9.377843999999998,4.302075577758169,0.0799282035284369
9.380231999999998,4.295746306152694,0.0797074110628448
9.382616,4.290767508987576,0.0794468388424348
9.385011999999998,4.283227532568603,0.0792534833522666
9.387403999999998,4.268470549096879,0.0791606790242437
9.389784,4.253993104878876,0.0790454632457224
9.392184,4.240027517340071,0.0789542282942545
9.394571999999998,4.230997296853877,0.0788089699511821
9.396952,4.2239691771141,0.0786396758646189
9.399352,4.22001409330738,0.0784299767226217
9.401739999999998,4.216990175060436,0.0782134916862632
9.40412,4.214757652746411,0.0780006918413139
9.406515999999998,4.211454195245748,0.077803501245008
9.408903999999998,4.209361442558584,0.0775785794527689
9.411288,4.209410560244696,0.0773202626978095
9.413683999999998,4.216397145729838,0.0769884249620924
9.416071999999998,4.2233837312149785,0.0766549387649283
9.418455999999995,4.229439151140341,0.076325757445951
9.420856,4.237217132558401,0.0759926632631782
9.423244,4.2467176754691565,0.0756603238765546
9.425623999999996,4.259011715059248,0.0753119791669793
9.428024,4.269163884276061,0.074999854759988
9.430412,4.281178384612431,0.0746799611695178
9.432791999999996,4.296685229762439,0.0742936454999336
9.435192,4.312331844539305,0.0738932626860046
9.43758,4.32783868968931,0.0735057763628899
9.439963999999998,4.343485304466177,0.0731105526374156
9.44236,4.355407257003931,0.0727436296161
9.444748,4.368400144728323,0.0723643312804868
9.447131999999998,4.380601636519796,0.0719830429098665
9.449528,4.395736394617464,0.0715811072762677
9.45192,4.411290461595714,0.0711507147578458
9.454299999999998,4.431640125999715,0.0706890834778292
9.4567,4.451710251149997,0.0702496395530047
9.459084,4.469778275553861,0.0698310498112474
9.461463999999998,4.485052803278391,0.0694339347701931
9.463868,4.502608971003056,0.0690004307694747
9.466256,4.52202746984728,0.0685571878956448
9.468635999999998,4.542796443131862,0.0680821525667997
9.471032,4.560771919737108,0.0676221589458332
9.473416,4.574743194849521,0.0671992059402983
9.475799999999998,4.588854239588795,0.0667678949170962
9.478204,4.600683644327931,0.0663766043326621
9.480588,4.610231409066929,0.0660251306034805
9.482967999999998,4.623783375298762,0.0656408646500382
9.485368,4.639057903023291,0.0652616196052317
9.487756,4.652470099628263,0.0648905109026166
9.490135999999998,4.663321116979378,0.0645725966024901
9.492532,4.671890494330356,0.0642910554562506
9.49492,4.681111497987392,0.0640264874601386
9.497299999999996,4.686607839405314,0.0637776003351185
9.499695999999998,4.691684871942655,0.0635571700949213
9.502083999999998,4.69489957336044,0.0633456112288113
9.504467999999996,4.697974505151364,0.0631433720746788
9.506863999999998,4.705053638435122,0.0629120241376668
9.509251999999998,4.712784398024938,0.0626981713928486
9.511632,4.721306553547673,0.0624929189655116
9.514036,4.731691040189965,0.0622834935497018
9.516424,4.743146462018894,0.0620652207588999
9.518803999999998,4.754601883847824,0.061846527690042
9.5212,4.770341046423307,0.0615832564859004
9.523587999999998,4.786080208998791,0.0613214439798766
9.525968,4.800236579708439,0.0610463989094118
9.528368,4.811459684111891,0.0607862283532222
9.530751999999998,4.818538817395649,0.0605632586492923
9.533132,4.821893288440293,0.0603501631764422
9.53554,4.824316593925159,0.0601383776145783
9.537924,4.83237411459694,0.0598535956293166
9.540304,4.843364901574916,0.0595539073643129
9.542704,4.853564292619971,0.0592491068359082
9.545087999999998,4.861621813291752,0.0589645386884098
9.547468,4.868236311724556,0.0586570906582446
9.549872,4.870986378291387,0.0583665021145325
9.55226,4.8742955233656575,0.0580408035806375
9.554643999999998,4.872529531760456,0.057752827296009
9.55704,4.867038877916142,0.0574727370612314
9.559428,4.861827763325548,0.0571770804409825
9.561807999999996,4.855033856869117,0.0568685085223726
9.564208,4.843304583360075,0.0565849098099647
9.566596,4.835719280970728,0.0562695206727808
9.568975999999996,4.824921173021464,0.0559847048967811
9.571371999999998,4.814123065072199,0.0556994543430628
9.573759999999998,4.805978684175409,0.0554179017264492
9.576143999999998,4.799836404025037,0.0551228375596453
9.578539999999998,4.796487620554001,0.0548231123050837
9.580927999999998,4.797143038575797,0.054500955691524
9.583324,4.803804758836844,0.0541474065245212
9.58572,4.802038767231642,0.0538628799163227
9.588108,4.798689983760605,0.0535647123049142
9.590488,4.794270265102929,0.0532756665526618
9.592884,4.796927783871142,0.0529462121223324
9.595268,4.803170195251608,0.052622306013847
9.597651999999998,4.812206103311411,0.0522942107617514
9.600048,4.819611997677131,0.0520098126975696
9.602436,4.826086726483075,0.0517234617463013
9.604819999999998,4.829488419355964,0.0514532415261624
9.607216,4.826604270735881,0.0512311612944657
9.609604,4.820647086182743,0.0510276929034964
9.611983999999998,4.81734362868208,0.0508295819619118
9.614384,4.808685495248223,0.0506793662042287
9.616772,4.79788549144109,0.0505471707915425
9.619151999999998,4.789878984313292,0.0504131904023527
9.621556,4.780149915692798,0.0502712276389012
9.62394,4.773354113378497,0.0501188106228202
9.626319999999998,4.762833648825085,0.0499678794808034
9.62872,4.748169213151979,0.0498446889561194
