Time,Force,Position
9.76612,3.607783308439917,0.1698145274152657
9.768508,3.611740288104508,0.169750504457023
9.770888,3.621284261127768,0.1695056567215185
9.773284,3.633621730830363,0.1691711370405366
9.775671999999998,3.654619229824684,0.1685277423179772
9.778052,3.672171605833612,0.1679582729101327
9.780447999999998,3.6907949170291774,0.167344058095579
9.782835999999998,3.709837537105325,0.1666877656599705
9.785216,3.728508070129135,0.1660023520196649
9.787612,3.7425227753540526,0.1654731068514955
9.79,3.7506709479665807,0.1651544658645507
9.792384,3.7583998116985273,0.1648813405225925
9.794783999999998,3.769434028789008,0.1645334245497602
9.797168,3.7841929081186,0.1640796424088224
9.799548,3.797089456328637,0.1636846457362288
9.801944,3.807983903792256,0.1633586566299509
9.804328,3.813011818643485,0.1632448546702768
9.80672,3.8232546398010463,0.1629299454140484
9.809124,3.835359792078165,0.1625625326557403
9.811512,3.846673548422365,0.1622107162466836
9.816296,3.850211219206376,0.1621900720037125
9.81868,3.855518673311325,0.1620560828225729
9.82106,3.859755192229636,0.161964258981365
9.823451999999998,3.864411020028527,0.1618331202779341
9.825839999999998,3.877726877119144,0.1614387563970412
9.82822,3.890391107903703,0.1610449800404932
9.830623999999998,3.905057439434678,0.1605950658340462
9.833007999999998,3.918513066152156,0.1601980274653396
9.835388,3.932620319175692,0.1597981554347574
9.837792,3.9488694425725033,0.1593079646519379
9.840175999999998,3.964606709290118,0.1587965153348159
9.84256,3.9776902489552577,0.1583505496883929
9.844955999999998,3.985978191194645,0.1580585607307498
9.84734,3.997199399740228,0.1576768130996395
9.84972,4.013775284219003,0.1570985266388607
9.852116,4.029420003138,0.1565374525741278
9.8545,4.041712146870222,0.1561216588935045
9.85688,4.051722650602306,0.1558008785009595
9.859296,4.060522449520891,0.1555319185242548
9.861679999999998,4.074117845865229,0.1551237544763957
9.864064,4.092788378889039,0.1545439724393173
9.866464,4.105592379300457,0.1541527732598671
9.868852,4.119467314898516,0.1537241266621201
9.871232,4.132131545683074,0.1533580099223815
9.873636,4.144004380534716,0.1530169354458224
9.876024,4.155457906505776,0.152715837581868
9.878403999999998,4.161696526170504,0.1525825664305614
9.880795999999998,4.171659808074345,0.152360131914109
9.883183999999998,4.184416586657521,0.1520701563657512
9.885564,4.199035696360253,0.1517349373949463
9.887968,4.2165880723691815,0.1513212411167684
9.890356,4.238424189124663,0.1507716126358475
9.892736,4.259608679574089,0.1502177704061166
9.895131999999998,4.279862004463734,0.1496944204236955
9.897515999999998,4.295831588606826,0.1493145855575224
9.899892,4.315805374242751,0.1488225587868942
9.902295999999998,4.334196368012839,0.1483484597839979
9.904683999999998,4.354077605850148,0.1478038747527498
9.907064,4.377031879620511,0.1471714131925741
9.909456,4.3982635918981785,0.146579480985176
9.911844,4.418424368989207,0.1460283962651286
9.914224,4.440447477199793,0.145435609788649
9.91664,4.461818959104321,0.1448426663798061
9.919028,4.479326009142874,0.144345448121463
9.921404,4.486962325076204,0.14410152231779
9.923812,4.497392137688868,0.1437980812820707
9.926196,4.50996382067481,0.1434252541088596
9.928579999999998,4.51815921511558,0.143133100531736
9.930976,4.524911587317376,0.1428472058266865
9.93336,4.53273489470581,0.1425320172107556
9.935743999999998,4.540558202094243,0.142221430973011
9.938148,4.544377307989842,0.142015554521339
9.940532,4.549779205751278,0.1417951453127783
9.942911999999998,4.555181103512715,0.1415765105424275
9.945316,4.562585102020568,0.1413074733931985
9.947704,4.572270740528557,0.1409727759915485
9.950084,4.582887544596325,0.1406191034960276
9.95248,4.5933645790372335,0.1402804023601337
9.954868,4.601839512731725,0.1399921271474118
9.957247999999998,4.609523050493297,0.1397121933997072
9.959648,4.615484026762173,0.1394570444106505
9.962032,4.619442902284634,0.1392491464932327
9.964411999999998,4.623262008180234,0.1390531672782521
9.966816,4.627872510008751,0.1388487804618906
9.9692,4.643424681129132,0.1383855329300295
9.971579999999998,4.656742434077618,0.1379360206885923
9.973976,4.671410661466463,0.1374371815059578
9.976359999999998,4.688453076654062,0.1369179407966868
9.978756,4.708288988520996,0.1363531803200453
9.98116,4.723469072589039,0.1358758797726459
9.983544,4.734924494417969,0.1354696452602418
9.985924,4.74488967217968,0.1351223373538885
9.988324,4.752852749194973,0.1348216563695986
10.028932,4.665574462579979,0.1347237309379911
10.031328,4.663946344743769,0.1346241457969036
10.033712,4.665019175788277,0.134425819213349
10.036096,4.666371546086506,0.1342045529818841
10.038492,4.669726017131151,0.1339396206703571
10.040876,4.676013754481992,0.1336177872710412
10.043255999999998,4.689378729258721,0.133135086707251
10.04566,4.700089976982976,0.1326894952077094
10.048044,4.713594721386565,0.1321904544363201
10.050423999999998,4.7331057680294055,0.1315641018689057
10.052815999999998,4.751685649112466,0.130952330718309
10.055203999999998,4.763048523142779,0.1305102841045886
10.057584,4.777065124225567,0.1300337242067926
10.059996,4.791221494935214,0.1295465853827472
10.062384,4.799371563405611,0.1291927388553299
10.064763999999998,4.809663502249284,0.1287810648540241
10.067164,4.821957541839375,0.1283297505564092
10.069552,4.828524818443936,0.1279839153361714
10.071932,4.8360232606082745,0.127624065734429
10.074328,4.847665673892308,0.1271661641587663
10.076716,4.855443655310366,0.1267861067588521
10.079095999999998,4.854933694489038,0.1265978568318583
10.081487999999998,4.855354899227488,0.1263947902436473
10.083875999999998,4.857778204712356,0.1261504031776099
10.086256,4.858478948704526,0.1259261413755354
10.088651999999998,4.8543840952709445,0.1257890177304375
10.091039999999998,4.848287141090945,0.1256925926196799
10.09342,4.842981582843865,0.1255917375023143
10.095816,4.838886729410284,0.1254543052738189
10.098204,4.827854408177672,0.1254528882339665
10.100588,4.818963957318339,0.125400025780644
10.102984,4.81435724720556,0.1252446540106678
10.105372,4.807608666719505,0.1251406220214874
10.107752,4.801791251793228,0.125021585475179
10.110148,4.7981157072402265,0.1248512027726006
10.112536,4.798956220859257,0.1246190743962772
10.114916,4.796863468172092,0.1244415986123023
10.117312,4.799566312910679,0.1241796667789569
10.1197,4.800918683208907,0.1239647904670547
10.12208,4.798918478320359,0.1238356809279375
10.124476,4.79784943899159,0.123691841424419
10.126864,4.801715766715434,0.1234523464090572
10.129243999999998,4.805302555185556,0.1232358878414774
10.13164,4.809960278842317,0.1229969526287751
10.134028,4.814478232872217,0.1227678960047989
10.136407999999998,4.821789683581452,0.1224958284809945
10.138804,4.825236702424714,0.1222894896770993
10.141191999999998,4.831756757201031,0.1220196382149902
10.143575999999998,4.838276811977349,0.1217520869036371
10.145972,4.84894083787336,0.121395271364721
10.148359999999998,4.856671597463176,0.121091575850558
10.15074,4.865333522612771,0.1207756991974249
10.153144,4.875485691829586,0.1204059300918414
10.155532,4.884846465113481,0.1200414218621684
10.157911999999998,4.894067468770516,0.1196882656262635
10.160308,4.897841248695742,0.1194084147961971
10.162696,4.899473158247691,0.119174285543824
10.165076,4.8989631974263625,0.1189884310937661
10.167471999999998,4.898872545485614,0.1187712596477702
10.169859999999998,4.904927965410977,0.1184323947022485
10.172244,4.91098338533634,0.1180939809890075
10.174639999999998,4.915967870075065,0.1177803524241395
10.177032,4.918950254067371,0.1175039997398096
10.179412,4.919650998059542,0.1172865034099742
10.181807999999998,4.921143137984632,0.1170657382620818
10.184195999999998,4.919981550857245,0.1168740703385916
10.18658,4.925477892275167,0.1165792055140647
10.188975999999998,4.92990329850645,0.1163102937712043
10.191368,4.931255668804679,0.1161006195465333
10.193748,4.928184528729492,0.1159939190970387
10.196144,4.929908986080058,0.1158121889702662
10.198536,4.933495774550179,0.1156069841021322
10.200915999999998,4.933590218206666,0.1154903652444886
10.203312,4.935686762609569,0.1153393918712511
10.205704,4.938854242199112,0.115166637206663
10.208083999999998,4.942673348094711,0.115000629016229
10.210496,4.951567590669782,0.1147416926692764
10.212884,4.9651648828719885,0.1143660412253855
10.215264,4.977691239887557,0.1140128083348972
10.217656,4.985142460223652,0.1137536484239028
10.220044,4.99273345018661,0.1134852116581932
10.222423999999998,4.999393274589787,0.1132281202747609
10.224816,5.008194969366242,0.11292757442382
10.227204,5.016345037836638,0.1126188493991251
10.229584,5.025705811120534,0.1122796299818664
10.231979999999998,5.04093311701682,0.1118538282188393
10.234376,5.053506695860631,0.1114574301580939
10.236755999999998,5.063566317278827,0.1110762785181576
10.239152,5.07669897463008,0.1106408221351734
10.241544,5.095326077541386,0.1100887153877171
10.243923999999998,5.1091575830269385,0.109606319465863
10.246335999999998,5.119124656646518,0.1091820789476125
10.248724,5.132304535826012,0.1086942758379809
10.251104,5.141340443885813,0.1082814340164135
10.25352,5.150516121572474,0.107862269877262
10.255904,5.161973439259275,0.1073932655775019
10.258283999999998,5.172779130640016,0.1069212008604331
10.26068,5.1780903764607045,0.1065615788228627
10.263068,5.185683262281529,0.1061537695743445
10.265448,5.195837327356212,0.1056794469874397
10.267843999999998,5.2081332628041705,0.1051700627580925
10.270231999999998,5.223130147132848,0.1045867506217595
10.272612,5.239477505901886,0.1039727700133371
10.275011999999998,5.2579667350442,0.1033236029518479
10.277399999999998,5.276875273067096,0.1026533883629929
10.27978,5.2888463432909605,0.1020802004257918
10.282196,5.300957183141687,0.1014997174817898
10.28458,5.317723850791305,0.1008768441082258
10.286964,5.334770057694643,0.1002414245275027
10.289376,5.350745329411341,0.0996308911736076
10.291764,5.369142010755038,0.0989672453066434
10.294144,5.387026835419537,0.0982836336989552
10.296539999999998,5.403980494524258,0.0976120205222158
10.298927999999998,5.424426498442615,0.0968710674033892
10.301304,5.441659696801056,0.0961824634901267
10.303712,5.456890794413081,0.0955219557744884
10.3061,5.46876931683833,0.0949223740965766
10.308479999999998,5.483720875196632,0.0942793548198172
10.310876,5.492386592061965,0.0937274593356424
10.313263999999998,5.4934159929939685,0.0933022198884358
10.315644,5.491372357992916,0.0929215192389889
10.318048,5.486907313364867,0.0925933862491464
10.320436,5.47401455687057,0.0923922479149246
10.322815999999998,5.4568380596297175,0.0922591552960931
10.325212,5.437379922388729,0.0921674292905866
10.327595999999998,5.422717382573492,0.0920253133999708
10.329976,5.40991717387781,0.0918660687047934
10.332384,5.392181598129518,0.0917632736225562
10.351487999999998,5.223797464157324,0.0917448483447978
10.353884,5.205315818446486,0.091730580723171
10.356272,5.186973942362511,0.0917056210341463
10.358652,5.178782339637479,0.0915552453598196
10.361056,5.180741010271392,0.0912796483494625
10.363444,5.180278271278306,0.0910519681968068
10.365828,5.181538093777917,0.0908186484258218
10.368224,5.192808420009613,0.0904669241394646
10.370608,5.208874343667058,0.0900689515750487
10.372987999999998,5.22731445512326,0.089676739223361
10.375384,5.242681530646406,0.0893257672076442
10.377771999999998,5.251762764676582,0.0890614486947583
10.380152,5.261775164266535,0.0887884620053817
10.382547999999998,5.273510125349185,0.0885099506996933
10.384935999999998,5.282544137551118,0.0882982843191662
10.387316,5.296653286432521,0.0880240495098241
10.389724,5.309831269754147,0.0877583878096605
10.392108,5.3196566778889975,0.0875513226177127
10.394491999999998,5.333905596397261,0.0872737700492054
10.396896,5.351087781211722,0.0869665244537025
10.399284,5.3681301963993215,0.0866706308551248
10.401663999999998,5.38475330270634,0.0864005892338217
10.404064,5.398023833826583,0.0861863833191282
10.406448,5.403658049013496,0.0860915685694765
10.408827999999998,5.407290163453993,0.0860204506100465
10.411224,5.415485557894764,0.0858712342271799
10.413607999999998,5.421539081962258,0.0857523907366277
10.415988,5.424659339723556,0.0856632347147727
10.418392,5.42512587043238,0.0855849999661407
10.42078,5.423357982969309,0.0854920434365745
10.42316,5.420658929946461,0.0854050038465687
10.425564,5.422243617670167,0.0852576229411563
10.427948,5.428903442073344,0.0850545416791953
10.430331999999998,5.435982575357103,0.0848274791243486
10.432728,5.446833592708217,0.0845223814005361
10.435111999999998,5.453820178193359,0.0842521751716597
10.437492,5.460666994051639,0.0839905395088485
10.439887999999998,5.465371939536643,0.0837558020412906
10.442275999999998,5.464722209088454,0.0835947644409034
10.444656,5.458997341960793,0.0834892640250711
10.447052,5.44940804296716,0.0834167818784631
10.44944,5.443683175839499,0.083311156764087
10.45182,5.440239948711975,0.0831674039170627
10.454236,5.439497670465168,0.082959626125591
10.456624,5.43517049960611,0.0827680714529823
10.459003999999998,5.429213315052971,0.0826251952802102
10.461408,5.42646893605975,0.0824390005501976
10.463792,5.417858024454136,0.0823051141857932
10.466176,5.410038508781442,0.0821732622618767
10.468572,5.402591080161085,0.0820691596885492
10.47096,5.398216687473783,0.08192964534121
10.47334,5.398637892212232,0.081753296595104
10.482908,5.348685504781905,0.0816931717394047
10.485296,5.335324321720915,0.0816918543794769
10.487676,5.330530620153032,0.0815775617747911
10.490072,5.326947623398649,0.0814403178101036
10.49246,5.33244396481657,0.0812108358063676
10.494839999999998,5.3439466084737415,0.0809232312525014
10.497236,5.352935294705301,0.0806381599115609
10.499624,5.362855146496638,0.0803491323636121
10.502007999999998,5.374497559780671,0.08006011299834
10.504404,5.385301355303541,0.0798184720215223
10.506792,5.396384690080133,0.0795602301154946
10.509175999999998,5.401461722617476,0.0793581585558516
10.511572,5.41612995000632,0.0790865482324716
10.51396,5.430658407768305,0.0788235503848697
10.516356,5.443324534410733,0.0785695332874878
10.518752,5.455990661053162,0.078317670041791
10.521136,5.4598569887770045,0.0781387645884014
10.52352,5.466656582807043,0.0779346035107782
10.525916,5.479322709449471,0.077679902711732
10.528304,5.496272576838453,0.0773722577379207
10.530684,5.513501983481156,0.0770485941956329
10.53308,5.529380915683499,0.0767568621685827
10.535468,5.536692366392734,0.0765745390518392
10.537848,5.54386404747511,0.0763999020471209
10.540252,5.5458208222511525,0.0762851927660714
10.54264,5.543633625907503,0.0762149844827247
10.549812,5.526315463181921,0.0761854374903478
10.552192,5.519332669412519,0.0761470223158821
10.554588,5.511418710083337,0.0761132064703891
10.556979999999998,5.510581988180045,0.0760130169312883
10.55936,5.502807798477726,0.0759707205022836
10.561756,5.496244313588904,0.0759073356388446
10.564144,5.491962468700219,0.0758099960124482
10.566528,5.488472019744451,0.075716409667192
10.568924,5.489777168214436,0.0755911605635291
10.571312,5.49229302149792,0.0754454633335934
10.573692,5.494808874781404,0.0753004440278782
10.576088,5.4931807569451925,0.0751980063680892
10.578476,5.492344035041901,0.0750993337715328
10.580856,5.491786852392329,0.0749847256158663
10.583256,5.495094101608732,0.0748439202762786
10.585644,5.496399250078717,0.0747190782408518
10.588024,5.497844168175561,0.0745862064725522
10.59042,5.500360021459046,0.0744405666093887
10.592808,5.503015644369389,0.0742867572777915
10.595192,5.508744303212788,0.074103832870196
10.597588,5.516986919481802,0.0739225223068102
10.599976,5.524530687616514,0.0737819558669412
10.602356,5.536870053176979,0.0736125810073448
10.604763999999998,5.544925677990891,0.0734939296375616
10.607148,5.5541920076183,0.0733539575536097
10.609528,5.562247632432211,0.0732350739040923
10.611928,5.572305357992538,0.0731009445446851
10.614312,5.579709356500391,0.072972267907711
10.616708,5.585251023888687,0.0728521955765206
10.619112,5.589721756090345,0.0727447272715058
10.621496,5.595403193105501,0.0726184936261685
10.623876,5.602155565307296,0.0724802281509643
10.626271999999998,5.607837002322452,0.0723542161810039
10.628659999999998,5.6090949289641925,0.0722828999683416
10.63104,5.608258207060901,0.0721839775170913
10.633435999999998,5.614638492210361,0.0720180131745862
10.635823999999998,5.623020878106234,0.0718374190040136
10.638204,5.6334053647485245,0.0716425248408843
10.6406,5.641275893965199,0.0714426555246228
10.642988,5.645933617621961,0.0712782910040525
10.645368,5.654083686092357,0.0710650072550218
10.647764,5.662001437137278,0.0708162374068976
10.650152,5.667265461129722,0.0705737134270029
10.652536,5.673088563629608,0.0702996788092809
10.654939999999998,5.682915867622327,0.0699976894784584
10.657324,5.691020610122351,0.0696941753650242
10.659708,5.695912547062457,0.069425274513838
10.662103999999998,5.6985228440024285,0.0691848497486166
10.664492,5.703275011315676,0.0689224469497292
10.666872,5.709377653069281,0.0686346997571673
10.669275999999998,5.715620064449747,0.0683424114765555
10.671663999999998,5.723212950270573,0.0680254892682659
10.674048,5.7302939794122,0.0676889550047378
10.676443999999998,5.747013425233575,0.0672574654418422
10.678828,5.766246828480563,0.0668330511755501
10.681212,5.7794739294883,0.0664523428878523
10.683607999999998,5.788836598630065,0.0660916049169482
10.685995999999998,5.796336936652275,0.0657386322774059
10.688376,5.8098435769137335,0.0653480574682251
10.690772,5.824980230869272,0.0649176729502908
10.693156,5.8381147840783925,0.0645049575152637
10.695552,5.85418260359371,0.0640798641172517
10.697947999999998,5.869179487922387,0.0636667670622507
10.700331999999998,5.888971969676818,0.0632387022323434
10.702716,5.905179558818994,0.0628163827132803
10.705116,5.9264622846406425,0.062363725445563
10.707503999999998,5.952028751208847,0.0618768812156068
10.709887999999998,5.979876857777186,0.0613611263477066
10.712284,6.006654029158888,0.0608578216285767
10.714671999999998,6.030870021286732,0.0603956975218032
10.717052,6.049591567854524,0.0599866588193641
10.719447999999998,6.065100308862398,0.059605856632801
10.721832,6.077256474683499,0.0592570255746517
10.724216,6.079262367145653,0.0589714603429668
10.726611999999998,6.081408029234669,0.0586801406399223
10.728996,6.087557892816519,0.0583678904467342
10.731376,6.096641022704564,0.0580432086283449
10.733776,6.104001591099912,0.0577146939825876
10.73616,6.106798879494985,0.0574369022563687
10.738544,6.108525232703419,0.0571679802079813
10.74094,6.1071785499788,0.0569176500225506
10.743328,6.1035502272540425,0.056692256348925
10.745708,6.09577793340959,0.0564925119805748
10.748104,6.081999337325888,0.0563225274818351
10.750492,6.065659561988328,0.056189267492153
10.752871999999998,6.045175815531073,0.056081838328921
10.755268,6.017614831647932,0.0560104010740501
10.757656,5.9959203803771794,0.055916318207634
10.760035999999998,5.975157094666204,0.0558202895888183
10.762451999999998,5.954952887462671,0.055695824105153
10.764839999999998,5.938241025072774,0.0555324519600365
10.767231999999998,5.926464529735487,0.0553494136009894
10.769628,5.92283620701073,0.0551230482907231
10.772016,5.927076517644779,0.0548669611095145
10.774399999999998,5.927964253092052,0.0546415364887043
10.776796,5.922845686300075,0.0544423668039108
10.779184,5.914793853201903,0.054252656730426
