Time,Force,Position
8.994632,3.72891575479188,0.1582036904576761
8.997028,3.733896447814866,0.1581841097843927
8.999416,3.743765286062221,0.158080528777905
9.001795999999999,3.754006211361913,0.1580073405094864
9.004203999999998,3.769834130020275,0.157778030732738
9.006588,3.7878039190519135,0.1574658796145467
9.008968,3.812571406255722,0.1569355195248463
9.011371999999998,3.841902173459805,0.1562281187688752
9.013759999999998,3.865506177678357,0.155684387079253
9.01614,3.890320886710408,0.1550906528626991
9.018539999999998,3.911131394249625,0.1546299452915698
9.020927999999998,3.931522592908262,0.1542183460412546
9.023308,3.955917993059733,0.153664834680476
9.025704,3.9830143420919217,0.1529759629543875
9.028092,4.000519496272607,0.1525825907775383
9.030476,4.01951489452051,0.1521135871279411
9.032872,4.033063069036604,0.15179124715296
9.03526,4.048101487619917,0.1513908595315055
9.03764,4.05876361765806,0.1510814769703281
9.040036,4.067563416576645,0.1508216202704881
9.042424,4.078085776987927,0.1505275427871559
9.044819999999998,4.084743705533235,0.1503456167956253
9.047216,4.092752108518902,0.1501003392307758
9.049604,4.101179820385151,0.1498128013655158
9.051984,4.109607532251399,0.1495321107430716
9.054379999999998,4.116964308931009,0.1492888639005906
9.059152,4.118873861878809,0.1491722464761171
9.061547999999998,4.120875962625226,0.1491127132470709
9.063935999999998,4.12338992005084,0.1490711389313886
9.066316,4.131910179715704,0.1488555807145181
9.068715999999998,4.141641144194069,0.1485944151619863
9.071103999999998,4.15351397904571,0.1482679948609536
9.073484,4.167109375390047,0.1479211641274469
9.075884,4.186850843600494,0.1473960234095723
9.078267999999998,4.206312772557222,0.1469059418895558
9.080652,4.227357493379787,0.1464035770604419
9.083047999999998,4.245980804575352,0.1459926179818956
9.085435999999998,4.269399713196671,0.145464439168386
9.08782,4.29840561517666,0.144824596817588
9.090215999999998,4.328482452343286,0.1441613542959787
9.092603999999998,4.3636344261893845,0.1433710608553124
9.094988,4.397995004102565,0.1425991180177178
9.097383999999998,4.435428617948801,0.1417564660588967
9.099771999999998,4.468206403996146,0.1410136674489839
9.102152,4.50205512523013,0.1402414869717277
9.10456,4.534693141650614,0.1395096048463122
9.106948,4.569612798071235,0.1386865673314549
9.109331999999998,4.604811993745577,0.1378481991941769
9.111724,4.636286527180807,0.1370856629433551
9.114107999999998,4.66482779430984,0.1364097910366628
9.116487999999997,4.691506730319317,0.1357784392994004
9.118883999999998,4.713669608156763,0.1352329969587288
9.121267999999995,4.728243391889122,0.1348474300334034
9.149956,4.670105089307368,0.1346940955254326
9.152335999999998,4.662238351806431,0.1346882544587491
9.154732,4.657304880611688,0.1346212889483695
9.166671999999998,4.624906765048159,0.1346177773048029
9.169075999999995,4.622719568704508,0.134561794393129
9.17146,4.630682645719801,0.1342671215134136
9.173844,4.640228514600931,0.1339570141338225
9.176243999999995,4.655920455348171,0.1335018991914419
9.178631999999997,4.667188885721997,0.1331753764171393
9.181012,4.678736855349544,0.1328292780881617
9.183415999999998,4.691355760163729,0.1324520658960181
9.185799999999997,4.699179067552163,0.1321700212792861
9.18818,4.707142144567456,0.1318769634681192
9.190583999999998,4.713103120836333,0.1316277591901203
9.192971999999996,4.7149201259855165,0.1314798442882915
9.195352,4.719810167067754,0.1312588963477497
9.197755999999998,4.71948530184366,0.1311679843652616
9.200139999999998,4.718369040686647,0.1310828156383343
9.202523999999997,4.717532318783355,0.1309758531320705
9.204923999999998,4.716183740200866,0.1308524318819033
9.207311999999998,4.715114700872095,0.1307069409248611
9.209691999999997,4.722054064528994,0.1303869538967374
9.212096,4.728062262626113,0.1300802762919525
9.26942,4.552013549471041,0.129963447231218
9.271804,4.548523100515275,0.1298915712282536
9.274188,4.543682177119148,0.1298694304130879
9.276584,4.543916390402495,0.1297333857808431
9.278972,4.547083869992037,0.1295387260648756
9.281351999999998,4.55504694700733,0.129254334778557
9.283748,4.558586513649209,0.1290870670769196
9.286131999999998,4.568504469582677,0.128818707086094
9.288532,4.576932181448924,0.1286106941471064
9.290936,4.591366195554422,0.128269865308921
9.293319999999998,4.601236929659646,0.1280605530720146
9.2957,4.604589504846422,0.1279654278047552
9.298095999999996,4.607942080033197,0.1278705274514143
9.300483999999996,4.618232123019004,0.1276256974103725
9.302864,4.624657734138835,0.1274596455000002
9.305267999999998,4.6350875467515,0.1272061849715552
9.307651999999996,4.644678741603004,0.1270227931152046
9.310036,4.653338770894729,0.1268548582472835
9.312431999999998,4.668424411306285,0.1265276826291823
9.314815999999997,4.681647720598285,0.1262330873507977
9.3172,4.692449620263288,0.1260170388120843
9.329155999999998,4.693800094703645,0.1259700291098183
9.331536,4.691705446158612,0.1259613431879636
9.333939999999998,4.688587084255183,0.1259167608392587
9.336323999999998,4.688961067165389,0.1257719307336862
9.338707999999995,4.688403884515819,0.1256430622595923
9.341103999999998,4.693201377799439,0.1253847674512942
9.343491999999998,4.703074007762532,0.1250161704899517
9.345872,4.710804767352348,0.1246979956407996
9.348267999999996,4.714391555822471,0.1244750574850143
9.350655999999995,4.718257883546314,0.1242293435086293
9.353036,4.718771636083381,0.1240733257092415
9.355431999999997,4.720635863060807,0.1238706395228394
9.35782,4.72436242115779,0.1236380724448491
9.3602,4.721011741828883,0.1235535605125486
9.362596,4.719383623992671,0.1234505068918121
9.364984,4.716824340596682,0.1233620549865864
9.367379999999995,4.719340193880166,0.1231680345309513
9.369775999999998,4.720924881603872,0.1229884532409914
9.372159999999996,4.726234231566691,0.1227476396236199
9.374544,4.738341279701679,0.122382423460036
9.376939999999998,4.7544525293295,0.1219304740494659
9.379327999999996,4.763207002277712,0.1216512794132074
9.381708,4.768329360785428,0.1214835811571105
9.384111999999998,4.770238913733227,0.1213932020442884
9.386499999999998,4.772008697054166,0.1213142563590273
9.388879999999997,4.771636610001828,0.1212857554269692
9.391279999999998,4.77112475332263,0.1212679654537553
9.393663999999998,4.7728945366435696,0.1211898085190942
9.396044,4.776945959964646,0.1210514526846563
9.398447999999998,4.783790879965059,0.1208720268422393
9.400835999999998,4.794267914405968,0.1205883742655507
9.403215999999995,4.800368660301705,0.1203532523119887
9.40562,4.807028484704881,0.1200781719378482
9.408008,4.816761345041114,0.1197408029187595
9.410387999999998,4.82584257907129,0.119397573608893
9.412788,4.836414057168683,0.1189984606112717
9.415176,4.842189937840326,0.1186791097861366
9.417555999999998,4.851830250377943,0.118298486464022
9.419956,4.862681267729058,0.117885587127493
9.422344,4.870599018773977,0.1175278497139466
9.424723999999998,4.880379100938455,0.1171469598591608
9.427124,4.8955138590361225,0.1166506771696008
9.429512,4.914140961947427,0.1160682562775072
9.431891999999998,4.936772266351566,0.1154195273376924
9.434288,4.958612174822785,0.1147768969904675
9.436676,4.982873492921003,0.1140755483393015
9.439055999999995,5.005272479899665,0.1134000914587804
9.441451999999998,5.026460762064827,0.1127563636110976
9.443839999999998,5.043505073110296,0.1121890937807459
9.446219999999997,5.056405413036073,0.1117013436668701
9.448615999999998,5.068095048148349,0.1112513561689024
9.451003999999998,5.084160971805796,0.1107619153219817
9.453384,5.097945255463106,0.11032803793838
9.455783999999998,5.10879627281422,0.1099394351471617
9.458167999999995,5.120438686098253,0.1095509482664796
9.460552,5.131801560128565,0.1091834588161216
9.462947999999995,5.145026765278434,0.1087914860292142
9.465335999999995,5.15424776893547,0.1084678717247243
9.467716,5.162537607032727,0.1081574795314949
9.470115999999996,5.167242552517731,0.1078819870233202
9.472503999999995,5.173158202816233,0.1075797872622165
9.474899999999998,5.180284557928235,0.1072527124526878
9.477296,5.185129273040099,0.1069776242379249
9.479684,5.181965585166296,0.1068241302018799
9.482067999999998,5.18080399803891,0.1066407043844259
9.484464,5.179362871657803,0.1064772867291666
9.486852,5.181134550836612,0.1062563100919717
9.489231999999998,5.1850481003886975,0.1059969911879779
9.491632,5.195387261060615,0.1056231357066618
9.49402,5.20707689617289,0.1052090362864374
9.496399999999998,5.216624660911888,0.1048341531093021
9.498791999999998,5.221376828225136,0.1045180021864625
9.501179999999998,5.229062261844579,0.1041640207595042
9.503556,5.239401422516495,0.1037889852667473
9.505951999999995,5.247738482441996,0.1034433383694369
9.508336,5.256215311994357,0.1030891452848721
9.510716,5.265623307106495,0.1027264408816509
9.513127999999998,5.277312942218771,0.1023173876233296
9.515515999999998,5.288862807704187,0.1019184819465473
9.517895999999997,5.3059996665482725,0.1014630988300761
9.520287999999995,5.320343028713023,0.1010417551180371
9.522675999999995,5.327189844571306,0.1007497982711844
9.525052,5.33189479005631,0.1004936767363408
9.527448,5.34595861296734,0.1000888044445655
9.529832,5.355738695131817,0.0997586980665835
9.532211999999998,5.359652244683901,0.0995022326698408
9.534603999999998,5.359142283862573,0.0993291689534997
9.536991999999998,5.357421618227746,0.0991839506316347
9.539368,5.350997902965783,0.0991391586621615
9.541784,5.348298849942935,0.0990579654349384
9.544168,5.344808400987168,0.098976462740014
9.546543999999995,5.347044715016932,0.0988315847439031
9.548959999999996,5.347139158673418,0.0987233561123288
9.551343999999997,5.348723846397124,0.0985712844234317
9.553724,5.352729943747827,0.0983663702115059
9.556116,5.35552533628503,0.098187841552776
9.558504,5.355247692889179,0.0980530625364772
9.560879999999996,5.352548639866331,0.0979714850901291
9.577611999999998,5.303249774599931,0.0979229359977912
9.579995999999998,5.297989542323224,0.0979033129364013
9.582379999999995,5.295802345979573,0.0978386661186388
9.584775999999998,5.292963523329865,0.0977645605285118
9.587159999999995,5.290683779187597,0.0976535908418397
9.589544,5.285470768739135,0.0975787080467424
9.591956,5.282120089410228,0.0974858492728369
9.60388,5.227513770038877,0.0974600833697942
9.606275999999998,5.21964703253794,0.097400383657191
9.608659999999997,5.215412409477498,0.0972609482293781
9.61104,5.210526160110999,0.0971119608486661
9.613456,5.201775478878526,0.0970049013925911
9.61584,5.197867616900047,0.0967913093617418
9.618219999999996,5.1962413949217074,0.0965337953187582
9.620635999999998,5.197408669622701,0.0962519941668049
9.623019999999997,5.204582246562944,0.0958920920120534
9.6254,5.216970729809521,0.0954539077230261
9.627816,5.221350810070431,0.0951190452328458
9.6302,5.221866458465367,0.0948254260305118
9.632596,5.224384207606721,0.0945067193856861
9.634991999999995,5.22876428786763,0.0941721763474056
9.637376,5.230490641076066,0.0938516931768466
9.639755999999998,5.2352900302175565,0.0934913376943804
9.642152,5.2358056786124925,0.0931982286289647
9.64454,5.240325528500263,0.0928538047971324
9.646919999999998,5.2451249176417525,0.0924883953722399
9.649324,5.254068277902936,0.0920612170985462
9.651712,5.260590228537123,0.0916895681461431
9.654087999999998,5.2648305391711725,0.0913648251359797
9.656484,5.265438735364725,0.0911184933255813
9.658872,5.266698557864336,0.0908830379835267
9.661268,5.2738249129763375,0.0905826208919443
9.663667999999998,5.27946102402112,0.0903272347453329
9.666055999999998,5.284165969506124,0.0900808142646123
9.668436,5.285797879058072,0.0898750206641797
9.670839999999998,5.286638392677102,0.0896692583354103
9.673223999999998,5.2873391366692735,0.0894739583822497
9.675607999999997,5.294185952527553,0.08920095311023
9.678012,5.309180940998363,0.0888311802625075
9.680395999999998,5.323616850961732,0.0884981135095487
9.682775999999995,5.341125796858155,0.0881336464217862
9.68518,5.36315080092661,0.0877446236316935
9.687563999999998,5.37996089868873,0.0874243185234183
9.689943999999995,5.397190305331433,0.0870741348754311
9.692348,5.414419711974135,0.0867270124659196
9.694736,5.433651219363255,0.0863576136913423
9.697115999999998,5.453813892312152,0.0859858915225579
9.699512,5.470391672648798,0.0856287283475348
9.701899999999998,5.4851071218658864,0.0852852822129805
9.704279999999995,5.500241879963555,0.0849149945156745
9.706684,5.513654076568528,0.0845501479790809
9.709067999999998,5.523993237240445,0.0842229557998959
9.711447999999995,5.5354033330990005,0.0838823652250448
9.713852,5.547325285636754,0.0835623263804555
9.71624,5.5627395829881445,0.083183713559315
9.718619999999998,5.576012009966255,0.082835459403698
9.721011999999998,5.584349069891755,0.0825343367238048
9.723395999999996,5.588681928324423,0.0822748748093729
9.725776,5.586868714890978,0.0820863080527592
9.728179999999998,5.584683414405196,0.0818708372816815
9.730567999999998,5.575420876493525,0.0817286141097864
9.732947999999997,5.5605713452231855,0.0816201550237571
9.735343999999998,5.548422762833562,0.0814498970438884
9.737731999999998,5.540930008242832,0.0812507153615811
9.740112,5.535718893652238,0.0810167094474011
9.742515999999998,5.534372210927616,0.080754609655985
9.744899999999998,5.530092261896801,0.0805169029907551
9.74728,5.531678845478375,0.0802309135182006
9.749675999999996,5.533824507567391,0.0799121764187113
9.752063999999995,5.536901335216185,0.079588185050504
9.75444,5.539978162864978,0.0792635586945066
9.756843999999996,5.546407565700548,0.0788925877984767
9.759228,5.55190580297634,0.0785280080948138
9.761603999999998,5.555821248386295,0.0781576072741697
9.764,5.556244348982615,0.0778431047443703
9.766388,5.558809319952212,0.0775034020488243
9.768763999999996,5.5655182620415005,0.077119756297279
9.771179999999998,5.574089535250348,0.0767255039283123
9.773563999999997,5.581729642899416,0.076334320195596
9.775948,5.587367649802068,0.0759603502356019
9.778347999999998,5.597289397451272,0.0755344275871496
9.780735999999996,5.614148612899506,0.0750517420771602
9.783116,5.63058851946716,0.0745957694579687
9.785519999999998,5.64544563416898,0.0741366936617187
9.787903999999996,5.655367381818185,0.0737187898099379
9.790284,5.658631200922082,0.0733405700238368
9.792687999999998,5.665387364839615,0.0729122326409623
9.795075999999998,5.673214463943787,0.0724772653968997
9.797455999999997,5.6804824845405175,0.0720731457241236
9.799851999999998,5.690963310697164,0.0716380045774163
9.802235999999995,5.70158390648067,0.0711948284864839
9.804616,5.709411005584843,0.0707653553370808
9.807019999999998,5.716586478382957,0.070324630436023
9.809407999999998,5.7229705552481525,0.0698784854018697
9.811788,5.727771840247511,0.0694212847802945
9.814191999999998,5.731781729313954,0.0689618497561066
9.816579999999998,5.737142092820753,0.0684800764756545
9.818959999999995,5.7442722396484935,0.0679519927854532
9.821355999999998,5.754754961663009,0.0673847214550672
9.823739999999995,5.7685902588643,0.0667793445975016
9.82612,5.7792127505056765,0.066206158876388
9.828523999999998,5.787041745467718,0.0656466277810601
9.830911999999998,5.795150279683479,0.0650735977002267
9.833292,5.803119044272381,0.0645096883197209
9.835683999999995,5.813881305540617,0.0639384270304158
9.838071999999997,5.825854271622352,0.0633464628892857
9.840467999999998,5.8336832665843925,0.0627893368214046
9.842864,5.833503858560767,0.0622803389944548
9.845252,5.834535155350639,0.0617537768597135
9.847631999999996,5.827558049154844,0.0612744110878458
9.850032,5.822443274078605,0.0607907913829974
9.85242,5.8179801253084245,0.0603193893137856
9.854799999999996,5.8163104732175785,0.0598430637113587
9.857204,5.817434317806069,0.0593606007210927
9.859588,5.82377306870089,0.0588395361652425
9.861967999999996,5.829972049968852,0.0583272309355171
9.864372,5.8317475208634,0.057859718456935
9.86676,5.8306822732503685,0.057447288027071
9.869139999999998,5.826264450450561,0.0570684283187823
9.871544,5.817143578023621,0.0567454198903884
9.873932,5.8101645759699565,0.0564037987983182
9.876312,5.799832998729517,0.0560940268614781
9.878708,5.789082112608497,0.0558058157268546
9.881096,5.779262392047254,0.0555163605785954
9.883475999999998,5.7651589307394575,0.0552600610559876
9.88588,5.7542210531633335,0.0550273938539592
9.888264,5.74286386670663,0.0548149309879995
9.890648,5.737512982489175,0.0545717732678054
9.893047999999997,5.733884659764418,0.0543343628894194
9.895436,5.7347723952116905,0.0540967070185744
9.897816,5.7324473250990495,0.0538842143795866
9.900212,5.728911550172909,0.053687198459412
9.9026,5.719089933753796,0.0535326607739677
9.904979999999998,5.708849008454104,0.0534003044881361
9.907376,5.694696429460194,0.0533290211820232
9.90976,5.6799847719588445,0.0532865921345243
9.912139999999996,5.66792684150997,0.053248467452455
9.914544,5.655868911061095,0.0532102573531124
9.916928,5.646604477291555,0.0531689806269671
9.919307999999996,5.642415180201487,0.0531010187755935
9.921712,5.63687540867106,0.053055725948319
9.924096,5.64013543605922,0.0529811557316517
9.926475999999996,5.640182657887462,0.0529306767451156
9.92888,5.635806369342292,0.05292016117734
9.931268,5.6352945126630924,0.0528988734338213
9.933647999999998,5.633339633744919,0.0528572397429572
9.936052,5.635109417065859,0.0528123517925915
9.938436,5.636459891506218,0.0527896489009386
9.940815999999998,5.636879200386798,0.0527678694746131
9.943207999999998,5.639580149267517,0.0527231652813303
9.945595999999998,5.643863890014071,0.0526913222735782
9.947975999999995,5.648147630760626,0.0526593645585759
9.95038,5.659229069679348,0.0526077697335417
9.952768,5.665514911172319,0.0525667204162714
9.955147999999998,5.674222162292287,0.0524948684644555
9.957552,5.683348722292836,0.0524011528817067
9.959936,5.693685987106884,0.0522929426802015
9.962315999999998,5.702952316734292,0.0521920403545721
