Time,Force,Position
8.547239999999999,3.661780662406361,0.1454580689994399
8.549636,3.6562881127041766,0.1454413239724154
8.552024,3.657872800427883,0.1452111384650503
8.55442,3.6586660922186702,0.1449888771724402
8.556812,3.663044276621711,0.1446909193090279
8.5592,3.671007353637004,0.1443174987727813
8.56158,3.687770229570883,0.1436975374968777
8.563983999999998,3.7082577677438753,0.1429808567097469
8.566371999999998,3.728465766663146,0.1422984119719208
8.568752,3.755611233381448,0.1414086711196266
8.571148,3.782337391219168,0.1405629815713933
8.573536,3.810646340922724,0.1396892634171514
8.575916,3.8265233772671983,0.1392189740125285
8.578312,3.845705766970205,0.1387063865976369
8.5807,3.864748387046353,0.1382023495818553
8.583079999999999,3.8837910071225,0.1377078255616078
8.585476,3.907768994251259,0.1370740371340362
8.587864,3.927882549514045,0.1365441615189267
8.621327999999998,3.988770918662628,0.1361680423229707
8.623715999999998,3.997151408700633,0.1359860578446647
8.626096,4.000736301312886,0.1359186193036123
8.628499999999999,4.004181424298278,0.1358633702037395
8.630887999999999,4.005764216164115,0.1358492675110726
8.633268000000001,4.006555612097033,0.1358425750728387
8.635663999999998,4.011490979149645,0.1357182627088656
8.638047999999998,4.015634950269338,0.1355999764808713
8.640428,4.022340100642889,0.1353771525088249
8.642831999999999,4.0289054813895815,0.1351670835341751
8.645219999999998,4.03761273250955,0.1348891553481054
8.6476,4.045249048442879,0.134643074331255
8.649999999999999,4.046087666204041,0.1345643287245627
8.652387999999998,4.04757791027126,0.1344920636368006
8.654768,4.053212125458173,0.1343010868339734
8.657172,4.05684423989867,0.134162806161717
8.659559999999999,4.061127980645224,0.1340302643177057
8.661939999999998,4.068065448444253,0.1338481970219646
8.690608000000001,4.058198506054768,0.13368566238071
8.692999999999998,4.056895253442652,0.1336724646814306
8.695387999999998,4.056802705644034,0.133614610173093
8.707343999999999,4.046935763254549,0.133463843487791
8.712111999999998,4.039628104261052,0.1334050802550912
8.714507999999999,4.038511843104039,0.1333074081926218
8.716895999999998,4.038746056387386,0.1331514829829387
8.719272,4.041122140044009,0.1329309660127439
8.721675999999999,4.046431490006828,0.1326404770551032
8.724063999999998,4.053603171089203,0.1323149365654269
8.726447999999998,4.065290910343611,0.1319092504664644
8.728843999999999,4.077770045530936,0.1314964882463574
8.731231999999999,4.093042677397595,0.1310298861341382
8.733612,4.099375740718809,0.1307829920875714
8.736007999999998,4.09597783956166,0.1307624649396112
8.738395999999998,4.094582039150927,0.1306906225799513
8.740776,4.0921153035535545,0.1306507615659055
8.745560000000001,4.086110897172174,0.13060205932641
8.747944,4.090441859746971,0.1304064281732599
8.750339999999998,4.1001274982549605,0.1300534345134973
8.752724,4.110884071949589,0.1296681260851317
8.755119999999998,4.125505077510191,0.1292004062564325
8.757524,4.137053047137737,0.1288185534851401
8.759908,4.152744987884978,0.1283318339269444
8.762287999999998,4.16736599344558,0.1278777336641272
8.764692,4.177843027886487,0.1275299745469194
8.76708,4.1851072567674805,0.1272726550551092
8.769459999999999,4.1903693849020565,0.1270652073460222
8.77902,4.182270329975641,0.1270027394270892
8.781403999999998,4.1856229051624165,0.1269007161563831
8.783784,4.201779480760612,0.1265062936050635
8.786192,4.216865121172169,0.1261440320334479
8.788575999999999,4.229808891210447,0.1258383102731161
8.812463999999999,4.2489874891977175,0.1258085108162277
8.814868,4.251501446623331,0.1257822648227743
8.817252,4.256157274422224,0.1256991291792286
8.819636,4.261232411101695,0.1255787322813165
8.822032,4.269520353341083,0.1253731842306756
8.82442,4.278227604461052,0.1251293419427129
8.826799999999999,4.2873541644616,0.1248494115564907
8.829204,4.290102335170561,0.1246755582938263
8.831592,4.286472116587935,0.1246060067939526
8.833972,4.282981667632167,0.1245244910048402
8.836368,4.282843793863176,0.1243466634033937
8.838752,4.280983358601489,0.1241893167525067
8.841131999999998,4.279542232220383,0.1239962647364629
8.84354,4.279451580279634,0.1237486360392986
8.845924,4.287229561697695,0.1233383094299553
8.848303999999999,4.297428952742751,0.1228524980956819
8.8507,4.305905782295111,0.1223844679099877
8.853088,4.313730985541413,0.1219088583378564
8.855467999999998,4.322627123974354,0.1214043630741747
8.857872,4.330592096847517,0.1209152957478183
8.86026,4.333621702668069,0.1205314902985299
8.862639999999999,4.336511538861758,0.1201601585915919
8.865036,4.337678813562752,0.1198108327379394
8.867424,4.34285028975658,0.1193793909100361
8.869803999999998,4.342015463711158,0.1190732945594649
8.8722,4.3423913424792335,0.1187282760189684
8.874588,4.34290699087417,0.1183722035332596
8.876967999999998,4.348497775948579,0.1179060931567173
8.879363999999999,4.355019726582766,0.1174256997745788
8.881751999999999,4.362752382030451,0.1169099781491934
8.884135999999998,4.369833411172079,0.116389280970065
8.886531999999999,4.376123044380789,0.1158685993276627
8.888915999999998,4.3834836127761365,0.1153250183434761
8.891316,4.394708613037457,0.1147138368061151
8.893712,4.39927568475347,0.1142215381184332
8.8961,4.400629950909567,0.1138063454297858
8.89848,4.40612818818536,0.1133044233379011
8.900876,4.413348986953846,0.112788425798491
8.903264,4.42364282165539,0.1122161778142276
8.905648,4.434728052289851,0.1116408180184307
8.908044,4.447023987737812,0.1110261890213901
8.910432,4.461461793559049,0.1103685191740277
8.912811999999999,4.471755628260592,0.1097916325652818
8.915216000000001,4.477253865536383,0.1092943554256456
8.9176,4.48568536911837,0.1087404843005497
8.919979999999999,4.4939771030734965,0.1081997494112209
8.922384000000001,4.499195801095566,0.1077182265832983
8.924772,4.50199308949064,0.1073105650606854
8.927152,4.50050663713916,0.1069966430395564
8.972548,4.285671939839622,0.1067530637357762
8.974936,4.287301953533701,0.1066852182434724
8.977332,4.291725463907115,0.1065813672705937
8.979724000000001,4.29493826946703,0.1065115616489737
8.982112,4.295729665399949,0.1065105202410395
8.986895999999998,4.303690846557374,0.1064333101529789
8.98928,4.313514358834355,0.106331509312643
8.991664,4.319473439245361,0.1062903554912957
8.994060000000001,4.323430418909952,0.1062841536502137
8.996448000000001,4.331671139321097,0.106182264305383
8.998828,4.343776291598216,0.1060154071022886
9.001224,4.358255631674088,0.1058465130652757
9.003612,4.368870539883986,0.1057412784365345
9.005991999999999,4.3836294192135785,0.1055495351780086
9.008388,4.394663636304059,0.1054105797500857
9.010772,4.402904356715204,0.1053096837995732
9.013168,4.411284846753208,0.1052010574718024
9.015563999999998,4.424088847164628,0.1049919979154978
9.017952,4.435310055710211,0.1047861109555916
9.020336,4.444668933136238,0.1046024836632325
9.022731999999998,4.450303148323151,0.1044683480832734
9.025116,4.452864327577009,0.1043909853082814
9.0275,4.4583587731370615,0.1042683582296457
9.029896,4.468276729070529,0.1040471197561677
9.032284,4.478846311310054,0.1038381265822491
9.034664,4.494630799855911,0.1035308082838108
9.03706,4.504688525416238,0.1033034192209525
9.039444,4.516468812469261,0.1030625038804491
9.04184,4.5314619050822005,0.1027522774573562
9.044235999999998,4.545244292881641,0.1024785830929696
9.046623999999998,4.56009761586772,0.102184377449366
9.049008,4.573088607734244,0.1019142292397358
9.051403999999998,4.588361239600904,0.1015914828222853
9.053791999999998,4.605635972213981,0.1012421186353759
9.056172,4.6275665326259485,0.100843995695298
9.058568,4.649636862664777,0.1004334349344013
9.060956,4.664909494531437,0.100118268021334
9.063336,4.670311392292872,0.0999503146093734
9.065732,4.676784225240946,0.0997624131690047
9.06812,4.689123590801412,0.0994928854321456
9.070504,4.699321085988599,0.0992635027426904
9.0729,4.712079760429645,0.0989622306175803
9.075288,4.723255643004854,0.098663391938191
9.077683999999998,4.73042732408723,0.0984284814786406
9.08008,4.734433421437933,0.0981932286289039
9.082468,4.731921359870188,0.098027887533105
9.084848,4.729409298302443,0.0978614370244885
9.087243999999998,4.729458415988555,0.0976242431563088
9.089631999999998,4.734582670354139,0.0973109972756254
9.092012,4.737192967294108,0.0970061994201564
9.094416,4.737009767554744,0.0967300207870437
9.096804,4.737106107069099,0.0964337431899328
9.099184,4.73384987139668,0.0962064122734351
9.101579999999998,4.726449664604565,0.0960480992881304
9.103967999999998,4.712391529267143,0.0959659836933712
9.106348,4.697122689116221,0.0959140617112641
9.108748,4.685858050458133,0.0958032666819126
9.111131999999998,4.683532980345492,0.0955634710943212
9.113516,4.677063939113156,0.0953928756850264
9.115911999999998,4.662866034148872,0.0953205833692785
9.118296,4.651741165117644,0.0951984651647186
9.12068,4.639126052019198,0.0951262555861691
9.123076,4.625440003734113,0.0950732851718528
9.125464,4.611753955449028,0.0950200935503799
9.127859999999998,4.602583965335975,0.0949281031154289
9.130256,4.598721429327871,0.0947992558506121
9.132644,4.597931929252822,0.0946210135681952
9.144588,4.555336318502103,0.0945592495795943
9.146976,4.551286791038896,0.094501996279028
9.149359999999998,4.547656572456269,0.0944138412547114
9.15176,4.54495751943342,0.0943157387798225
9.154148,4.547193833463184,0.0941501707729059
9.156527999999998,4.548871068985506,0.0940259960670851
9.158924,4.546264563761274,0.0939807317278732
9.161312,4.550735295962932,0.0938301749037585
9.163695999999998,4.561072560776981,0.0936032338012405
9.1661,4.571409825591028,0.0933782177553959
9.168484,4.580676155218438,0.0931716704597764
9.170868,4.591804815965403,0.0929474251081873
9.173264,4.604516268578205,0.0927254405561163
9.175648,4.614154685257952,0.0925534626407944
9.178031999999998,4.622070540445002,0.0923904087798903
9.180428,4.627704755631916,0.0922755596395168
9.182811999999998,4.629474538952857,0.0922053594849743
9.185195999999998,4.6364592285801285,0.0920480157397691
9.187592,4.6423729830207625,0.0919106249858744
9.189979999999998,4.646144867088118,0.0918118095542609
9.19236,4.654991887834946,0.0916367447527556
9.194755999999998,4.6595551678352205,0.0915403746784123
9.19714,4.666911944514831,0.0914185813001844
9.199535999999998,4.678133153060413,0.0912519815081753
9.201932,4.684558764180244,0.091139620920598
9.20432,4.692334849740434,0.0909886057613564
9.206699999999998,4.700110935300624,0.0908362651201267
9.209096,4.700670013808065,0.0907959295130661
9.211484,4.702020488248425,0.0907576098034698
9.213867999999998,4.702300027502145,0.0907377588440986
9.216264,4.703930041196224,0.0906796351376802
9.218647999999998,4.704489119703665,0.090639980181487
9.221028,4.706258903024605,0.0905726295955717
9.223427999999998,4.706957751158907,0.0905232510738525
9.225815999999998,4.707516829666346,0.0904837715832673
9.228212,4.71315104485326,0.0903742867307939
9.230615999999998,4.725582958212341,0.090187286156155
9.233004,4.7406685986238974,0.0899897329987351
9.235384,4.753612368662177,0.0898259345627573
9.237787999999998,4.7686980090737325,0.089626375915376
9.240171999999998,4.781781548738873,0.0894548717857943
9.242552,4.793142526911316,0.0892883389304688
9.244951999999998,4.8031530306434,0.0891605949733031
9.247336,4.810230268069288,0.0890668237246906
9.249716,4.821311706988012,0.0889227055330318
9.252119999999998,4.833603850720233,0.0887541848573246
9.254504,4.84896903038551,0.0885441028772513
9.256884,4.871411447476677,0.0882429298020311
9.25928,4.889989432701869,0.0879839661743666
9.261668,4.908846957180783,0.0877069259343941
9.264043999999998,4.927285172779116,0.087458723038677
9.266452,4.945723388377448,0.0872105201429598
9.268836,4.959366006550028,0.0870090498398861
9.271211999999998,4.974079559909247,0.0867896074726165
9.273608,4.990655444388023,0.086556433837426
9.275996,5.002435731441047,0.0863726410391821
9.278375999999998,5.012353687374514,0.0862058515519588
9.28078,5.014542779576034,0.0861151368670667
9.283164,5.021155382150968,0.0859494338181871
9.285548,5.028699150285681,0.085778217176316
9.287948,5.0379654799130895,0.0856032275448749
9.290336,5.049094140660055,0.0854132460813221
9.292711999999998,5.0567776784216285,0.0852321201863249
9.295108,5.068465417676035,0.0850058518928227
9.297491999999998,5.0782908258108845,0.0847956025153401
9.299888,5.08490342838582,0.0846342693371066
9.302291999999998,5.08765159909478,0.0845092598912824
9.304676,5.081599970885158,0.084472291613817
9.307056,5.0758278819292535,0.0844168751417348
9.309452,5.070847188906268,0.0843636240422774
9.311836,5.066285804763862,0.084283003020819
9.31422,5.060001859128762,0.0842064294736387
9.316616,5.058932819799991,0.0840596241586145
9.319,5.057212154165164,0.0839009748915921
9.321379999999998,5.050975430358305,0.0837661606408253
9.323784,5.047671972857641,0.0836024676190039
9.326172,5.041435249050783,0.0834673492237045
9.328551999999998,5.040553201177116,0.0832526814614657
9.330948,5.039671153303451,0.0830398155560035
9.333332,5.039348183937226,0.0827928687898602
9.335728,5.037582192332025,0.0825324283063655
9.338124,5.0363752792342655,0.0822365782593665
9.340512,5.037961862815839,0.081921136283214
9.342892,5.033821683411885,0.0816508815702144
9.345295999999998,5.027539633634652,0.0814096095648725
9.347684,5.023259684603835,0.0811474093733609
9.350064,5.024334411506212,0.08081179511087
9.352463999999998,5.0335573110211165,0.0803836524397293
9.354848,5.04343183684208,0.0799671804319849
9.357232,5.053585901916763,0.0795358347902789
9.359628,5.063600197364585,0.0791142419699342
9.362012,5.076547759118603,0.0786667186155195
9.364392,5.088284616059123,0.078247224106282
9.366788,5.102954739305837,0.0778051864367361
9.369176,5.123351625538081,0.077323218859163
9.371572,5.138813144717714,0.0768854694784912
9.373967999999998,5.159489570203679,0.0763889094013584
9.376355999999998,5.180538082741982,0.0759270024741859
9.378736,5.19637168897395,0.0755253246449625
9.381132,5.207781784832506,0.0751887489210315
9.38352,5.215979075131147,0.0748918956298611
9.3859,5.223757056549205,0.0746220191363866
9.388296,5.233676908340542,0.0743272417501746
9.39068,5.248392357557631,0.0739999552754644
9.393064,5.270185044200608,0.0736090442592915
9.395468,5.289463773417971,0.0732160436811869
9.397852,5.302596430769223,0.0728868776902101
9.400232,5.311585117000781,0.0726035946415083
9.402628,5.321644738418978,0.0723083051185394
9.405016,5.329842028717618,0.0720230293976002
9.4074,5.342323059762812,0.0716914706830775
9.409796,5.354152464501949,0.0713497944822941
9.41218,5.361977667748251,0.0710399756734189
9.41458,5.369663101367694,0.0707417275614411
9.416971999999998,5.374694807934661,0.0704493533374702
9.41936,5.37893511856871,0.0701489426130622
9.421744,5.379171227709926,0.0698817350364099
9.424139999999998,5.375031048305971,0.0696163770918745
9.426524,5.376245544835207,0.0692913748375916
9.428904,5.379741681364581,0.0689336353902435
9.431307999999998,5.389104350506346,0.068537977560104
9.433695999999998,5.398746558901833,0.0681269576109267
9.436076,5.406526436177762,0.0677259449191105
9.438472,5.411373047147495,0.0673446466271769
9.440856,5.407140319944924,0.0670348631140511
9.44324,5.40248828386177,0.0667473982546793
9.445636,5.401700679644589,0.0664376450167184
9.44802,5.401844240987188,0.0661241996591994
9.450416,5.399473844904172,0.0658040318356539
9.45282,5.398686240686992,0.0654939002274491
9.455208,5.390681629417063,0.0652466769838678
9.457587999999998,5.38412004038611,0.0650180098961421
9.459984,5.3806314872882135,0.0647630628867162
9.462371999999998,5.374489207137841,0.0645093430597159
9.464752,5.365273891054413,0.0642790591476792
9.467147999999998,5.363927208329793,0.0640017654044413
9.469535999999998,5.36472239597845,0.0637033019809878
9.471912,5.371384116239496,0.0633734640401302
9.47432,5.376043735754127,0.0630591144716555
9.476703999999998,5.378421715268621,0.0627729311803527
9.479088,5.377214802170861,0.0624900804779606
9.481483999999998,5.374005788326683,0.062219161901043
9.483868,5.370657004855645,0.0619562350359416
9.486248,5.3677275302651895,0.0616688758642371
9.488651999999998,5.369361335675006,0.0613233110709165
9.491039999999998,5.372205845898323,0.0609580204961354
9.49342,5.374258960188721,0.0605882666275218
9.495815999999998,5.374729282613282,0.0602060198889423
9.498203999999998,5.377061936157401,0.059819047757081
9.500584,5.374598992275766,0.0594482315108948
9.50298,5.373486522834493,0.0590482518122041
9.505368,5.367997764848049,0.0586416050852144
9.507752,5.359575740555409,0.0582467484158161
9.510148,5.349943011449271,0.0578678406863475
9.512536,5.342312383089548,0.0574743570930937
9.51492,5.328675452490576,0.0571170141388733
9.517316,5.310894550771908,0.0567889823442638
9.519704,5.286967577187131,0.056502320581098
9.522099999999998,5.260758963602217,0.0562414122093054
9.524496,5.237763155577217,0.0559501021461859
9.526884,5.214487808298498,0.0556730020468178
9.529263999999998,5.196939224005308,0.0553787042027
9.53166,5.177248769338842,0.0551020540701385
9.534048,5.161003437657768,0.0548357189461905
9.536428,5.144338797096114,0.0545921434527037
9.538828,5.133540689146851,0.054326483185788
9.541216,5.124604912317144,0.0540591085191153
9.543596,5.120324963286329,0.0537870771806514
9.545996,5.116836410188431,0.0535224635568797
9.548384,5.118283224143146,0.0532365380115236
9.550767999999998,5.123314930710113,0.0529556770034491
9.553164,5.13272292582225,0.0526867149187856
9.555552,5.148928619106557,0.0523985289150631
9.557932,5.168998744256838,0.0521007763327263
9.560327999999998,5.1930730708999535,0.0517884387276569
9.562715999999998,5.220080663849265,0.0514673570689039
9.565096,5.250812919037687,0.0511438038597292
9.567491999999998,5.286620310905581,0.0507952705173718
9.569879999999998,5.32177607646742,0.0504295884011257
