Time,Force,Position
8.828072,3.542031073979801,0.1559256363525849
8.830456,3.5721022235728213,0.1557147217076586
8.832852,3.5968659190608903,0.1556396818012095
8.83524,3.6263326641760942,0.1553543234589438
8.837624,3.656358487798739,0.1549994281197639
8.84002,3.681775705450736,0.1546901873497764
8.842404,3.712315281610448,0.1541262874325298
8.844779999999998,3.747697677024154,0.1533296876698007
8.847176,3.775118891280437,0.1527351851166109
8.849559999999999,3.8072431551638544,0.1519359078760794
8.851936,3.8276343538224906,0.1515092628907408
8.897367999999998,3.9039728670034894,0.1512950057158989
8.899752000000001,3.913796379280471,0.1510824496044133
8.902147999999999,3.925110135624671,0.1507935137028669
8.904552,3.942709733461842,0.1503075552925298
8.906936,3.964593072045567,0.1496842269205111
8.909315999999999,3.984334540256015,0.1491324566499933
8.91172,4.009849993280237,0.1483559020438818
8.914104,4.037088007797155,0.147543897604747
8.916483999999999,4.06553672712757,0.14669259943395
8.918888,4.093705907204267,0.1458749358073392
8.921276,4.123085792094462,0.1450046679576043
8.978584,4.08072818634283,0.144673980982551
8.980960000000001,4.076538889252762,0.1446690888554598
8.983355999999999,4.079147290334863,0.1444939260602793
8.985739999999998,4.089764094402631,0.1440983838710244
8.98812,4.102103459963096,0.1436743603780293
8.990516000000001,4.115234221456479,0.1432444994612012
8.9929,4.128644522203582,0.1427921634352017
8.99528,4.138190391084712,0.142435601620262
8.997696,4.145734159219424,0.1421333297523627
9.000079999999999,4.161565869593525,0.1415856233518353
9.002460000000001,4.181541551087319,0.140909991379052
9.004855999999998,4.200586067021336,0.1402530119859023
9.007243999999998,4.217628482208935,0.139656507019045
9.009624,4.232668796650118,0.1391218323252118
9.081304,4.125979594622378,0.1390914434514541
9.083716,4.123233319771288,0.1390811661696653
9.086104,4.124351476786169,0.1389804904716938
9.088484,4.125469633801051,0.1388799478360195
9.09088,4.127658726002571,0.1387480070890148
9.093268,4.131710149323648,0.1385776389242776
9.095648,4.136972277458224,0.1383622824021378
9.098044,4.144096736712355,0.1381088929199617
9.100428,4.145354663354097,0.1379953920832533
9.102804,4.150616791488673,0.1377780711163146
9.10522,4.159650803690605,0.1374150966540525
9.107604,4.179254398132062,0.136750649925968
9.109984,4.202862194066353,0.1359801283610237
9.11238,4.224095802201889,0.135235266906678
9.114764,4.244538014404507,0.134500451932539
9.117144,4.264608139554789,0.1337267937258976
9.119559999999998,4.283607329518432,0.1329949908179608
9.121944,4.301116275414854,0.1323402324062336
9.124324,4.318625221311277,0.1316869141555419
9.12674,4.334783692767342,0.1310931936943392
9.129124,4.351361473103987,0.1304687316123025
9.131504,4.3648662175075765,0.1299269469016695
9.133916,4.379441897097805,0.1293670584710156
9.136304,4.392015475941617,0.128851116935115
9.138684,4.401795558106093,0.1283869471593445
9.141084,4.409992848404731,0.1279343894395102
9.143472,4.419400843516871,0.1274435749138278
9.145852,4.430950709002286,0.1269028677917092
9.148255999999998,4.448786415980673,0.1262000589798761
9.150644000000002,4.467553288518838,0.125489880921107
9.153024,4.478963384377394,0.1249620991540874
9.155416,4.48301670355634,0.1246268356306187
9.157804,4.486138857175508,0.1243091459945713
9.160184,4.492845903406928,0.1239427694370512
9.162588,4.500763654451848,0.123540321497508
9.164972,4.51240606773588,0.1230776884872085
9.167356,4.52018404915394,0.1226860396025853
9.169748,4.525448073146385,0.1223170316136031
9.227116,4.299633964016088,0.1221953709691494
9.229504,4.297306998045577,0.1221405380047484
9.231884,4.296702593567762,0.1220670541587723
9.234288,4.297308893903446,0.1219559027335195
9.236676,4.29819473349285,0.1218219631181441
9.239056,4.3090910768143385,0.1214875966061111
9.241452,4.320406729016409,0.1211142673268601
9.24384,4.337868453084588,0.12060925762769
9.24622,4.356261342712547,0.1200843461879496
9.248616,4.370510261220812,0.1196589055288273
9.251004,4.3814066045423,0.119319694276942
9.253384,4.388997594505256,0.1190055942810957
9.25578,4.4036658218941005,0.1185336409352784
9.258164,4.42098777633542,0.1180299936328993
9.260544,4.442313932269573,0.1174425448320151
9.262948,4.4645712537635065,0.1168530548254246
9.265336,4.48547810081708,0.1163114978729951
9.267715999999998,4.503963538243655,0.1158420326178683
9.27012,4.525102702722704,0.1153333906769081
9.272504,4.535579737163613,0.1150244022948171
9.274883999999998,4.543123505298325,0.1147731672950117
9.277276,4.544660971193789,0.1146475982969117
9.279664,4.550342408208944,0.1144326650187381
9.282044,4.556815241157019,0.1142174079216004
9.284439999999998,4.564079470038012,0.1140007465851704
9.286824,4.5604020296271415,0.1139915240141761
9.289204,4.559657855522468,0.1139303932009555
9.291607999999998,4.555189019178679,0.113922651678568
9.293995999999998,4.552722283581307,0.1138774754003888
9.296372,4.5511867135437125,0.1138189698305847
9.298768,4.555145589066174,0.1136287148616552
9.301156,4.558964694961773,0.1134479057911269
9.303536,4.567207311230787,0.1131654505604422
9.305948,4.574006905260824,0.1128786021606508
9.308336,4.57722160667861,0.112632220644346
9.310716,4.574709545110864,0.112472124633048
9.31312,4.575550058729894,0.1122323797216783
9.315504,4.582024787535839,0.1118575714132292
9.317884,4.587987659662584,0.1114625468214611
9.320288,4.603029869961636,0.1108999110298877
9.322676,4.620213950633965,0.1102920288703308
9.325055999999998,4.636886174627096,0.1096610787673492
9.327452,4.647831635634698,0.1091207518106174
9.32984,4.656402908843544,0.1085882682451834
9.33222,4.665393490932971,0.1080285511164996
9.334616,4.676525943395674,0.1074150359385633
9.337000000000002,4.6877981654852405,0.1067961607834759
9.339396,4.6962768908954695,0.1062103687446437
9.3418,4.704103989999642,0.1056180954129085
9.344184,4.71393318985023,0.1049958306977429
9.346564,4.721760288954402,0.1044125476025018
9.34896,4.733731359178267,0.1037547156121545
9.351348,4.737414487162745,0.1032528588804019
9.353727999999998,4.735882708840891,0.1028434800676958
9.35612,4.737144427198372,0.1024003541679726
9.358503999999998,4.742410347048685,0.1018907288119745
9.360884,4.744743000592805,0.101426818610382
9.363288,4.74265214376351,0.101060191979247
9.365676,4.745636423613687,0.1006132540532627
9.368056,4.740192991597615,0.100320167484767
9.37046,4.737031199581682,0.0999780863430279
9.372848,4.737454300178001,0.0996059781252795
9.375224,4.74374393338671,0.0991568647119871
9.37762,4.751476588834395,0.0987193771186886
9.380004,4.755856669095305,0.0983509933027286
9.3824,4.762238850102631,0.0979521763829593
9.384796,4.763406124803626,0.0976401870424156
9.387184,4.767227126557095,0.097307243483259
9.38956,4.768766488310424,0.0970233706745777
9.391956,4.766441418197783,0.0967889749222398
9.39434,4.7635572695777,0.0965949306463668
9.39674,4.758251711330619,0.0964606404346614
9.399136,4.756670815322653,0.0962875557840226
9.401524,4.761887617486854,0.0960250990798077
9.434972,4.676369634903456,0.0960197596793484
9.43736,4.678651274903594,0.0959717607627316
9.43974,4.684657577142843,0.095887634901139
9.442136,4.691083188262675,0.0957739123746163
9.444524,4.696717403449588,0.0956591391949534
9.446903999999998,4.699558121957167,0.0955713055785242
9.449304,4.702678379718465,0.095465019399145
9.451688,4.7119447093458735,0.0952666441564146
9.454068,4.7244238445332,0.0950132861824972
9.456464,4.735692274907025,0.0947895638866976
9.458851999999998,4.746169309347933,0.0945644263369954
9.461232,4.759998918975617,0.0942707358580497
9.463627999999998,4.775551090095997,0.0939763069900517
9.466016000000002,4.795526771589793,0.0935929766500619
9.468396,4.816852927523946,0.0931706814039775
9.470808,4.842462824204653,0.0926706629454701
9.473196,4.863928749765668,0.0922341096021773
9.475575999999998,4.880878617154649,0.091829459458072
9.47798,4.8936845134239375,0.0914936310927581
9.480368,4.9034173737601705,0.0912089488133482
9.482752,4.913709312603844,0.090887363142384
9.485148,4.923209855514601,0.0905698036665341
9.487532,4.929916901746022,0.0902779364683324
9.489912,4.937415343910361,0.0899888619641697
9.492312,4.949849153127312,0.0896444447722314
9.494696,4.965495767904178,0.0892482528590993
9.497092,4.977138181188211,0.0889036718877876
9.499484,4.985847328166049,0.0885952061521993
9.501872,4.989900647344995,0.08832459777124
9.504252,4.994373275404522,0.0880264931785799
9.506656,5.000196377904408,0.0876932845061884
9.509044,5.0093720555910695,0.0873049029289926
9.51142,5.013891905478839,0.0869553446350565
9.513824,5.021764330553385,0.0865521642950956
9.516212,5.028705590068152,0.0861559487273238
9.518592,5.037928489583057,0.085724553538886
9.520995999999998,5.051295360217655,0.0852381555984536
9.52338,5.073462029770838,0.0846688462582177
9.52576,5.094697533764244,0.0841022040354396
9.528164,5.114210476264953,0.0835413111377429
9.530551999999998,5.129719217272829,0.0830240446655984
9.532932,5.138290490481674,0.0825774006039428
9.535336,5.144719893317245,0.082158433180035
9.537719999999998,5.148495569100341,0.081749873466297
9.5401,5.144402611524629,0.0814210523630698
9.542504,5.13723661801586,0.0811292072699525
9.544892,5.132072725253509,0.0808143675790875
9.547272,5.127839998050938,0.0804937007974974
9.652408,4.727329371445308,0.0804768285405464
9.654792,4.722441226220939,0.0804660732248587
9.657188,4.718344476929488,0.0804587231672497
9.659576,4.717320763571093,0.0804145771977416
9.661955999999998,4.717088446145615,0.0803737113191831
9.664348,4.721791495772751,0.0802836694099303
