Time,Force,Position
8.547107999999998,2.821682192135276,0.1621596069102155
8.549492,2.855149347027575,0.1621185521177732
8.551876,2.884846513710387,0.1620407426988619
8.554272000000001,2.916220915915521,0.1617272538249596
8.55666,2.9424748554708096,0.1614683337289468
8.559044,2.9710576568544798,0.1609919028361897
8.621147999999998,2.9920041423048187,0.1607899295431387
8.625927999999998,2.996472978648607,0.1607433609935561
8.628319999999999,3.001780432753556,0.1605869025237037
8.630700000000001,3.008019052418284,0.1603971830614327
8.633112,3.014489989508489,0.1602634492021204
8.6355,3.0258962936513063,0.1599389598015032
8.637884,3.0413067992869576,0.1594427646630818
8.64028,3.054715204176192,0.1590285806930445
8.642668,3.073850372050956,0.1584173139077207
8.645048,3.096570432537973,0.1577033351905612
8.647448,3.123434464144684,0.1568071045047308
8.649832,3.154582236497949,0.1557238918816948
8.652216,3.184798843291436,0.1546663910994778
8.709544000000001,3.257694129344911,0.1539055606019315
8.711960000000001,3.263979970837882,0.1536474118746326
8.714348000000001,3.2688227900918774,0.1533999534090384
8.716732,3.2748763141593717,0.1530863861855604
8.719127999999998,3.283583565279339,0.1526955767695628
8.721516000000001,3.2884263845333344,0.1524413089946251
8.723896,3.2963422397203845,0.1520692456955088
8.733460000000001,3.2915485381525023,0.151986908429015
8.735848,3.290385055167247,0.1519615667462066
8.738232,3.294948335167521,0.1517425828814483
8.740628000000001,3.301094407033632,0.1514957689806537
8.743016,3.3057502348325234,0.1513475062415462
8.745396,3.312408163377831,0.1511200472599875
8.747792,3.324001458975752,0.1507145167459735
8.75018,3.338807560133588,0.1501730652583026
8.752559999999999,3.348026667932755,0.1498167859438935
8.75496,3.3571060061050604,0.1494810442122874
8.757344,3.368187445023783,0.1490865040279231
8.759723999999999,3.3771270135692286,0.148786591337229
8.817084000000001,3.3159647927405342,0.148667671336055
8.84338,3.258665107919944,0.1486185165330301
8.845759999999999,3.2584800123227096,0.1484750440157893
8.848156,3.257223981538836,0.1483758792130554
8.850544,3.2562474900086844,0.1482430887586175
8.852923999999998,3.257924725531007,0.148041044336069
8.855339999999998,3.263466392919303,0.1476983857562202
8.857724000000001,3.2743627362407914,0.1471242250393969
8.860123999999999,3.2835365180695835,0.1465988845775812
8.869684,3.2669190993361727,0.146585383884285
8.872072,3.264592133365662,0.1465303696283588
8.874451999999998,3.264918894447625,0.1464085752879011
8.876856,3.265245655529589,0.1462869175710006
8.879244,3.2658519558652737,0.1461322693262904
8.881628,3.2726043280670685,0.1457544215986428
8.884024,3.2784255347090845,0.1454018748416353
8.886412,3.2870402380304355,0.1449716831516049
8.888791999999999,3.296074250232368,0.1444933183482216
8.891188,3.306179197620938,0.1439764209232233
8.893576,3.3153529794497305,0.1434932998370187
8.895959999999999,3.3282514235176355,0.1429069583686031
8.898356,3.343663825011155,0.142285614200815
8.900744,3.356282729825341,0.1417378220244334
8.903123999999998,3.3727660665054997,0.1410793377145063
8.905528,3.386036597625742,0.1405531991096247
8.907912,3.3948836183725706,0.1401957913708797
8.910295999999999,3.407874610239093,0.1396804444012917
8.912692,3.4228677028520327,0.1390853901394942
8.91508,3.4338565939721377,0.1386283456083464
8.917459999999998,3.4461959595326035,0.1381107277643972
8.919864,3.458535325093068,0.1375946929525779
8.922252,3.4731563306536706,0.1369938833857023
8.924636,3.489639667333829,0.1363514420611208
8.927032,3.5046327599467686,0.1357928775240796
8.92942,3.51133791032032,0.1355260170274033
8.931799999999999,3.5223268014404265,0.1351078796487695
9.015428,3.508178014162255,0.1348276743376553
9.017808,3.512321985281949,0.1346959523752949
9.020212,3.517676661215141,0.1345121055343437
9.0226,3.527035538641168,0.1342152284611025
9.02498,3.5382567471867508,0.1338792606099673
9.027384,3.5528305309191093,0.1334230715545651
9.029768,3.5699654939053262,0.1328593482299713
9.032148,3.5841671905853474,0.1323812446636892
9.034552,3.599579592078867,0.131850429716975
9.03694,3.610336165773496,0.1314247631218986
9.039316,3.628309746520874,0.1307872691298291
9.041720000000002,3.64735426245489,0.1301112862267889
9.044108,3.6642569080156298,0.1295100704694329
9.046488,3.683953050255704,0.1288390558240736
9.048892000000002,3.70285779656286,0.1281802568892099
9.051280000000002,3.721762542870016,0.1275287914389413
9.05366,3.7442521817894248,0.126811320957865
9.056064,3.771025561455388,0.1259657198067251
9.058452,3.800732207427546,0.1250508823198919
9.060832,3.824572320787315,0.1242902799177586
9.063228,3.8433372974676105,0.1236660679136622
9.065616000000002,3.855816432654936,0.1232299448186831
9.067996,3.8692267334020394,0.1227773788185408
9.089508000000002,3.870020025192826,0.1225598468767112
9.091912,3.872301665192963,0.1224849193896948
9.094296,3.876585405939517,0.1223625434081531
9.108636,3.883196112656584,0.1222980073677169
9.111016,3.884127278216362,0.1222808898794386
9.11342,3.8909249763885305,0.1221346135467307
9.115808,3.8957205738142826,0.1220358889978398
9.118188,3.9009354801206144,0.1218996487586465
9.120592000000002,3.908292256800224,0.1217021736704383
9.122976,3.9220746445996646,0.1213210098729031
9.12536,3.9420031042652153,0.1207771511825053
9.127764,3.9651443694906825,0.1201441845489438
9.130152,3.9813481669171207,0.1196811401651367
9.132532,3.99662079878378,0.1192382708393628
9.134936,4.010682725836941,0.118837816910443
9.13732,4.024093026584045,0.1184354070989676
9.139704000000002,4.032707729905396,0.1181308526551762
9.1421,4.040670806920689,0.1178218721841834
9.144484000000002,4.046911322443287,0.1175326528982117
9.146868,4.053431377219604,0.1172189987184805
9.149264,4.059299805689864,0.1168958304350796
9.151652000000002,4.063445672667427,0.1165916918452522
9.154032,4.067871078898711,0.1162648438030773
9.156432,4.0773716218094656,0.1158219309586523
9.15882,4.089153804720359,0.1153160573442444
9.1612,4.096419929459222,0.1148765426099862
9.163596000000002,4.110763291623972,0.1142923121847352
9.244812,3.788633091961011,0.1138775651606784
9.247196,3.784443794870944,0.1138414686103781
9.249592,3.786772656699324,0.1136977610886001
9.25198,3.789892914460623,0.1135521245424888
9.254360000000002,3.793664798527979,0.1134140331878786
9.256756,3.8027913585285287,0.1131345296746821
9.259144,3.81699305520855,0.1127285057466747
9.261524,3.829984047075072,0.1123663630407378
9.26392,3.840553629314597,0.1120949648171014
9.266308,3.85163506823332,0.1118512680443587
9.268688,3.863228363831241,0.1116340988739157
9.271092,3.883481688720887,0.1112498605020067
9.27348,3.903735013610533,0.1108772730031597
9.275860000000002,3.923848568873319,0.1105180552807255
9.278256,3.941960023389688,0.1102072831015073
9.280644,3.9637961401451696,0.1098385877867552
9.283028000000002,3.980137811340599,0.1096157369661475
9.285424,3.9918236547371366,0.1094645132113944
9.287812,4.011006044440143,0.1091290266597336
9.290192,4.032190534889567,0.1087531571682403
9.292588000000002,4.052304090152353,0.1084032481514807
9.294976000000002,4.07162624948222,0.1080648125739272
9.297372,4.088154912132753,0.1077718838816033
9.299768,4.103892178850367,0.1074823237153228
9.302156,4.125915287060953,0.1070546096070584
9.304536,4.145516985644541,0.1067104258667172
9.30694,4.16432728829521,0.1063668131566573
9.309328,4.1834171301996,0.1059994543859387
9.311708,4.195429734678102,0.1057652070216644
9.314104,4.201855345797933,0.1056109354158337
9.316496,4.204835833932371,0.1054869681967973
9.318876,4.205302364641195,0.1053805440337345
9.321272,4.202044233110906,0.1053274542901979
9.32844,4.182027017362475,0.1053135832857254
9.357104,4.073048591903121,0.1052840877878873
9.359492,4.06690441589488,0.1052095951040845
9.361872000000002,4.068628873245446,0.1049992188507273
9.364272,4.073146827275346,0.1047509506775095
9.36666,4.077245472424666,0.1045381188772214
9.369040000000002,4.081204347947127,0.1043360611068104
9.37144,4.08944696421614,0.1040389318190644
9.373828,4.1006228467913495,0.103692925788128
9.376208000000002,4.112729894926337,0.1033365837583207
9.378604,4.118830640822074,0.1030912513880978
9.380992,4.120135789292059,0.1029175010283555
9.383376000000002,4.125165600001157,0.102695837105071
9.385776,4.132197511456672,0.1024372191724697
9.388164,4.140160588471966,0.1021656388334762
9.390544000000002,4.148123665487259,0.1018923614250143
9.392952,4.158880239181888,0.1015828213798177
9.39534,4.165772381010543,0.1013326764907223
9.39772,4.174946162839335,0.1010228877058507
9.400112,4.181605987242513,0.1007219115986321
9.402496,4.185751854220078,0.1004343273315707
9.404892,4.186824685264584,0.1002065727056202
9.407284,4.1848244803760375,0.1000419417304431
9.409672,4.177609369181157,0.0999859248488367
9.412048,4.1714651931729145,0.0999055733849258
9.414444,4.165740326045254,0.0997900459738505
9.416828,4.161086394104231,0.0996507693838133
9.419208,4.152288491043515,0.099592993821178
9.421600000000002,4.142279883169301,0.0995693262571453
9.423984,4.130548713802388,0.0995561845223787
9.426364,4.119748709995255,0.0995323352268103
9.428756,4.115886173987151,0.0993924541284952
9.431144,4.1092301412997125,0.0992866687813773
9.43352,4.103645043798911,0.0991578139620215
9.435916,4.09927065111161,0.0989949122598369
9.438304,4.0970381287975846,0.0987869751290282
9.44068,4.094386297602979,0.0986139218508029
9.443096,4.096390294207265,0.0983857655334678
9.44548,4.097183585998052,0.0981919667104868
9.447860000000002,4.106636907080565,0.0978800221590345
9.450272000000002,4.119535351148469,0.0975486395990419
9.452660000000002,4.1396508022691245,0.0970893268983761
9.45504,4.160278110068978,0.0966553262558425
9.457452,4.18104518749569,0.0962064006546167
9.45984,4.195945732310013,0.0958425761436461
9.462232,4.211917212310974,0.0954607938488422
9.464628,4.229890793058352,0.0950513128685012
9.467012,4.24814391305945,0.0946179395076294
9.469392,4.267747507500907,0.0941440757563508
9.471796,4.288282267502143,0.0936612042629208
9.47418,4.312029833063294,0.0931183289858387
9.47656,4.331912966758472,0.0926363273274447
9.478956,4.353798201200066,0.0921260001624639
9.48134,4.371399694895106,0.0916954982562779
9.483716,4.386347461537672,0.0912845012839911
9.486116,4.4014349978070975,0.090867601105303
9.488500000000002,4.419363252584102,0.0903645071512888
9.490884,4.437059189935628,0.0898243224629766
9.493296,4.4574560761678725,0.0892098924954263
9.495684,4.472405738668307,0.0886466284790137
9.498064,4.487262853370124,0.0880370748372164
9.500468,4.497324370646191,0.0874850008140353
9.502852,4.507293340123639,0.0868827075440156
9.505228,4.519963258481806,0.0862071582153407
9.507636000000002,4.538127622400026,0.0854311718042823
9.51002,4.555221051131607,0.0846777918402713
9.5124,4.56579632094474,0.0839731517101605
9.514796,4.578513461131149,0.0832365783312026
9.51718,4.586295234264948,0.0825532674428389
9.519560000000002,4.591143741092551,0.0818983160504846
9.52196,4.593338520867677,0.0812578886444265
9.524344,4.594741904709887,0.0806141671794978
9.526724000000002,4.593491561499624,0.0799806116202117
9.529140000000002,4.598154972729993,0.0792223111648945
9.531524,4.606543046199474,0.0784394957201229
9.533904,4.613068788549398,0.0776722570631804
9.536308000000002,4.611306588659935,0.0770150737402105
9.538696000000002,4.607402518397196,0.0763914480421156
9.541076,4.598143772201264,0.075847107973535
9.543472,4.587674321191833,0.0753254240369569
9.545856,4.572781359808987,0.0748745376581423
9.54824,4.556817463239502,0.0744362621767775
9.550644000000002,4.541365423349217,0.0740213575805029
9.553028,4.521350103458656,0.0736856438439611
9.555408,4.499425230620297,0.0734234006708227
9.557804,4.473635925915962,0.0731905381633799
9.560192,4.453713153824017,0.0729015522153029
9.562584,4.430577576172159,0.0726563510176403
9.564988,4.410375264826495,0.0723824605790134
9.567376,4.39711042127986,0.0720404521244305
9.569756000000002,4.384636973666142,0.071701476752082
9.572152,4.369881886052289,0.0714001318065839
9.57454,4.356057963998212,0.0710908832535474
9.57692,4.341535193809835,0.0708315747142727
9.579324,4.321145891009067,0.0706185857245274
9.581708,4.298474948208162,0.0704430977731965
9.584088,4.27952866764637,0.070247554232253
9.586484,4.258160977457582,0.0701013263550372
9.588872000000002,4.239447014321267,0.069950058127545
9.591252,4.224317943797207,0.0697885861035132
9.593656,4.210911434765841,0.0696267087552144
9.596044,4.199087717600313,0.0694750156721246
9.598424,4.1864726045018665,0.0693166536203579
9.60082,4.176930527336475,0.0691219357664321
9.603204000000002,4.167807759051665,0.0688956798826818
9.703572,4.039314495233733,0.068786395934426
9.705952,4.038802638554535,0.0687592992174436
