Time,Force,Position
8.819916,3.768913743710252,0.162598522008515
8.822316,3.7804579216220606,0.1625124717995922
8.824704,3.7944235091608656,0.1623130106091856
8.827084,3.80373326890078,0.1622538777653145
8.829488000000001,3.813043028640694,0.1621947449214433
8.831872,3.8249139676344655,0.1620046520721191
8.834252,3.843722374427266,0.161580495260639
8.836648,3.864672651593344,0.1610643379685404
8.839032,3.880547792079949,0.1607330356189972
8.841416000000002,3.895771306260497,0.1604090667162929
8.843808,3.907409927828791,0.1601794879723886
8.846195999999999,3.917465757531248,0.1599744467350047
8.848576000000001,3.928080665741148,0.1597102728854688
8.850988000000001,3.934831142085074,0.1595678761234795
8.853376,3.945725589548693,0.1592764575162381
8.855756,3.9518244395865607,0.1591350785259201
8.858156000000001,3.959133994437927,0.1589369738712094
8.860544,3.9664435492892927,0.1587381887583074
8.862924,3.969097276341768,0.158672543652123
8.865328000000002,3.979387319327572,0.1583058746913021
8.874884000000002,3.9866968741789375,0.1581096882485384
8.877264,3.9898624579106112,0.1580622771140168
8.882052000000002,3.999731296157966,0.1579559261121159
8.884432,4.003920593248034,0.1579447943237637
8.886824,4.011322695898017,0.15781697725118
8.889208,4.015651762614946,0.1577919338962106
8.891588000000002,4.020911994891652,0.157741235646391
8.893984,4.030548515713529,0.1575958083243149
8.896372,4.041907598028104,0.1574172983558064
8.898752000000002,4.055129011462234,0.1571861955657864
8.901148,4.0654171585901695,0.1570463009051166
8.903535999999999,4.0787783416511605,0.1568073795845632
8.905916000000001,4.095072791018346,0.1564876318802751
8.908332000000001,4.111646779639253,0.1561409796094509
8.910716,4.132644278633573,0.1556318472023311
8.9131,4.145353835388506,0.1553958866105615
8.915496000000001,4.158203161770299,0.1551450154448768
8.91788,4.177710416697401,0.1547100522018516
8.920259999999999,4.201920721251637,0.1540881949366296
8.922676,4.223057989872817,0.1535660793914412
8.925060000000002,4.240610365881746,0.1531296173224872
8.927444000000001,4.25443807965156,0.1527941704523308
8.929848,4.268685102301956,0.1524217962920772
8.932236,4.28386329051213,0.1520313284987883
8.934616000000002,4.299693105028362,0.151649090308832
8.937012,4.318456185850788,0.1511875094447777
8.9394,4.338429971486714,0.150679735865393
8.941780000000001,4.353887698950608,0.150275599906471
8.944176000000002,4.367622864921804,0.1499064596552311
8.946564000000002,4.381497800519862,0.1495241189528856
8.948944000000001,4.397654376118058,0.1490652570069301
8.951340000000002,4.408875584663641,0.1487385422136986
8.953728000000002,4.41623236134325,0.1485131969067882
8.956108,4.425311699515556,0.1482597433824334
8.958512000000002,4.436113599180558,0.1479847263984682
8.960900000000002,4.45385296664459,0.1475262837395232
8.963276,4.47294280854898,0.1470128227998962
8.965672000000001,4.488587527467978,0.1465619177163489
8.968056,4.500088275267281,0.1462326442331427
8.970436,4.513079267133803,0.1458335744960226
8.972828,4.527932590119883,0.1453940943576059
8.975216,4.541063351613265,0.1449805114576043
8.977596000000002,4.551400616427314,0.1446274798832293
8.980008000000002,4.560946485308444,0.1442863867818757
8.982392,4.571982598256792,0.1438843643476061
8.984772,4.582367084899084,0.1434826975954435
8.987188,4.591820405981597,0.1431022010096465
8.989571999999999,4.603555367064246,0.1426494387270165
8.991952000000001,4.616361263333535,0.142168768749427
8.994356,4.634242296282295,0.1415698168441751
8.996744,4.64877075404428,0.1410750360922252
8.999124000000002,4.66637224773932,0.1404966695761343
9.001528,4.683042575874582,0.1399315009804961
9.003912,4.697198946584229,0.1394020919918175
9.006292000000002,4.702415748748431,0.1390858459428362
9.008688,4.7049788238601575,0.1388163310599764
9.011076,4.706470963785247,0.1385775381317336
9.013456,4.71061683076281,0.1382969110571067
9.01586,4.718906668860066,0.1379129270189245
9.018244,4.730129773263518,0.1374699451699948
9.020628000000002,4.740841020987773,0.1370132100927656
9.023032,4.753414599831583,0.1365197797444972
9.025416,4.765988178675395,0.1360214711147214
9.0278,4.778049900840008,0.1355105083044162
9.030204,4.78517625595201,0.1351115160425452
9.032588,4.78750701363826,0.1348083426498602
9.034968,4.793050576884426,0.134423395024206
9.037372,4.794450169010896,0.1341391283616278
9.03976,4.793987430017811,0.1338892465035944
9.04214,4.785795827292779,0.1337964383527043
9.044536,4.778023533448327,0.1336703055117522
9.04692,4.773324275536932,0.1334719358250993
9.049300000000002,4.772629219118367,0.1331855933394063
9.051704,4.772725558632724,0.1328934769617842
9.054092,4.780038905199828,0.1324278310382285
9.056472,4.786421086207154,0.1319788582184212
9.058876,4.792151640908422,0.131524291253309
9.06126,4.795368238184077,0.1310989657470468
9.063636000000002,4.790855971727785,0.1308258058967419
9.066032,4.782339503778659,0.130639875061595
9.068416,4.771401626202536,0.1305300652269079
9.070796,4.76167445343991,0.1303812130859465
9.073192000000002,4.756603108476176,0.1301522435886205
9.075576000000002,4.750181289072082,0.129971402640526
9.077972,4.7446906352277685,0.1297739442948597
9.080368,4.744786974742123,0.1294794174886831
9.082756,4.739528638323285,0.1293203864755756
9.085136000000002,4.7390658993302,0.1290702273745464
9.087532,4.741117117762729,0.1287949739834519
9.08992,4.747172537688091,0.1284334156109443
9.092300000000002,4.7520172527999565,0.1281077680800961
9.094696,4.755791032725183,0.1278136229004598
9.097084000000002,4.758773416717492,0.127526900780581
9.09948,4.761755800709799,0.1272404785745524
9.101876,4.7638070191423285,0.1269717838783454
9.10426,4.767580799067555,0.126684424625564
9.106640000000002,4.772797601231757,0.1263999038407797
9.109044,4.779597195261794,0.1261080226535786
9.111432,4.793706344143198,0.1257072284401229
9.113812,4.811679924890576,0.1252409661075289
9.116208,4.829001879331894,0.1247609358282999
9.118596,4.842831488959578,0.1243784853333214
9.120976000000002,4.854798767467705,0.12403077190074
9.123372,4.871561643401586,0.1236045749408805
9.12576,4.888184749708604,0.1231868164582879
9.128140000000002,4.901874589709428,0.1228246501869662
9.130536,4.914773033777333,0.122460579707736
9.132920000000002,4.924738211539044,0.1221525034976689
9.1353,4.932049662248279,0.1218786201922729
9.137716,4.936008537770738,0.1216904871425129
9.1401,4.94490278034581,0.1214098420540334
9.245236000000002,4.584931033103249,0.1212320991274189
9.24762,4.573758942243778,0.1212241962668024
9.25,4.570315715116255,0.1210855480925736
9.252396,4.568595049481428,0.1209292655518284
9.254784,4.572601146832131,0.1206779845450323
9.257164,4.570321402689863,0.1205643209981876
9.25956,4.569764220040292,0.1204331363852267
9.261948,4.571209138137138,0.1202614871553043
9.264332,4.576099179219376,0.1200520102961582
9.266728,4.5840622562346685,0.119772077161981
9.269112,4.590814628436462,0.1195273139515827
9.30734,4.566236028545628,0.1194760615721187
9.309736,4.568238129292045,0.1194377941974269
9.312124,4.570939078172763,0.1193456511930049
9.314520000000002,4.576713062986535,0.1191916131903939
9.316916,4.588493350039558,0.118925632500008
9.319300000000002,4.6045573778391375,0.1185636806526778
9.32168,4.61796767858624,0.1182329089361533
9.324084,4.636453116012817,0.117801152880391
9.326472,4.654938553439391,0.1173732281761509
9.328852,4.67142189011955,0.116983120475922
9.331256,4.6896277882924045,0.116572772934435
9.333644,4.707414377584678,0.1161950491584442
9.336024000000002,4.725852593183011,0.115820372249037
9.33842,4.741357542475148,0.1154959596973555
9.340808,4.7552796999014495,0.115177415272426
9.343188,4.772135123633946,0.1148109742090709
9.345584000000002,4.790713108859137,0.1144275746842524
9.417264,4.730245944449006,0.1141099455221101
9.419652,4.729129683291993,0.1140232193333556
9.422032000000002,4.737092760307287,0.1137753384417695
9.424436,4.745847233255499,0.1135258917721641
9.426824,4.756696354748744,0.113295356380301
9.429204000000002,4.771549677734823,0.112999363758421
9.431596,4.78733416628068,0.1126959991346968
9.433984000000002,4.806843317065652,0.1123492994704411
9.436364,4.829705043037398,0.1119333382563036
9.438764,4.860854711248532,0.1113684424062434
9.441152000000002,4.894006480206084,0.1107732890907606
9.443536000000002,4.92995174584297,0.1101516386837641
9.44594,4.9688302777860525,0.1094894843508032
9.448324,5.013435572714664,0.1087580042608671
9.450708000000002,5.064466478763106,0.1079086375172009
9.453112,5.110701787385797,0.1071278063878575
9.455496,5.154283368956014,0.1063755100537283
9.45788,5.199215424966589,0.1055889875768142
9.46028,5.242797006536805,0.1048407698164657
9.462668,5.290662328853576,0.1040058913395627
9.465048,5.334383680050651,0.1032576650890007
9.467444,5.37158687232928,0.102588569355758
9.469832,5.397708625689185,0.1020923623483098
9.472212,5.423598061623613,0.1015625650948908
9.474608,5.444459582706812,0.101059396965507
9.476996,5.461596441550898,0.1006000039461762
9.479376000000002,5.475800034088788,0.1001812901283871
9.481772,5.487489669201064,0.0997772012349637
9.48416,5.495175102820508,0.0994317019594206
9.486540000000002,5.495923068640922,0.0991795705901334
9.488936,5.493737768155139,0.0989637734518366
9.491324000000002,5.488107344683964,0.098766909031302
9.49372,5.4818252949067325,0.0985616704605151
9.496116,5.46995625177083,0.0984091463116771
9.4985,5.452080906395677,0.0983339583055613
9.500884,5.43741836658044,0.0982059835494502
9.503276,5.425689093071397,0.0980428628123706
9.505664,5.413959819562355,0.0978790671279755
9.508048000000002,5.403860559747392,0.0976629524254824
9.510444,5.394972004745927,0.0974215253464216
9.512832,5.387294154557962,0.097154894151867
9.515212000000002,5.384272132168888,0.096847949292635
9.517608,5.387815490526506,0.0964305584530617
9.519996,5.392150244817041,0.0960157625899364
9.522376,5.394994755040358,0.095640147213228
9.524772000000002,5.398630661196592,0.0952649866655211
9.527160000000002,5.404408437726104,0.0948573225435955
9.52954,5.408975509442118,0.0944748410613004
9.531956,5.412751185225211,0.0940899050900761
9.53434,5.419320357687641,0.0936793223111963
9.53672,5.429893731642906,0.0932206106052475
9.539116,5.44018756634445,0.0927786490465864
9.541504,5.449410465859354,0.0923554506029771
9.543888,5.457282890933899,0.0919623921703812
9.546284,5.470230452687917,0.091506213474776
9.548668,5.478102877762463,0.0911134100807342
9.551052000000002,5.481831331717314,0.0907784927690141
9.553448,5.483278145672028,0.0904855891038112
9.555832000000002,5.481092845186246,0.0902671382401248
9.558232,5.476765674327188,0.0900820529497768
9.560628,5.4693654675350745,0.0899365799717406
9.563012,5.460102929623404,0.0898058471365331
9.565396,5.45121247876407,0.0897019102315605
9.567792,5.4403199271583205,0.0896202383889596
9.57018,5.439857188165235,0.0894004665771562
9.57256,5.437671887679453,0.0891854748965138
9.574952,5.432273781633756,0.0890164437476793
9.577336,5.430879877080892,0.0888035921934974
9.579732,5.431348303647586,0.0885766201621923
9.582128,5.430094168721583,0.0883541291373029
9.584516,5.423764897116107,0.0881906155735198
9.586896,5.419158187003328,0.0880220672135004
9.5893,5.414411707263688,0.0878619088460542
9.591688,5.41581129939016,0.0876278848267818
9.594068,5.4107852803968,0.0874845121456606
9.596464,5.412417189948748,0.0872860332255002
9.598852,5.414840495433615,0.0870882026184874
9.601232,5.413399369052509,0.0869241667402092
9.603628,5.416241983417955,0.0866972705631039
9.606012,5.415871792223487,0.0865162354068529
9.608408,5.4161532273350765,0.0863447267197217
9.6108,5.417086288752724,0.0861840911971777
9.639468,5.327609430646865,0.0861667318859875
9.641852,5.321278263183521,0.0861498541313415
9.644232000000002,5.31336430385434,0.0861280463397461
9.646636,5.309082458965655,0.0860361109458311
9.649024,5.315742283368833,0.0858339658255256
9.651404,5.323612812585508,0.0856112174887639
9.653804,5.338420809601214,0.0853220170275726
9.656188,5.3525771803108615,0.0850200921670586
9.658572,5.363148658408255,0.0847330504663705
9.660968,5.36813314314698,0.0844805471216302
9.663356,5.375259498258981,0.0842002223942224
9.665736,5.380663291878286,0.083920208420892
9.668132,5.386486394378173,0.0836150384862033
9.67052,5.393100892810977,0.0833133788979689
9.67292,5.408654959789226,0.0829223221480552
9.675316000000002,5.424348796394336,0.0825230855347293
9.677700000000002,5.438599610760469,0.0821132375946996
9.680084,5.455923461059658,0.0816727253084794
9.682480000000002,5.4711054409855695,0.0812622247227301
9.684864,5.4870788168444005,0.0808520136998002
9.687248,5.496394264157922,0.0804913434988061
9.689644,5.509574143337416,0.0801020262540727
9.692032,5.521962626583994,0.0797128782358316
9.694412,5.530998534643796,0.0793758702869474
9.696808,5.531374413411872,0.0791064160457197
9.699196,5.526395616246755,0.0789041986276344
9.701592000000002,5.517831926469385,0.0787153827877536
9.703988,5.514343373371487,0.0784769453516001
9.706376000000002,5.512717151393145,0.0782269037870792
9.708756,5.517097231654055,0.0779201166879152
9.711152000000002,5.515750548929435,0.0776514032850302
9.713536,5.520410168444065,0.0773267384236847
9.71592,5.526792349451392,0.0770022623568657
9.718316000000002,5.530520803406244,0.0766843573111607
9.720704,5.532526695868399,0.0763721933799881
9.723084,5.534672357957415,0.0760522884854396
9.725484000000002,5.534676149673153,0.0757572029003165
9.727868,5.52974457433628,0.0755019212640923
9.730252,5.526815099745823,0.0752295085196068
9.732656000000002,5.527098430715282,0.0749201356361339
9.73504,5.532317128737353,0.0745710655096858
9.737424,5.532460690079953,0.0742692330060222
9.739820000000002,5.530182841795553,0.0740075466884197
9.742208000000002,5.526973827951376,0.0737490541644876
9.744588,5.528560411532951,0.0734604918548996
9.746984,5.534430735861079,0.0731214318338016
9.749372,5.53909035537571,0.0728028943241201
9.751752,5.537603903024229,0.0725426192390849
9.754152,5.539330256232662,0.0722464813315578
9.756536,5.540916839814237,0.0719598295114616
9.758936000000002,5.547299020821564,0.0716436965831688
9.761332,5.552470497015393,0.0713498234483234
9.76372,5.554708706903025,0.0710765404507137
9.766100000000002,5.5586694782833534,0.070802778947643
9.768504,5.55741534335735,0.0705799382268268
9.770892,5.555230042871569,0.0703606728910759
9.773272000000002,5.55718871350548,0.0701029256273093
9.775668,5.563151585632226,0.0698150835165709
9.778052000000002,5.564318860333222,0.0695523839848082
9.780432,5.56255286872802,0.0693091541915644
9.782836,5.55971594193618,0.0690778432169655
9.78522,5.559020885517618,0.068823109497095
9.7876,5.560188160218612,0.0685605071680376
9.790004,5.566290801972219,0.068265689751814
9.792392,5.569180638165909,0.0680056219179779
9.794772000000002,5.570999539172961,0.0677576597707318
9.797172,5.571887274620234,0.0675119105930437
9.79956,5.576639441933482,0.067244222199129
9.801940000000002,5.577107868500175,0.0670215807702864
9.804336,5.579578395813285,0.0667866514441068
9.806724,5.580186592006838,0.0665582946123262
9.809104,5.579072226707694,0.0663284931823312
9.811508,5.579820192528108,0.0660927161988243
9.813896,5.581639093535159,0.0658468377519727
9.816276000000002,5.585320325661767,0.0655932329705038
9.818672,5.589792953721294,0.0653443149073833
9.82106,5.589842071407406,0.0651464063374471
9.823440000000002,5.586818153160463,0.0649731448698234
9.825836,5.589660767525911,0.0647667611146258
9.828224000000002,5.592363612264498,0.0645676978136549
9.830604,5.59292458662981,0.0643893216263709
9.833008,5.592833934689062,0.0641981542939039
9.835396,5.595024922748451,0.0639791860829028
9.837780000000002,5.594142874874787,0.0637848519690785
9.840176,5.598615502934313,0.0635409703424368
9.842560000000002,5.605881627673176,0.06329149601736
9.84494,5.618083119464648,0.063016051476534
9.847344,5.63163508569648,0.0627184611397899
9.849732,5.64732892230159,0.0624006647010709
9.852112000000002,5.653012255174615,0.0621417185246511
9.854516,5.659486983980558,0.0618880218103611
9.856904,5.665961712786501,0.0616340350013942
9.859284000000002,5.672855750473025,0.0613591163407607
9.861688,5.681891658532827,0.0610680226790632
9.864072,5.695071537712322,0.060748207659499
9.866452000000002,5.708670725772398,0.0604074369732562
9.868860000000002,5.728415985698585,0.0600273201233932
9.871244,5.745088209691716,0.0596645405084771
9.873628,5.757336923311434,0.059346954845893
9.876024,5.771727507304427,0.0590117178022475
9.878412,5.788120192043838,0.0586643444649092
9.880792,5.804884963835586,0.0583454210067903
9.883196000000002,5.81750576450764,0.0580568666835734
9.885584,5.828264234060139,0.057771333991672
9.887964,5.8307347613732485,0.0575449480201084
9.89036,5.829480626447245,0.0573262852116277
9.892744,5.823151354841769,0.0571381820561936
9.895124,5.8114674073031,0.0569943200393422
9.897532000000002,5.8007146253242095,0.0568486842376505
9.899916,5.800903512637182,0.0566487457351539
9.9023,5.804025666256351,0.0564381756919109
9.904696,5.808870381368215,0.0562322854432524
9.907084,5.810222751666444,0.0560671432965364
9.909464,5.806080676404618,0.0559529900684127
9.91186,5.796863464463322,0.0558674109626499
9.914248,5.788018339574364,0.0558092292724612
9.916632,5.772375516513236,0.0557738088440833
9.919028,5.763670161251135,0.0557079283348718
9.921412,5.758596920429532,0.055594816466671
9.923796,5.753244140354209,0.0554962735134849
9.9262,5.748822525838664,0.055396667309795
9.928584,5.7465427816963945,0.0552808360716976
9.930964,5.745333972740766,0.0551561999154725
9.933368000000002,5.746778890837611,0.0550352928685055
9.935756,5.7499463704271525,0.0549180200893605
9.938136,5.751623605949475,0.0548304926116611
9.940532,5.753021302218077,0.0547569934863215
9.94292,5.76056507035279,0.0546471463949804
9.9453,5.767829299233783,0.0545525598220834
9.947696,5.77188072255486,0.0544841379432177
9.950084,5.770065613263546,0.05443669048749
9.952464,5.768250503972234,0.0543893665230809
9.954864,5.768577265054198,0.0543253687529218
9.957248,5.768392169456963,0.0542400265066124
9.959628000000002,5.768067304232869,0.0541614509187335
9.962032,5.766671503822136,0.0540914227941277
9.96442,5.769791761583434,0.0540231562148438
9.9668,5.767976652292121,0.053975093427257
9.971592,5.755499412962664,0.0539601264108059
9.973972,5.74753823180524,0.0539469534878249
9.976368,5.738506115461177,0.0539416840159614
9.978756,5.733478200609948,0.0539180601019107
9.981136,5.725796558706245,0.0538897079798298
9.98354,5.722678196802815,0.0538145698210226
9.985928,5.727196150832715,0.0536769279191062
9.988312,5.73641715448975,0.0534864673906448
9.990708,5.745638158146785,0.053298828530974
9.993096,5.752345204378207,0.0530990107523935
9.995476,5.760542494676848,0.0528719830599239
9.997872,5.7736751520281,0.0526279076285132
10.00026,5.780289650460904,0.0523862570897521
10.00264,5.785972983333929,0.0521450362265743
10.005044000000002,5.796451913632706,0.0518941455174579
10.007432,5.8093522535584805,0.0516134012189758
10.009812,5.822951441618556,0.0512978690162715
10.012212000000002,5.831103405946822,0.0509772014694581
10.014600000000002,5.842468175835003,0.0506339316588196
10.01698,5.851970614603628,0.0502892785682364
10.019380000000002,5.8656170244919466,0.0499204467465609
10.021768000000002,5.877912959939907,0.0495748667713707
10.024148,5.885273528335256,0.0492439147521235
10.026544,5.883694528185157,0.0489437537606648
10.028932,5.88211552803506,0.0486417337920096
10.031316,5.8765323263921285,0.0483555236724598
10.265476,1.700817661009542,0.0482653688431966
