Time,Force,Position
11.039616000000002,5.601682277547331,0.1536053288379496
11.042000000000002,5.598750907099005,0.1535221640618806
11.044404,5.600894673330151,0.1533235819072121
11.046788,5.601827734747799,0.153162699671127
11.049172000000002,5.60089846504589,0.1530358534599485
11.051568,5.598758490530481,0.1529454810250038
11.053952,5.595919667880774,0.1529038654964678
11.056336000000002,5.596386198589598,0.1528225618976976
11.058732,5.5961538811641205,0.1527904754758384
11.06112,5.601368787470455,0.1526649773062126
11.0635,5.605652528217009,0.1525576313038735
11.065896000000002,5.612217908963701,0.1523866626682211
11.068284000000002,5.622787491203226,0.1521282495222249
11.070668,5.6398752323612,0.1517522489096404
11.073064000000002,5.655240412026476,0.1514028744006792
11.075452000000002,5.6672530165049775,0.1511441766867648
11.077848,5.687134254342286,0.1507278410871822
11.080244,5.707946657739372,0.1502962564966779
11.082636,5.732763262629293,0.1497835950556838
11.085016,5.757160558638632,0.14930302261269
11.087412,5.779415984274695,0.1488739355646612
11.0898,5.799669309164341,0.1484904277833572
11.092184,5.818851698867347,0.1481390296478291
11.09458,5.834588965584962,0.1478300730726732
11.096968,5.856472304168688,0.1473946084327705
11.099348,5.878215873125552,0.1469654772514528
11.101744,5.90396364357525,0.1464576380003522
11.104132,5.930922118838447,0.145918184670277
11.106516,5.961233169288421,0.1452965414150647
11.108912,5.9878195574992805,0.1447444881276209
11.111296,6.010541513844167,0.1442596603322432
11.113680000000002,6.031261369442636,0.1438152603088423
11.116076,6.053843556160663,0.1433497944627824
11.11846,6.073492476572493,0.142944432790639
11.120844000000002,6.094072562544103,0.142526261744503
11.12324,6.11679451888899,0.142060781644692
11.125628,6.131647841875068,0.1417432523584509
11.128012000000002,6.142916272248895,0.1414735190434314
11.130408,6.151251436316525,0.1412583333660339
11.132792000000002,6.160005909264736,0.1410179381588471
11.135192,6.171181791839945,0.1407143109727414
11.137588,6.186222106281129,0.1403495456347994
11.139976,6.1992603199758936,0.1400233178317399
11.142356,6.216954361469552,0.1396272986595306
11.144752,6.229992575164317,0.1393061946859841
11.14714,6.244241493672582,0.1389534704970469
11.14952,6.256767850688149,0.1386232088888157
11.151916,6.269154438076857,0.1383036754567256
11.154304,6.280749629532646,0.1379921830081721
11.156688,6.2914136554286575,0.1376935460521394
11.159084,6.309154918750559,0.1372709823094272
11.161472,6.331971318751931,0.1367626635536029
11.163856,6.349060955767774,0.1363430638424184
11.16626,6.364707570544639,0.1359249530523993
11.168648,6.379562789388588,0.1355130098791073
11.171032,6.391344972299481,0.1351547999205226
11.173436000000002,6.4043378600238725,0.1347648499464459
11.175820000000002,6.422917741106935,0.1342987838573848
11.178204,6.43949552144358,0.1338649884415063
11.180600000000002,6.457004467340005,0.1334226616370935
11.182988000000002,6.469298506930096,0.13307502564897
11.185368,6.475726013907796,0.1328216364119736
11.187764,6.482433060139217,0.1325519529332756
11.190152,6.490071271930415,0.1322727893979574
11.192532,6.496359009281256,0.1320305371222562
11.194932,6.507721883311568,0.1317063338613979
11.197316,6.517222426222324,0.1314071027441163
11.1997,6.522718767640245,0.1311714251523123
11.202096,6.525002303498253,0.1309964064536854
11.204484,6.529427709729536,0.1307813041092004
11.206864,6.529848914467986,0.1306316933595866
11.20926,6.527476622527101,0.1305182155445164
11.211648,6.526966661705772,0.1303812046378084
11.214028,6.527108327190503,0.1302484432537818
11.216424,6.527110223048372,0.1301237438859934
11.218812,6.531535629279655,0.1299131517320627
11.221192000000002,6.535029869951159,0.1297132361435293
11.2236,6.534659678756691,0.1295681878588027
11.225984,6.535500192375721,0.1293949905476667
11.228368,6.532616043755637,0.1292681627593655
11.268996,6.395483605082515,0.1291149825329349
11.27138,6.38971151612661,0.1291102751913153
11.273776000000002,6.385661988663401,0.129090590342204
11.278544,6.379657582282019,0.1290564069824212
11.280944000000002,6.384268084110536,0.1289190711964384
11.283332,6.39795792411136,0.1286429667555544
11.285712,6.416443361537937,0.1283032398190274
11.288108,6.43748997821837,0.1279044163663108
11.290496,6.466544997884473,0.1273837954363285
11.29288,6.493877456057876,0.1268811882482441
11.295276,6.518276647925085,0.1264217525193878
11.297664,6.542955379046017,0.1259495429178853
11.300048,6.567122253487747,0.1254661840612784
11.302444,6.592360063116118,0.124963488120358
11.304832,6.620391369423824,0.1244237083299685
11.307216,6.647910819052331,0.1238738601359263
11.309612,6.672077693494063,0.1233898997384426
11.312,6.69917783424199,0.1228681096207263
11.314384,6.727348910176556,0.122330300319579
11.316788,6.749234144618149,0.1218977223582171
11.319176000000002,6.768186112753548,0.1215023855725888
11.321560000000002,6.788348785702445,0.121084860394971
11.323956,6.810932868278341,0.1206208265455352
11.326344,6.834076029361679,0.1201304164639265
11.328728000000002,6.858290125631654,0.1196321476196712
11.331124,6.873424883729323,0.1192637583367357
11.333516,6.886417771453712,0.1189315761856251
11.335896000000002,6.898851580670664,0.1186321842573901
11.338292,6.909423058768056,0.1183550119290775
11.34068,6.921065472052089,0.1180626042277677
11.343064000000002,6.937783022015595,0.1177051274150552
11.34546,6.950636140113127,0.1173910336964459
11.347848,6.964280654143576,0.1170761895390559
11.350232000000002,6.980067038547303,0.1167308829302732
11.352628,6.998414602204887,0.1163338677963888
11.35502,7.018484727355168,0.1159290445670325
11.357404,7.0389741613860295,0.1155015121683353
11.3598,7.057601264297334,0.11509442777277
11.362188,7.073946727208503,0.1147265228709222
11.364568000000002,7.092993139000388,0.114297349510046
11.366972,7.119116788218163,0.1137802175458126
11.36936,7.141096466316244,0.1133204659746425
11.37174,7.157069842175071,0.1129355659060564
11.374144,7.17248413952646,0.1125815916557749
11.376532,7.18082119945196,0.1123165652868048
11.378912,7.192650604191096,0.1119899030483246
11.381316000000002,7.204107921877895,0.1116437666147084
11.383704000000002,7.210257785459744,0.1113338085872129
11.386084,7.2111927427352605,0.1110936988118385
11.388488,7.206773024077586,0.1109311888383511
11.390872000000002,7.200211435046633,0.1108004118826119
11.393256,7.201518479374488,0.1105822289991481
11.395652000000002,7.200311566276728,0.110374859571735
11.398036,7.194169286126356,0.1102226275358229
11.400416,7.1829518692965095,0.1101322078319064
11.402820000000002,7.166799085414052,0.1100967527010113
11.405208000000002,7.15451073339757,0.1100207662265844
11.407588,7.139940741380949,0.1099820069654124
11.41476,7.086547022680968,0.1099250156876857
11.417164,7.070254469171651,0.1098933306191186
11.419548,7.056475873087948,0.1098517815851607
11.421932000000002,7.041905881071329,0.1098108276339634
11.424328,7.029617529054844,0.1097328404430473
11.426712000000002,7.015978702598003,0.109683324352426
11.429092,7.000709862447081,0.109676772896269
11.431488000000002,6.991167785281691,0.1096144448305896
11.433876,6.988563175915328,0.1094745575065577
11.436256,6.993315343228576,0.1092359291645644
11.438652,6.99406330904899,0.1090437084919907
11.441044000000002,6.987873807070374,0.108928887885148
11.443424,6.984989658450292,0.1088032487806031
11.44582,6.983828071322906,0.1086681335946807
11.448208,6.9882534775541885,0.1084853572330997
11.450588,6.996543315651446,0.1082631263686619
11.452984,7.001760117815647,0.1080801327140529
11.455372,7.009398329606846,0.1078529754013892
11.457752,7.01927095956994,0.1076302230864285
11.460148,7.032216625466089,0.1073706944016167
11.462536,7.048886953601349,0.1070802224702795
11.46492,7.062484245803557,0.1068302898845277
11.46732,7.076640616513204,0.1065531300972341
11.469708,7.088655116849574,0.1063044987054339
11.472092,7.104394279425058,0.1060274689823102
11.474488,7.12213554274696,0.1057290919696568
11.476876,7.145231482002054,0.1053601754623277
11.479256,7.16632532051073,0.1050158221175601
11.481656,7.184765431966932,0.1046899232645271
11.48404,7.1992013419303,0.1044089210730222
11.486424,7.214056560774247,0.1041061504536818
11.48882,7.229051549245057,0.1037950009901822
11.491208,7.241672349917112,0.1034863744184965
11.493588,7.258576891335719,0.103123856434475
11.495984,7.272176079395795,0.1027718877111209
11.498372,7.285403180403533,0.1024018872816449
11.500756,7.2961163239856575,0.1020384454427017
11.503152,7.307760633127559,0.1016696616002395
11.505536,7.319824251150042,0.1012826003680909
11.507920000000002,7.330305077306687,0.1008981499084175
11.510316,7.337480550104801,0.1005215811220445
11.5127,7.338137863984467,0.1001899735219349
11.56288,6.831788028259472,0.0999912675867313
11.565264,6.826388026355905,0.0999831112435554
11.56766,6.828716888184285,0.0999090245251213
11.570048,6.836912282625057,0.0997823036458883
11.572428000000002,6.852976310424636,0.0995835690133349
11.574828,6.877048741209882,0.0993062061722868
11.577216,6.904985603861101,0.0989969989190484
11.579596000000002,6.939068538378431,0.0986241835820295
11.581992,6.975153573642177,0.0982304495844355
11.58438,7.008445112226588,0.0978561586786556
11.586764000000002,7.04280758599764,0.0974690287121005
11.58916,7.0768905205149695,0.0970961914890405
11.591548,7.1109734550322985,0.0967241485243736
11.593928000000002,7.145847785482546,0.0963520171507228
11.596328,7.181141424813375,0.0959625431427823
11.598716,7.216202746718726,0.0955462306322157
11.6011,7.250193133437437,0.0951425674335623
11.603496,7.283811433103813,0.0947191139996243
11.605884,7.321061847210684,0.094240892378799
11.608268,7.355518764638221,0.0937857979565911
11.610664,7.382526357587531,0.0933843028375884
11.613052,7.404366266058751,0.0930033476175698
11.615432000000002,7.424111525984937,0.0926125722099694
11.617832,7.442273994045287,0.0922243760280612
11.62022,7.457642965426302,0.0918572912118983
11.622600000000002,7.468076569754707,0.0915326056543319
11.625,7.477718778150193,0.0912091890627387
11.627388,7.48084282762723,0.0909241193628101
11.629784,7.485037812290904,0.0906281809530485
11.632180000000002,7.494307933634053,0.0902884671951054
11.634568000000002,7.505580155723618,0.0899339634536558
11.636948,7.514478190014428,0.0895752024911872
11.639344,7.522724597999179,0.0892092074677444
11.641732,7.5295279837449565,0.0888341932439385
11.644116,7.533398103184537,0.0884807641802385
11.646512,7.537128452997259,0.0881333024181132
11.6489,7.543559751690698,0.087739228605834
11.65128,7.549571741503557,0.0873633369568103
11.653684000000002,7.547295789077027,0.087063897894109
11.656072000000002,7.545299375904218,0.0867522875287589
11.658456,7.542092257917909,0.0864563010091524
11.660852000000002,7.536743269558324,0.0861814946193405
11.663240000000002,7.526039605265547,0.0859617434919005
11.66562,7.511191969853076,0.0857797571485244
11.668020000000002,7.491129428134271,0.0856469844422928
11.670408000000002,7.472277591228966,0.0854960997856202
11.672788,7.451283883950383,0.0853669857866234
11.675184000000002,7.432804134097415,0.0852351890344519
11.677572,7.412462053124893,0.0851125180869991
11.679952,7.387836231405813,0.0850334549020863
11.682352000000002,7.360137373753679,0.0849802474288396
11.684736,7.337094343900437,0.0849023673362034
11.687116,7.314702940353253,0.084831641091464
11.689512,7.294825494231683,0.0847588312265033
11.6919,7.276670609602808,0.08468260387571
11.69428,7.26088991277269,0.084610856534529
11.69668,7.242408267061853,0.0845848213469868
11.699068,7.228861988403628,0.0845231812576436
11.701448,7.224395047917708,0.0843901495329734
11.703844,7.219369028924349,0.0842817752848012
11.706232,7.218486981050683,0.0841368634088695
11.708612000000002,7.223191926535687,0.0839656737701532
11.711012,7.235346196498919,0.0837595813358945
11.713396,7.251364898328123,0.0835295288432035
11.715780000000002,7.275531772769853,0.0832341604692977
11.718176,7.301560978331142,0.0829327486897606
11.720564,7.32772995351929,0.0826249304026177
11.722944000000002,7.356180568707577,0.0822926584846681
11.72534,7.388495615761835,0.0819401700935827
11.727728,7.422952533189372,0.0815677724572358
11.730112000000002,7.459411551363324,0.0811820147109417
11.732508,7.495730799910416,0.0808068654643137
11.734896,7.533120983644149,0.08042337379614
11.737276,7.5707907066316,0.0800306560840451
11.739676,7.606458328872636,0.0796509765664863
11.742064,7.642685029621112,0.0792513404308537
11.744444,7.681193370369725,0.0788270004780821
11.74684,7.713974948132809,0.0784350168232619
11.749228000000002,7.74168138921642,0.0780831659109711
11.751608,7.770738304740388,0.0777112703239571
11.754008,7.800726385824138,0.0773392279283731
11.756396000000002,7.827920970228551,0.0769809186422224
11.758776,7.849808100528014,0.076634422788747
11.761172000000002,7.871555461200617,0.0762954192177898
11.763560000000002,7.890229785940165,0.0759819316891196
11.76594,7.904760139560019,0.0756997271695483
11.768340000000002,7.918871184299292,0.0754341017676406
11.770728000000002,7.929629653851791,0.0752023840957206
11.773108,7.935592525978537,0.0749937678067791
11.775508000000002,7.941834937359003,0.0747748204688832
11.777896000000002,7.944073147246635,0.0745797811453477
11.78028,7.942446925268295,0.0744034123821084
11.782676000000002,7.939889537730176,0.0742304951770033
11.785064000000002,7.935050510191918,0.0740808909092042
11.787448,7.934355453773358,0.0739017912973181
11.789844000000002,7.92937665660824,0.0737577752867386
11.792228,7.922907615375904,0.0736395028127703
11.794612,7.921234171569321,0.073500432285203
11.797012000000002,7.921283289255433,0.0733609338372445
11.799400000000002,7.919050766941408,0.0732443508804098
11.80178,7.915467770187024,0.0731478763216338
11.804180000000002,7.909603133432503,0.073073917676419
11.806568000000002,7.90411058373032,0.0730191771087881
11.808948,7.896755702908579,0.072970304299147
11.811344000000002,7.886327786153783,0.0729414053062532
11.813736000000002,7.879904070891821,0.0728893869100079
11.816116,7.879905966749691,0.0727866324404798
11.818516,7.88004763223442,0.072678072174087
11.820904000000002,7.882843024771623,0.0725663904332128
11.823284,7.885219108428247,0.0724718669285634
11.825680000000002,7.890807997644786,0.0723518666642245
11.828064,7.89919038354066,0.0722233530043623
11.830444,7.908783474250033,0.0720816088139762
11.83286,7.923731240892599,0.0718996339073203
11.835244,7.937468302721666,0.0717326705923256
11.837628000000002,7.953347234924011,0.0715490875477057
11.840024,7.968574540820297,0.0713568825841848
11.842412,7.978586940410251,0.0712005882284928
11.844792000000002,7.98622515220145,0.071035782530224
11.847208000000002,7.995074068806148,0.0708572586291468
11.849592,8.003271359104787,0.0706707731592987
11.851972,8.01575239014998,0.0704520393242984
11.854368,8.029583895635536,0.0702140116338315
11.856756,8.047559372240782,0.0699505909653726
11.859136,8.065674618472888,0.0696803713717598
11.861532,8.08099636802566,0.0694188690278692
11.86392,8.090172045712322,0.0691963801781469
11.8663,8.101349824145402,0.0689638239984544
11.868696,8.11252760257848,0.0687321031323841
11.871084,8.119840949145583,0.0685150974812174
11.873464000000002,8.127945691645605,0.0683018217623652
11.875864,8.13525903821271,0.068086051997525
11.878252,8.142013306272375,0.0678927272987167
11.880632000000002,8.14047963209265,0.0677504725006962
11.883044000000002,8.13736316604709,0.0676020831257892
11.885432000000002,8.134106930374672,0.0674590779130302
11.887828,8.134203269889026,0.0672881922035062
11.890224,8.135510314216882,0.0671037426714447
11.892612,8.139471085597211,0.0669180336948326
11.894992000000002,8.143292087350678,0.0667378628772735
11.897396,8.147252858731006,0.0665526185760668
11.899784,8.14907175973806,0.0663829520294714
11.902164,8.15168205667803,0.0662168357384634
11.904564,8.14800651212503,0.0660898712615504
11.906952,8.146472837945305,0.0659478724724064
11.909328000000002,8.146801494885139,0.0658018705015138
11.911732,8.146338755892053,0.0656521431038501
11.91412,8.144013685779411,0.0655065039810246
11.9165,8.139034888614296,0.0653613608476616
11.918896,8.13820006256887,0.0651920056283339
11.921284,8.138296402083228,0.065021383748403
11.923664000000002,8.138392741597583,0.0648508812589195
11.92606,8.13797722443274,0.0646666973494526
11.928448,8.144499175066926,0.0644532643124558
11.930828000000002,8.15167275200717,0.064248597617745
11.933232,8.160057033760916,0.0640321169413949
11.935616,8.167742467380357,0.0638433482166779
11.937996000000002,8.179432102492633,0.0636378845267305
11.940392,8.19019057204513,0.0634348422737358
11.942776000000002,8.201088811224489,0.0632269027279299
11.945176,8.213569842269683,0.0630268963731739
11.947572,8.226330412568599,0.0628169810643027
11.949956,8.239650061374954,0.0625876508407247
11.95234,8.258324386114502,0.0623246026672423
11.954736,8.278861041973606,0.0620600426147616
11.957124,8.295533265966737,0.0618066731959275
11.959504,8.316069921825841,0.0615428131196404
11.961904,8.338468908804503,0.0612766365644208
11.964292,8.362869996529582,0.0610026092902598
11.966672,8.382195947575187,0.060750897416853
11.969068,8.395655366008404,0.060517924066459
11.971456,8.410045950001397,0.0602842974730232
11.973836000000002,8.420013023620976,0.0600811767332102
11.976232,8.42732637018808,0.0598783110641434
11.97862,8.435850421568682,0.0596644004641146
11.981000000000002,8.440370271456455,0.059465963296869
11.9834,8.44293524242605,0.0592413968319885
11.985788,8.438702515223476,0.0590359688867881
11.988172000000002,8.434469788020904,0.0588305751427127
11.990568,8.431447765631832,0.0586140738983493
11.992956,8.422978519510947,0.0583992895316791
11.995352,8.415580208576701,0.0581783933930588
11.997748,8.407622819135016,0.0579781174091245
12.000136,8.396732163387135,0.0577862127373364
12.00252,8.383839406892838,0.0576016356138304
12.004924,8.378955053384207,0.0573891614037741
12.007308000000002,8.37299976468894,0.0571833381060913
12.009692,8.36825518080717,0.0569673558086771
12.012096,8.364441762485178,0.056750754864662
12.01448,8.366494876775578,0.0565185028534781
12.016864000000002,8.376696163678504,0.0562549313428352
12.01926,8.387176989835151,0.0559827549477251
12.021644000000002,8.404223196738489,0.0556709437127019
12.024028,8.420198468455187,0.0553652344185528
12.026424000000002,8.433240473865691,0.055067118463185
12.028812000000002,8.45121784632881,0.0547555696736302
12.031192,8.466214730657486,0.0544840707237472
12.033596,8.487078147598552,0.0541982898898904
12.035984,8.510874830845816,0.0539073482344729
12.038364,8.532529643719801,0.0536286245942482
12.040768,8.556698414019404,0.0533564965340546
12.043156,8.577374839505367,0.0531111243627133
12.045536000000002,8.596049164244915,0.052872093597339
12.047932,8.613233244917243,0.0526528678332197
12.05032,8.630277555962714,0.0524389745758346
12.052700000000002,8.638242528835876,0.0522557087315662
12.0551,8.644345170589483,0.0520738455790022
12.057488,8.646164071596534,0.0519139214205053
12.059868000000002,8.64570133260345,0.0517697897878693
12.062264,8.645518132864083,0.0516166961020604
12.064652,8.642261897191664,0.0514755260245619
12.067036000000002,8.63565308633247,0.051354696526945
12.069432,8.626483096219415,0.0512587772194307
12.07182,8.61917543722592,0.0511620122791289
12.0742,8.613310800471398,0.0510787271576557
12.076596000000002,8.602510796664264,0.051006520972363
12.078984000000002,8.596134303230544,0.0509087706686417
12.081364,8.586824543490629,0.0508167138411742
12.083760000000002,8.56964615039191,0.0507410175921643
12.086144,8.55125705247969,0.0506748291741101
12.088528,8.535009824940747,0.0505983038584129
12.090932000000002,8.520252841469024,0.0505018281262183
12.093320000000002,8.50577539725102,0.0503953485168268
12.0957,8.493719362660014,0.05026868632874
12.098096000000002,8.48087193213609,0.0501371223105481
12.100484000000002,8.470026602358583,0.0499993542570979
12.102864,8.457970567767576,0.0498710320689672
