Time,Force,Position
10.75234,3.3507331697026403,0.1618656818272333
10.754728,3.364186900562248,0.1616320754786242
10.757108,3.3797825017951326,0.1613093154630456
10.759508,3.395378103028018,0.1609848035913415
10.761896,3.4135348835147603,0.160524466058729
10.764276,3.4351840088151397,0.1598879178624371
10.766676,3.4608373356083515,0.1590855686684545
10.769064,3.487561597588202,0.1582513889667743
10.771444,3.5116321325155786,0.1574969408573085
10.77384,3.5301156740842847,0.1569316811021111
10.776228,3.5487389852798508,0.1563554031987019
10.778612,3.566570900542499,0.1557998502584127
10.781008,3.578815822446477,0.1554231005163543
10.783396,3.5949251762164294,0.1549183002828884
10.78578,3.6154580403597953,0.1542219191550676
10.788176,3.6331974078238254,0.1536264851339948
10.790564,3.6542893504746337,0.1528910299671741
10.792948,3.676172689058359,0.1521484554984393
10.795351999999998,3.696053926895667,0.1514762904473423
10.797739999999996,3.71286212879992,0.1509179949513928
10.80012,3.7279477692114766,0.1504082614783755
10.802516,3.742661322570696,0.1498654723673529
10.804904,3.754162070369999,0.1494468964973279
10.807288,3.766082127049883,0.1489842310578823
10.809684,3.777582874849186,0.1485753754904075
10.812072,3.78908362264849,0.1481724403541503
10.814452,3.801795075261292,0.1477227103220703
10.816848,3.8123646575008174,0.1473536085089399
10.819236,3.8237256356732607,0.1469736330642706
10.821616,3.83829941940562,0.1464808698415542
10.824016,3.8519420375782,0.1460141543760594
10.826404,3.8649330294447215,0.145546118379695
10.828784,3.8799261220576624,0.1450171533941921
10.83118,3.895338523551182,0.1444570995484421
10.833568,3.9078176587385074,0.1439841146224818
10.835947999999998,3.920157024298972,0.1435292310638714
10.838344,3.929423353926381,0.1431719940704549
10.840736,3.940971323553928,0.142737111558856
10.843115999999998,3.954381624301031,0.1422584600631947
10.845516,3.9696542561676895,0.1417345820045575
10.847904,3.983855952847712,0.1412488547619358
10.850283999999998,3.997917879900872,0.1407773033119094
10.852684,4.014401216581031,0.1402079949768524
10.855072,4.031536179567247,0.1396477074621257
10.857456,4.046948581060769,0.1391220558708358
10.859852,4.060079342554151,0.1386799061499937
10.86224,4.0741412696073125,0.138227800670816
10.86462,4.089413901473973,0.1377305978171784
10.86702,4.105757468527271,0.1372023745223889
10.869408,4.119167769274374,0.1367521274041289
10.871788,4.1356511059545324,0.1362224177752784
10.874184,4.150644198567472,0.135762418496089
10.876568,4.164845895247493,0.1353130192061965
10.87896,4.17448431192724,0.1350198552939553
10.881363999999998,4.183703419726406,0.134762775336313
10.883751999999998,4.1901290308462364,0.1345648662490096
10.886132,4.199487908272262,0.1342952588366855
10.888535999999998,4.204563044951735,0.1341585052892086
10.890923999999998,4.208846785698289,0.1340292870517029
10.8933,4.212478900138786,0.1338945656723678
10.895704,4.2161110145792815,0.1337598442930327
10.898091999999998,4.219882898646638,0.1336125607361628
10.900472,4.224446178646913,0.1334607842913157
10.902867999999998,4.230080393833826,0.1332795411435282
10.905255999999998,4.233572738647462,0.1331599873180815
10.907636,4.241209054580793,0.1329289768902015
10.910031999999998,4.246843269767705,0.1327511818933711
10.91242,4.250615153835062,0.1326103490898974
10.914804,4.256249369021975,0.1324359017453251
10.917199999999998,4.262535210514945,0.1322672510437573
10.919587999999996,4.265887785701721,0.132166116514913
10.921968,4.270590835328855,0.1320104482598132
10.924364,4.277668072754746,0.1318400771945923
10.926748,4.288377424621131,0.1315440821059886
10.929128,4.30337051723407,0.1311324203173429
10.931532,4.324369912086259,0.1305859120835495
10.93392,4.342436040632254,0.1301055735620074
10.9363,4.361573104364888,0.1295936647344789
10.938696,4.378568297724245,0.1291368609544266
10.941084,4.397565591830017,0.1286388944289279
10.943479999999996,4.4156317203760125,0.128156385097316
10.945875999999998,4.4355601800415645,0.1276444847240104
10.948263999999998,4.454697243774197,0.1271451738021902
10.950647999999996,4.470249414894577,0.1267027271819543
10.953043999999998,4.488734852321153,0.1261962296105011
10.955431999999998,4.5002828219487,0.1258412767817452
10.957812,4.510899626016467,0.1255049382833774
10.960207999999998,4.522447595644014,0.1251516572942412
10.962595999999998,4.532273003778864,0.124825156001915
10.964976,4.543169347100353,0.1244715667653668
10.967371999999996,4.552854985608343,0.1241562980587392
10.96976,4.562540624116331,0.1238417278445743
10.97214,4.567058578146233,0.1235898183382884
10.974543999999998,4.571296992922414,0.1233629965905172
10.976931999999998,4.57167097583262,0.1232120678868025
11.000812,4.499937276906531,0.1232101312120736
11.003208,4.49830915907032,0.1231015074990456
11.02472,4.447663611079301,0.123001973652818
11.027103999999998,4.444265709922151,0.1229767322374965
11.029488,4.441798974324779,0.1229355765168879
11.031883999999998,4.443615979473962,0.122786623194817
11.034271999999998,4.4384955168241165,0.1227798385993693
11.036652,4.443385557906354,0.1225613875431137
11.039047999999998,4.441338131189562,0.1224855123342552
11.041436,4.447950733764497,0.1222502616277447
11.04382,4.458055681153067,0.1219117784264682
11.046215999999998,4.468300398168498,0.1215643886127447
11.048603999999996,4.47868488481079,0.1212096615079876
11.050999999999998,4.485065169960248,0.1209407417071695
11.053392,4.488232649549789,0.1207479055489602
11.05578,4.493541999512608,0.1205050211110599
11.05816,4.501924385408483,0.1201957476631158
11.060564,4.5158937646630255,0.119797775714397
11.062952,4.531725475037127,0.1193716236377484
11.065331999999998,4.548628120597866,0.1189228448181635
11.067728,4.561526564665771,0.1185507622931141
11.134628,4.3908721658406575,0.1184611706430072
11.137007999999998,4.388220334646051,0.1183105954005311
11.139412,4.390364100877198,0.118079168999155
11.1418,4.390365996735067,0.1178972688039212
11.14418,4.393161389272272,0.1176725147928973
11.14658,4.399960983302311,0.1173669015222269
11.148968,4.411975483638681,0.1169499949854788
11.151348,4.425852315094607,0.116503240512541
11.153744,4.442941952110449,0.1159793060243248
11.156132,4.45360597800646,0.1156064039914834
11.158511999999998,4.470927932447781,0.1151217422019389
11.160912,4.493185253941712,0.1145448171771558
11.1633,4.510227669129312,0.1140881194759792
11.165684,4.524476587637576,0.1136843556191797
11.16808,4.5376545709592015,0.113304380156294
11.170468,4.552694885400384,0.1128993040822444
11.172852,4.568386826147625,0.112505104388344
11.175248,4.586872263574199,0.1120734739265041
11.177636,4.603355600254359,0.1116807902191132
11.180015999999998,4.618256145068681,0.1112910511344455
11.182416,4.636229725816059,0.1108463262770787
11.1848,4.651130270630382,0.1104675310859287
11.187183999999998,4.661374987645813,0.1101535595547768
11.18958,4.678836711713993,0.1097038658508312
11.191964,4.694436104662617,0.1092788809267662
11.194347999999998,4.7109666631710185,0.1088464410163485
11.196744,4.722422084999947,0.1085109220110403
11.199132,4.730804470895821,0.1082294925518931
11.201528,4.737184756045279,0.1079831528245423
11.203924,4.751433674553543,0.1076096032463692
11.206312,4.761957930822695,0.1072863499620694
11.208692,4.771830560785789,0.1069597483109548
11.211088,4.787569723361272,0.106546890548367
11.213472,4.80009608037684,0.1062001308412199
11.215856,4.814484768511964,0.1058307808213716
11.218252,4.829804622206867,0.1054551023355977
11.220636,4.840468648102878,0.1051321893918069
11.223015999999998,4.847408011759776,0.1048544541756108
11.225424,4.856349476163091,0.1045451409128038
11.227808,4.870877933925076,0.1041730848275691
11.230187999999998,4.879400089447811,0.1038974141591526
11.232584,4.888993180157184,0.1036025017134502
11.234972,4.901239997919031,0.1032848893040117
11.237355999999998,4.9073407438147685,0.103074652825047
11.239752,4.918656396016837,0.1027760366542806
11.24214,4.923174350046738,0.1025675337108389
11.244532,4.928763239263277,0.1023387442162773
11.246928,4.940498200345928,0.1020088200388763
11.249316,4.955306197361633,0.1016307215530655
11.251696,4.968391632884641,0.1012700222209859
11.254092,4.983339399527207,0.1008902426612756
11.25648,4.992280863930522,0.1005981540636355
11.258864,4.994284860534808,0.1004047760213517
11.26126,4.995916770086756,0.1001813401710457
11.263648,4.997036822959508,0.0999393426425782
11.266028,4.994152674339425,0.0997557951664714
11.268424,4.998066223891511,0.0994844936911919
11.270816,5.003702334936293,0.0992023234190245
11.273196,5.0070568059809375,0.0989690392565631
11.275592,5.006407075532749,0.098795553293806
11.27798,5.008550841763896,0.0985920944257311
11.280364,5.010554838368182,0.0983994043536359
11.28276,5.012838374226188,0.098188533629933
11.285144,5.01111770859136,0.0980329863360564
11.287544,5.001109100717146,0.0980128260546546
11.304268,4.945433742017027,0.0978505111602014
11.30666,4.940592818620901,0.0978003823698153
11.30904,4.937334687090612,0.0977505122366873
11.311436,4.932586311493103,0.0977486642412977
11.316204,4.925091661044503,0.0977158705444968
11.3186,4.921414220633633,0.097694529686174
11.320988,4.920018420222901,0.0976260232689751
11.323384,4.915689353505972,0.097594716927427
11.325779999999998,4.91350215716232,0.0975256557104561
11.328167999999998,4.91024402563203,0.0974753601655137
11.330552,4.905914958915103,0.0974435222907242
11.332947999999998,4.909873834437562,0.0972817233298011
11.335331999999998,4.921189486639632,0.0969988504857261
11.337712,4.923146261415675,0.0968656749107741
11.340111999999998,4.932459812871327,0.0966143304176282
11.342499999999998,4.940981968394063,0.0963636301954031
11.34488,4.954719030223129,0.0960305581180842
11.347276,4.975253790224364,0.0956167857326704
11.349667999999998,4.990992952799847,0.0952586416106358
11.352048,5.011015856121885,0.0948311004577738
11.354447999999998,5.025172226831533,0.0944754220086465
11.356835999999998,5.040119993474098,0.0941218978274844
11.359216,5.054416133810606,0.0937553699980255
11.361611999999996,5.068712274147114,0.0933914087349415
11.364,5.084870745603178,0.0930113528593179
11.366384,5.099446425193407,0.0926327804438855
11.368779999999996,5.114953270343413,0.0922503398027832
11.371168,5.135675021799752,0.0917902079307075
11.373548,5.152392571763256,0.0913818554660018
11.375944,5.169249891353621,0.0909646994816183
11.378332,5.1853158150110685,0.0905465763262502
11.380727999999998,5.197377537175682,0.0901825345819647
11.383124,5.203153417847325,0.0899116416306415
11.385512,5.213352808892381,0.0895627858429163
11.387892,5.218337293631106,0.0892918965217201
11.390287999999998,5.225184109489387,0.0890077614529095
11.392675999999998,5.23109975978789,0.0887335723731292
11.395056,5.233290747847279,0.0884901131858119
11.397451999999998,5.236273131839586,0.0882470217727035
11.399839999999998,5.2343201487792825,0.0880585737702758
11.402224,5.238093928704508,0.0878185283639997
11.404619999999998,5.243218183070092,0.0875468126776961
11.407007999999998,5.251275703741872,0.0872452437402178
11.409388,5.257610662920955,0.0869493694083702
11.411784,5.262083290980482,0.0866676504494487
11.414172,5.264274279039872,0.0864255089929515
11.416567999999998,5.261529900046651,0.0862351122886313
11.418964,5.25757481623993,0.0860698807239803
11.421352,5.253759502060068,0.0858948302549597
11.423731999999998,5.250083957507067,0.0857109156250975
11.426128,5.248130974446761,0.0855223680404128
11.428515999999998,5.245618912879016,0.0853685289016663
11.430899999999998,5.250323858364021,0.0851242080874117
11.433296,5.257962070155219,0.0848552963996984
11.435683999999998,5.266019590827,0.0845597197239241
11.438064,5.269001974819306,0.0843221161288872
11.440464,5.273055293998253,0.0840714944901087
11.442851999999998,5.276829073923478,0.0838374949433708
11.445232,5.284886594595259,0.0835456520984541
11.447627999999998,5.296668777506151,0.0832295390504633
11.450015999999998,5.304586528551072,0.0829484904845661
11.4524,5.311573114036213,0.0826762671587062
11.454795999999998,5.319490865081132,0.0824006068704091
11.457183999999998,5.331273047992026,0.0820959616232617
11.459564,5.346128266835975,0.0817595094844321
11.461959999999998,5.364056521612978,0.0813894547462931
11.464347999999998,5.387199682696314,0.0809587648966709
11.466732,5.409551447846733,0.0805276263272363
11.469131999999998,5.435767644863123,0.0800675948683088
11.471519999999998,5.463054777066153,0.0795974935751972
11.4739,5.488339808522767,0.0791469681989654
11.476295999999998,5.5151150840466,0.0786568275504556
11.478683999999998,5.535884057331182,0.0782278867022717
11.481068,5.553440225055849,0.0778452690735829
11.483463999999998,5.57351035020613,0.0774660492049236
11.485851999999998,5.597864216102964,0.0770333323723108
11.488236,5.620355750880242,0.076615091845971
11.490631999999998,5.643126824911241,0.0761797136591609
11.493019999999998,5.660822762262767,0.0757957036306701
11.495416,5.677867073308236,0.0754041473220479
11.497812,5.694911384353704,0.0750116849902766
11.500196,5.709534285772176,0.0746612714838608
11.502579999999998,5.721084151257592,0.0743419436139111
11.504976,5.7304921463697305,0.0740508397726004
11.507364,5.738689436668371,0.073782271456354
11.509743999999998,5.745815791780373,0.0735268829126128
11.51214,5.7505207372653775,0.0733126528406955
11.514532,5.755365452377241,0.0730912431572991
11.516911999999998,5.7574166708097705,0.072882981044757
11.519312,5.758536723682521,0.072679533732308
11.5217,5.759005150249213,0.0724637547380907
11.524083999999998,5.76347777830874,0.0722189132937885
11.52648,5.769672967860964,0.0719732264820332
11.528868,5.768930689614158,0.071776190938375
11.531247999999998,5.765255145061157,0.0715990408844222
11.533644,5.761439830881296,0.0714300652183568
11.536032,5.757065438193993,0.0712917665982965
11.538411999999996,5.7533426718127485,0.0711647828272791
11.540807999999998,5.7522736324839805,0.0710338856198291
11.543195999999998,5.7447789820353785,0.0709717300194483
11.545579999999998,5.737144561959918,0.0709171538494245
11.547975999999998,5.729138054832121,0.0708349470615144
11.574268,5.584118024221525,0.0707405731526454
11.576663999999996,5.5792298789971575,0.0707236328449213
11.583828,5.564146134443471,0.0706963769586116
11.586216,5.558326823659323,0.0706829496464583
11.588596,5.55092472100934,0.0706610485751661
11.590996,5.553812661345162,0.0705487630642489
11.593384,5.559773637614038,0.0704106512968688
11.595764,5.567969032054808,0.070292869539376
11.598164,5.578026757615135,0.0701697210568632
11.600548,5.595021950974492,0.0699979170358999
11.602932,5.609642956535093,0.0698117029626832
11.605328,5.626126293215252,0.0696183850683443
11.607716,5.644751500268688,0.0694039217375827
11.610096,5.664168103255041,0.0691954208994265
11.612496,5.6854470373609525,0.0689825830459846
11.614884,5.714222517773332,0.0686911346841589
11.617264,5.734570286319464,0.0684830643774681
11.619664,5.755337363746177,0.068253124000422
11.622052,5.77717537635953,0.0680120806811831
11.624432,5.795009187480047,0.0678024537623355
11.626832,5.808699027480871,0.0676285430142514
11.62922,5.827743543414887,0.0674016718143363
11.631604,5.853073900841875,0.0671183568005466
11.634,5.874120517522307,0.0668785698830086
11.636392,5.8958187605087975,0.066650865141523
11.638772,5.912721406069537,0.0664502604077969
11.641171999999996,5.925247763085106,0.0662505753869532
11.64356,5.932234348570248,0.0660180444924219
11.645944,5.925532989912434,0.0658109659802059
11.648339999999996,5.908356492671582,0.0655973434447776
11.650728,5.888154181325919,0.0653513985817274
