Time,Force,Position
10.649876,3.876870078188831,0.1514713363061448
10.652264,3.8924656794217167,0.1512371181143026
10.654643999999998,3.913276186960933,0.1508282396512121
10.65704,3.9351576296867896,0.1503853614547554
10.659427999999998,3.955316510919949,0.1499728567858774
10.661811999999998,3.971983047339472,0.1497063638714666
10.664208,3.9878581878260775,0.1494529773731857
10.666595999999998,4.008808464992155,0.1490516845813488
10.668976,4.027616871784955,0.1487238474154314
10.671376,4.049638084137673,0.1482907846379897
10.673759999999998,4.075523728356362,0.1477648078653386
10.676144,4.1086263796278,0.1470186292424972
10.678539999999998,4.151599765004464,0.1460063375926358
10.680924,4.1984375822471005,0.1449096279548882
10.683308,4.245554938743457,0.143822787752928
10.685703999999998,4.294534626359371,0.1427257240742759
10.688092,4.343002457296087,0.1416143517467774
10.690472,4.388257482672886,0.1406050548695659
10.692871999999998,4.43178994655699,0.1396388325580334
10.695259999999998,4.474531014508175,0.1387013340111753
10.69764,4.515269981712945,0.13782822162313
10.700039999999998,4.548280085185767,0.1371380875765992
10.702424,4.581290188658588,0.1364612201192248
10.704808,4.615091688064328,0.1357870049854528
10.707211999999998,4.649964122656706,0.1350787901183147
10.709595999999998,4.68232259982347,0.1343952873282507
10.711976,4.716822947363512,0.1336647540783253
10.714375999999998,4.748529798224217,0.133003833512687
10.71676,4.7807957275923645,0.1322967644713824
10.719144,4.811059556214095,0.1316426594099583
10.721548,4.835456852223436,0.1311190909642412
10.723935999999998,4.860133687486496,0.1305913954782248
10.726316,4.877221428644469,0.1302154619807155
10.728711999999998,4.893797313123243,0.1298334378638407
10.731099999999998,4.9050185216688265,0.129585603557384
10.73348,4.911444132788657,0.1294287166974984
10.735875999999998,4.920663240587824,0.1292278882568716
10.738264,4.931232822827348,0.128978919963425
10.740655999999998,4.9400798435741775,0.1287503027283387
10.743056,4.948275238014948,0.1285188301346492
10.74544,4.955958775776522,0.1282718004760481
10.747823999999998,4.968717450217567,0.1279176725377792
10.75022,4.980544959098834,0.1275822268388121
10.752608,4.991441302420323,0.1272643407928519
10.754988,5.007412782421284,0.126849564959048
10.757388,5.028599168728577,0.1263247469381901
10.759776,5.04992532466273,0.1258018668548851
10.762156,5.072462185410383,0.1252521663340065
10.764556,5.09779254283737,0.1246692181210901
10.766939999999998,5.126335705824273,0.1240240504342364
10.769324,5.155437947318616,0.123331725145811
10.771719999999998,5.1826778576934025,0.1226815814269242
10.774107999999998,5.210848933627968,0.1220141593184156
10.776491999999998,5.23515557769656,0.1214154012158929
10.778887999999998,5.264165271392287,0.1206990388384782
10.781275999999998,5.293594273968594,0.1199516712800812
10.783659999999998,5.31850721837287,0.1192628963272041
10.786056,5.344770637217505,0.1185375320070482
10.788443999999998,5.370242660129222,0.1178114719880228
10.790827999999998,5.393712582294523,0.1171235968534535
10.793224,5.4142492381536265,0.1164798937743494
10.795611999999998,5.431992397333397,0.1158775387094048
10.797995999999998,5.446010894274053,0.1153233007047289
10.800392,5.456724037856177,0.1147886894341486
10.802784,5.459848087333214,0.1143663612220403
10.805163999999998,5.458036769757639,0.1140255543329724
10.80756,5.450358919569673,0.1137765920818658
10.809948,5.437605932702237,0.1136161665823379
10.812328,5.42420131952874,0.11344746192983
10.814723999999998,5.406792504862411,0.1133430864449721
10.817111999999998,5.396460927621972,0.1131196588741418
10.819496,5.380123048142281,0.1129914155876969
10.821891999999998,5.366718434968784,0.1128193324211515
10.824279999999998,5.351171951422012,0.1126881944101161
10.826663999999996,5.333064288621381,0.1126244698230461
10.829055999999998,5.316539417686586,0.1125558725073932
10.831439999999995,5.303599439364047,0.1124515225206784
10.833835999999998,5.291311087347565,0.1123532721921749
10.83624,5.283026936823915,0.1121928266799955
10.838624,5.274463247046544,0.1120502776835555
10.841003999999998,5.270834924321786,0.1118353607370525
10.843407999999997,5.268137767156808,0.1116094489504191
10.845796,5.269444811484663,0.1113218633238531
10.848176,5.275407683611408,0.1109812865778315
10.850579999999995,5.286166153163905,0.1105789464592095
10.924643999999995,4.912544204317286,0.1105210422973519
10.927024,4.920133298422373,0.1104242164766171
10.929419999999997,4.934659860326489,0.1102217086698715
10.931804,4.954401328536936,0.1099247572977408
10.934188,4.975073962307163,0.1096157761894572
10.936584,4.996677761637168,0.1092946730489398
10.938968,5.022937388766064,0.1089166940270291
10.941364,5.050919577387658,0.1085254767187678
10.943759999999996,5.076899665262833,0.1081658458315311
10.946151999999998,5.101948587578231,0.1078150600111334
10.948531999999997,5.128208214707127,0.1074346297083348
10.950927999999998,5.153536676276245,0.1070703304151475
10.953315999999996,5.176863037098946,0.1067417305223985
10.955696,5.205776391280317,0.1063474262685513
10.958091999999995,5.238554177327662,0.1059047863491865
10.960476,5.26239239482956,0.1056000594723681
10.96286,5.285718755652262,0.1052842267779869
10.965256,5.303830210168631,0.1050613252136729
10.967644,5.317006297632386,0.1049079349311754
10.970019999999998,5.331532859536503,0.1047171232371565
10.972427999999995,5.345407795134561,0.1045185345096421
10.974812,5.357280629986201,0.1043520218807023
10.977192,5.369013695210983,0.1041983973509495
10.979588,5.3766027893160695,0.1041113148045168
10.981976,5.386333753794434,0.1039877172123917
10.984371999999995,5.40006891976563,0.1038101457519622
10.986767999999998,5.41287292017705,0.1036435972245666
10.989151999999995,5.427306934282548,0.1034258092144606
10.991536,5.442951653201545,0.1031803809809509
10.993935999999998,5.4610177817475405,0.1028816113202288
10.996323999999998,5.47615064398734,0.1026191087224419
10.998704,5.489560944734443,0.1023671238617799
11.001099999999996,5.5040421806681845,0.1020986709710641
11.003487999999995,5.51680085510923,0.1018425135280674
11.005868,5.526254176191743,0.1015989429597527
11.008271999999998,5.541341712461168,0.1012500592925516
11.010659999999998,5.553076673543818,0.1009636114647383
11.013036,5.565091173880189,0.1006584504704588
11.015439999999998,5.584182911642449,0.1002583534474596
11.017827999999998,5.601272548658291,0.0998855986119656
11.020211999999995,5.615289149741079,0.0995540308418869
11.022616,5.630656225264223,0.099191081663875
11.025004,5.638434206682283,0.09890512905289
11.027383999999998,5.651427094406674,0.0985423641678903
11.029788,5.660555550265095,0.0982235020383314
11.032172,5.665028178324622,0.0979497007900832
11.034555999999998,5.671922216011145,0.0976280872437972
11.036952,5.675463678510894,0.0973661049828121
11.039336,5.679144910637502,0.0970960444488462
11.041719999999998,5.6816154379506125,0.0968517817884418
11.044116,5.690232037129832,0.0965278758720431
11.046504,5.701362593734668,0.0961980806777247
11.048883999999996,5.712213611085781,0.0958867266971022
11.051288,5.7225527717577,0.0955600966875483
11.053676,5.732612393175896,0.0952508561313856
11.056055999999998,5.739459209034177,0.094990505797966
11.058452,5.749658600079234,0.0946758605872143
11.060835999999998,5.760928926310931,0.0943456009224267
11.063215999999995,5.768474590303511,0.094048497824583
11.06562,5.778953520602289,0.0937228217384263
11.068008,5.795718292394037,0.093314466725548
11.070387999999998,5.811551898626007,0.0929176353194929
11.072792,5.832972498216647,0.0924747808763108
11.07518,5.853322162620648,0.0920536013317285
11.077559999999998,5.879538359637039,0.0915786998693757
11.07996,5.906406182959489,0.0911127113940165
11.082348,5.92512583366941,0.0907406078167929
11.084723999999998,5.9449164195659705,0.0903532382562094
11.087131999999997,5.967640271768726,0.0899421131386312
11.089516,5.991574828784982,0.0895110753363021
11.091895999999998,6.005359112442291,0.0891927492163731
11.094303999999998,6.019842244233903,0.0888392084873997
11.096691999999996,6.030600713786401,0.0885102843545049
11.099072,6.040800104831457,0.0882135373158294
11.101467999999995,6.051139265503373,0.0879095852691006
11.103855999999997,6.065482627668124,0.0875668016380183
11.106236,6.074890622780263,0.0872713522632406
11.108632,6.08536955307904,0.0869634809162882
11.11102,6.096639879310736,0.0866588263501481
11.113404,6.108049975169292,0.0863499170968773
11.115796,6.119320301400989,0.0860534973179304
11.118184,6.127377822072768,0.0857969818557791
11.120568,6.137996521998405,0.0854945214320615
11.122964,6.145961494871568,0.0852027470913259
11.125352,6.146197604012785,0.0849702505450302
11.127731999999998,6.146853022034581,0.0847156784642627
11.130132,6.155936151922625,0.0843654235977201
11.13252,6.166229986624168,0.0839963705073437
11.134899999999998,6.173730324646376,0.083646151808897
11.137296,6.180299497108806,0.0833026525741048
11.139684,6.194225446250846,0.0828760143591807
11.142067999999998,6.203076258713413,0.0824981840465885
11.144464,6.215279646362757,0.0820742879509596
11.146852,6.227110946959761,0.0816262001592218
11.149231999999998,6.238942247556767,0.0811790810282024
11.151639999999995,6.246117720354881,0.0807589579883361
11.154027999999997,6.259439265019104,0.0802813335336448
11.156408,6.27290057931019,0.0797999092858163
11.158804,6.28342862729508,0.0793400020539071
11.161188,6.291954574533552,0.0788992983108866
11.163571999999998,6.293822593226717,0.0784983366955033
11.165968,6.298251791173739,0.0780514273552197
11.168356,6.298676787627928,0.0776392661094915
11.170735999999998,6.298962014455256,0.077233542724338
11.173132,6.306464248335334,0.0767615219967708
11.17552,6.3131750862824925,0.076287212211055
11.177899999999998,6.315602183483097,0.0758609874562498
11.1803,6.316446488817865,0.0754296990441002
11.182688,6.316359628592857,0.0750024112313409
11.185067999999998,6.314410437248291,0.0745823543229059
11.187468,6.314603116277,0.0741437888927334
11.189851999999998,6.317729061611908,0.0736853803632473
11.192235999999998,6.324719438812789,0.0732093580950895
11.194632,6.329707715267251,0.0727458796640961
11.197019999999998,6.333113199855878,0.0722751052551031
11.199403999999998,6.341454051497115,0.0717748708364334
11.201804,6.346861636832157,0.0712956992481998
11.204192,6.349335955861008,0.0708336641923099
11.206571999999998,6.35623378526327,0.0703253989243787
11.208972,6.361688592426558,0.0698026187053641
11.21136,6.373289471455954,0.0692336346591792
11.213735999999995,6.38661291197805,0.0686694559959206
11.216131999999998,6.401938453246561,0.0680944735641954
11.218515999999996,6.41847469932857,0.0675038564744262
11.220911999999998,6.4299358087311065,0.0669509718855171
11.223304,6.441536687760504,0.0663918096275481
11.225687999999998,6.455279437163178,0.0658153944358507
11.228084,6.468882416938992,0.0652463372266008
11.230476,6.482625166341665,0.0646706658602726
11.232864,6.499301182050535,0.0640819662359074
11.235239999999996,6.512904161826349,0.0635192155276279
11.237644,6.526786680855884,0.0629452895799116
11.240028,6.533871501713251,0.0624024696635693
11.242407999999998,6.54468098480973,0.0618508475315673
11.244799999999998,6.558423734212404,0.0612878436476874
11.247183999999995,6.564018311002552,0.0607730800270479
11.249579999999998,6.569612887792699,0.0602596519478971
11.251983999999997,6.576138630142624,0.0597431363277168
11.254368,6.579311797305774,0.0592601861616165
11.256743999999998,6.58420752596162,0.058780256845323
11.25914,6.584679744244051,0.0583403387348458
11.261523999999998,6.580356365100731,0.0579146053591549
11.26392,6.574170654837854,0.0574921397707746
11.266323999999996,6.569987045321393,0.0570619788524445
11.268707999999997,6.569528098044047,0.0566269346492126
11.271088,6.569441237819037,0.0562162042644509
11.27348,6.570425312780666,0.0558004686323499
11.275868,6.569919143675077,0.0554099914273146
11.278247999999998,6.570995766435323,0.0550305582682739
11.280639999999998,6.571001454008931,0.0546596336244917
11.283027999999998,6.567654566395762,0.0543157708643879
11.285419999999998,6.564819535461792,0.0539907299056783
11.287816,6.563567296393659,0.0536749632699735
11.2902,6.560173186952248,0.0533737769829582
11.292579999999996,6.557290934190034,0.0530921656273942
11.294975999999998,6.559344048480432,0.0527921362928165
11.297363999999998,6.557765048330335,0.0525313789923751
11.29976,6.557908609672934,0.0522757404820669
11.302156,6.56019404138881,0.0520064734996894
11.30454,6.56485366090344,0.0517557658651859
11.306919999999998,6.571375611537626,0.0515033406140917
11.309316,6.582273850716984,0.0512607756549359
11.311699999999998,6.59368394657554,0.0510369903524681
11.314096,6.601741467247319,0.0508409352660735
11.316499999999998,6.603792685679848,0.0506661246445881
11.318883999999995,6.6047729689257375,0.0504978300631091
11.321264,6.600258806611575,0.0503691021276339
11.323659999999997,6.600819780976885,0.0502199087249674
11.326044,6.597236784222501,0.0500905833261637
11.328423999999998,6.592163543400899,0.0499865231200119
11.330831999999996,6.592025669631909,0.0498680885984422
11.333215999999997,6.59053732142256,0.0497689763218488
11.335596,6.592261778773125,0.049650484209027
