Time,Force,Position
12.492624,5.834533384220262,0.1341595675844556
12.495019999999997,5.843146191683744,0.1340667557155728
12.497408,5.853900869520504,0.1339280908531149
12.499792,5.862001820304787,0.1338223471572198
12.502187999999997,5.874386511835626,0.1336256978486793
12.504575999999997,5.887981908179963,0.1333978525883547
12.506956,5.896781707098549,0.133248166483373
12.530852,5.912515182100426,0.1332439661106298
12.53324,5.918521484339678,0.133136479698757
12.535619999999998,5.923456851392288,0.1330515325527521
12.538016,5.926250348071624,0.1330111760473959
12.540404,5.93491037736335,0.1328738575928058
12.542803999999997,5.942918780349017,0.1327340745124447
12.545199999999998,5.949716478521186,0.1326252635726621
12.549971999999997,5.958980912290725,0.1325424906663674
12.552367999999998,5.962006726395538,0.1325343862091836
12.554755999999998,5.970899073112738,0.1324321009406591
12.557136,5.978720484643302,0.1323506683288142
12.559535999999998,5.984679565054309,0.132295518007153
12.561923999999998,5.995574012517929,0.132158786369815
12.564307999999995,6.009541495914604,0.1319667071603708
12.566716,6.02364874893814,0.1317657053502756
12.569104,6.038826937148312,0.1315422514460617
12.571483999999998,6.054936290918264,0.1313057652349871
12.57388,6.0736068239420735,0.1310009182554309
12.576268,6.091997817712163,0.1307141339472502
12.578647999999998,6.11145974666889,0.130413646245659
12.581044,6.131061445252478,0.130109066438916
12.583431999999998,6.152665244582483,0.1297729137612009
12.585811999999995,6.176830223166346,0.1293703685906148
12.588207999999998,6.19447704283176,0.1290564824346268
12.590595999999998,6.214265732870452,0.1287084355471277
12.592975999999997,6.235404897349502,0.1283250199305131
12.59538,6.261107341828827,0.1278480671270712
12.597768,6.290302131121789,0.1272966057659608
12.600147999999995,6.321219481907445,0.1267371912949059
12.602543999999998,6.349063796760047,0.1262356573095078
12.604931999999998,6.379469290866506,0.1256716150170246
12.607315999999996,6.411085489786464,0.1250825751723345
12.609711999999998,6.439908192027087,0.1245310995115596
12.612099999999998,6.464866462401736,0.1240324751738083
12.614479999999997,6.491035437589884,0.1235088237183439
12.616875999999998,6.51948605277817,0.122943139434452
12.619263999999998,6.54593456722004,0.1224052749646407
12.621647999999997,6.571824003154467,0.1219033538487486
12.624043999999998,6.599855309462173,0.1213672319373788
12.626427999999995,6.622811479090407,0.1209128135157157
12.628812,6.644696713532001,0.1204808160220334
12.631215999999998,6.662065889801565,0.1200928362286155
12.633599999999998,6.6780845916307685,0.1197402813561527
12.635983999999995,6.69596562457953,0.1193658704583053
12.638379999999998,6.70784035528904,0.1190792302532776
12.640763999999995,6.717573215625272,0.1188290802921352
12.643148,6.723022335214951,0.118652149283256
12.645543999999996,6.725258649244715,0.1185292212647776
12.647931999999996,6.720697265102309,0.1184924003322155
12.650316,6.715484254653847,0.1184501952136043
12.65272,6.708920769765024,0.1184407908241861
12.657487999999995,6.6956540303605205,0.1184287800927432
12.659888,6.692443120658474,0.1183586003229499
12.662271999999998,6.689232210956427,0.1182884343926394
12.664655999999995,6.681877330134687,0.1182798585512532
12.667051999999998,6.6795975859924175,0.1181999415948975
12.669439999999998,6.676805985170952,0.1181071118346547
12.671819999999997,6.672943449162847,0.1180314818455906
12.674215999999998,6.668289517221826,0.1179577212974133
12.676603999999998,6.663775354907664,0.1178764461183164
12.678987999999997,6.665779351511949,0.1177292210847406
12.681392,6.669785448862651,0.1175563607101213
12.68378,6.673512006959636,0.1173983651306342
12.686159999999996,6.678029960989536,0.1172375102145428
12.68856,6.684550015765854,0.1170503939379729
12.690948,6.690138904982393,0.1168717417625092
12.693327999999998,6.695727794198932,0.1166924345216367
12.695732,6.703179014535029,0.1164914157355687
12.736335999999998,6.662540178560351,0.1164721602517473
12.738732,6.662028321881153,0.116459109759269
12.74112,6.668453933000984,0.1163609449427003
12.743503999999998,6.681817011919844,0.1161790194099211
12.7459,6.698672435652341,0.1159318008398998
12.748288,6.712315053824922,0.1157334682697866
12.750671999999998,6.733406996475729,0.1154645634649886
12.753068,6.755709643940036,0.1151732901009144
12.75546,6.777360665098284,0.1148750619554391
12.757844,6.7975686640175566,0.1145744508996984
12.76024,6.818428289242886,0.1142801874621082
12.762628,6.841290015214632,0.113962570580843
12.765012,6.867783855626875,0.1135756157041039
12.767408,6.896140027158674,0.1131735348194423
12.769796,6.918909205331804,0.1128240742355893
12.772175999999998,6.944471880184269,0.1124474864746194
12.774579999999997,6.976460166156564,0.1119733445265077
12.776964,7.011241948808195,0.11147469801821
12.779343999999998,7.042159299593853,0.1110217655434366
12.78174,7.071074549633092,0.110596488629497
12.784128,7.09584582855264,0.1102297889884828
12.786507999999998,7.120617107472186,0.109867526073631
12.788912,7.13458648672673,0.1096266025941442
12.791296,7.144039807809242,0.1094227686262252
12.793675999999998,7.159219891877284,0.1091670726354944
12.79608,7.180685817438298,0.1088310316654056
12.798468,7.193771252961306,0.1085670292992834
12.800847999999998,7.20978995479051,0.1082763601890535
12.803244,7.230092397366268,0.1079299215978562
12.805628,7.249463674382248,0.1075914730944802
12.808007999999996,7.271535900278946,0.1072011272345847
12.810412,7.290814629496309,0.1068344683076836
12.8128,7.307951488340397,0.1064982539394827
12.815179999999998,7.32136368494537,0.1061919172480219
12.817576,7.337848917483397,0.105848777121162
12.819964,7.354753458902005,0.1054874599658877
12.822347999999998,7.372309626626672,0.1051366104101485
12.824751999999997,7.38907439841842,0.1047887785236539
12.827136,7.407841270956586,0.1044208743558356
12.82952,7.423674877188556,0.1040792194748461
12.831916,7.442861058607301,0.1036914842499349
12.8343,7.456320477040518,0.1033521149871295
12.836679999999998,7.476065736966704,0.1029353264840682
12.83908,7.49595076651975,0.1025137267671581
12.841463999999998,7.509597176408068,0.1021328213191375
12.843847999999998,7.519518924057275,0.1017827268777789
12.846244,7.537309305065287,0.1013605352877449
12.848627999999998,7.551514793461047,0.100962488241334
12.851028,7.561855849990834,0.1005992110963332
12.853423999999997,7.571405510587701,0.100235163915506
12.855811999999997,7.574809099318458,0.0999358508154248
12.858192,7.578771766556657,0.0996107494471696
12.860588,7.583293512302295,0.0992607682997219
12.862976,7.589957128421211,0.0988848983095321
12.865355999999998,7.597179823047567,0.098484629885233
12.867752,7.603890660994727,0.0980733042970804
12.870144,7.606504749650435,0.0976687009978114
12.872524,7.607675816067167,0.0972579243126604
12.874927999999995,7.607403860244924,0.0968408205081796
12.877312,7.611834954049815,0.0963557983195538
12.879692,7.6094683496825395,0.0959234016140504
12.882095999999995,7.614178982741151,0.095424832909303
12.884483999999995,7.617167054307067,0.0949327408530048
12.886868,7.619223960313204,0.0944466609678779
12.889263999999995,7.617136895199646,0.0939994083649444
12.891651999999995,7.613978894899451,0.0935640295958709
12.894032,7.604302735680807,0.0931687757993929
12.896435999999998,7.5926244757157475,0.0927900025769228
12.898823999999998,7.582948316497103,0.0923938252620088
12.901204,7.574343092465098,0.0919846356686458
12.903599999999996,7.569090443619868,0.0915327522598689
12.905987999999995,7.564489421080697,0.0910877276096151
12.908368,7.559608859287805,0.0906554939627303
12.910763999999997,7.551934800815577,0.0902379968747667
12.913151999999997,7.542770498276132,0.0898503039471648
12.915536,7.52997408129619,0.0895145122853863
12.917931999999997,7.519551852115002,0.0891810789564008
12.920319999999997,7.508710314053233,0.0888654569093657
12.9227,7.497449467110884,0.0885676502387687
12.925099999999995,7.485769311287954,0.0882885575444624
12.927487999999997,7.479024522517636,0.0879703448475148
12.929868,7.467344366694706,0.0876895592768101
12.932264,7.458178168297392,0.0874064398300702
12.934652,7.447661495459718,0.0871456919555788
12.937032,7.444733916727131,0.0868393991931226
12.939435999999995,7.439664467621266,0.0865538867444737
12.941823999999997,7.436177810381237,0.086269895879203
12.944208,7.432411613887489,0.0859971589710805
12.946603999999995,7.424501446274046,0.085761997659181
12.948991999999995,7.418174070526439,0.0855296067836231
12.951372,7.407423184405419,0.085346629665327
12.953771999999995,7.394530427911121,0.0851852014555486
12.956159999999995,7.377493700297127,0.085061155588108
12.95854,7.366975131601586,0.0849032690999329
12.960935999999997,7.3571081892120995,0.0847529586087743
12.963324,7.354038944994783,0.0845572154271185
12.965704,7.345615024844273,0.0844158945523203
12.968111999999998,7.334909464693628,0.0843025342048305
12.970495999999995,7.325135070102759,0.0841840688716307
12.97288,7.311728561071395,0.0841175779826753
12.975275999999996,7.298694139092367,0.0840712164092536
12.984831999999995,7.244645002370588,0.0840438999662483
12.987212,7.234868711921851,0.0840361113846834
12.989615999999998,7.229748249272004,0.0840053125715685
12.991999999999996,7.228352448861271,0.0839564842836271
12.994383999999997,7.232543641809208,0.0838808197751866
12.996779999999998,7.237526230690063,0.0838074442056511
12.999167999999996,7.251448388116364,0.083670375248987
13.001548,7.267093107035362,0.0835303534041369
13.003947999999998,7.290606459313166,0.0833372952496334
13.006335999999996,7.30825327897858,0.0831841286423804
13.008716,7.3281817386441315,0.0830051340642455
13.011111999999995,7.34331460088393,0.0828548711013563
13.013503999999998,7.363802139056923,0.0826521536039997
13.015884,7.391506684282665,0.0823904117483113
13.018287999999998,7.418000524694908,0.0821451872640722
13.020675999999998,7.447707170667067,0.0818681671957844
13.023055999999997,7.477553586266085,0.0815863534530047
13.025451999999998,7.507679541118824,0.0812923070917738
13.027839999999998,7.538876431158201,0.0809876985138372
13.030223999999995,7.569142155637801,0.080688447368604
13.032619999999998,7.600059506423459,0.0803977749107924
13.035007999999998,7.624458698290668,0.0801357622601423
13.037391999999995,7.642851587918625,0.0799179564691151
13.039787999999998,7.659521916053887,0.0797035611793614
13.042175999999998,7.671536416390257,0.0795101186030732
13.044556,7.681548815980212,0.0793314743404039
13.046955999999998,7.683413042957637,0.0792154689009478
13.049343999999998,7.688490075494979,0.0790703782536675
13.051724,7.692635942472542,0.0789308954351074
13.054119999999998,7.700646241316079,0.0787705733420202
13.056507999999996,7.706654439413199,0.0786244812060853
13.058891999999997,7.711871241577401,0.078475829333299
13.061287999999998,7.719741770794077,0.0783234354017863
13.063675999999996,7.7237478681447795,0.0781925274401951
13.066059999999997,7.731897936615176,0.078030762816976
13.068455999999998,7.737394278033099,0.0778737710047677
13.070843999999996,7.743170158704741,0.0777059835458373
13.073227999999997,7.750156744189882,0.0775238311147516
13.075623999999998,7.758214264861663,0.0773330700159688
13.078011999999998,7.766411555160303,0.0771368750827468
13.080392,7.772374427287049,0.0769278191434001
13.082791999999998,7.784203832026186,0.076686752647438
13.085175999999995,7.799525581578957,0.0764070339528168
13.08756,7.8107033600120355,0.0761566557956309
13.089955999999995,7.822812304004892,0.075902102176635
13.092343999999995,7.83548032650519,0.0756250259755809
13.094739999999998,7.851361154565403,0.0753194393535763
13.097136,7.865379651506059,0.0750232200281321
13.099524,7.874462781394103,0.0747557830704652
13.101907999999998,7.882754515349229,0.0744874800464106
13.104304,7.892117184490995,0.0742112388952601
13.106692,7.904273350312094,0.0739257069633386
13.109071999999998,7.910562983520804,0.0736711408074174
13.111468,7.913360271915876,0.0734534008951476
13.113851999999998,7.911222193258338,0.073262841349018
13.116231999999997,7.913228085720493,0.0730433907461141
13.118636,7.914163042996011,0.0728330807442954
13.121023999999998,7.917100101017944,0.0726126888477145
13.123403999999995,7.920176928666738,0.0723875662609329
13.125808,7.923393525942392,0.0721571942737201
13.128192,7.929543389524241,0.0719131037370654
13.130571999999995,7.937043727546451,0.0716519295855514
13.132976,7.94347313038202,0.0713998834311062
13.135364,7.960332345830254,0.0710793642117761
13.137743999999998,7.980683906092126,0.070725594137694
13.14014,8.002897797473553,0.0703693542648384
13.142528,8.027253559228257,0.069999647957113
13.144907999999996,8.049886759490263,0.0696309305974733
13.147312,8.071868333446213,0.0692522135325961
13.1497,8.091056410722828,0.0688813528530947
13.152079999999998,8.110384257626304,0.0685074146062192
13.154476,8.13027118303722,0.0681145932952855
13.156864,8.151788122142216,0.0676922580327057
13.159243999999996,8.181220916434262,0.0672029976758493
13.161639999999998,8.213075120353306,0.0666883912084349
13.164023999999998,8.245860489832125,0.0661779598183915
13.166407999999995,8.281486577818526,0.0656312147239332
13.168812,8.314598708379311,0.065085114183148
13.171195999999998,8.34640758632798,0.0645249314788316
13.173579999999998,8.377704607597451,0.0639529194539691
13.175976,8.407558606627946,0.0633720885184094
13.178368,8.435038417859687,0.0627866160713391
13.180747999999998,8.458141940546259,0.0621975981926167
13.183144,8.472864973194824,0.061627763059785
13.185531999999998,8.483863343604275,0.0610659183142677
13.187911999999995,8.492487526214973,0.0604954124558079
13.190312,8.495944024347581,0.0599179378510365
13.192695999999998,8.499819831360771,0.0593253312477181
13.195092,8.504114947254543,0.0587146522222329
13.197488,8.506827271282475,0.0580930663384829
13.199876,8.505163306765237,0.0574660533775679
13.202255999999998,8.495630708889191,0.0568596040867835
13.204659999999995,8.485586254333949,0.0562374201203602
13.207047999999997,8.465810835300342,0.0556388763238272
13.209428,8.441379588467843,0.0550411459117305
13.211824,8.406425981224064,0.0544588881064806
