Time,Force,Position
17.033608,6.209158946173815,0.1470777860393806
17.035987999999996,6.237788969385728,0.1468300653859278
17.038392,6.258739246551807,0.1465487680492428
17.040779999999998,6.261160656178805,0.1464833884501023
17.043163999999997,6.260696021327849,0.1464258344735771
17.045555999999998,6.264188366141486,0.1463397404349701
17.047944,6.270938842485412,0.1462691225300904
17.050323999999996,6.285743047785378,0.1461345601368473
17.05272,6.305016089429135,0.1459812913141324
17.055107999999997,6.322426799953335,0.1458548676126309
17.057491999999996,6.336160070066663,0.145739925612593
17.071835999999998,6.387502570334116,0.145714559703566
17.074232000000002,6.400257453059423,0.1456596148359817
17.076616,6.406960707575107,0.1456344931951096
17.079,6.4174358461581456,0.1455066094779086
17.081404,6.42935400698016,0.1453769608959602
17.083791999999995,6.446951708959462,0.1451994965528082
17.086171999999998,6.463059166871544,0.145071230540025
17.088568000000002,6.4851729270228775,0.1448337540564911
17.090952,6.506961821950116,0.1445384986416445
17.093331999999997,6.521628153481092,0.1442942695426927
17.095728,6.531126800533979,0.1441074820583092
17.098115999999997,6.536761015720891,0.1439837282836733
17.100496,6.544909188333419,0.143837053066031
17.102899999999998,6.559715289491255,0.1435911738064477
17.105283999999997,6.582669563261619,0.1432069935951356
17.107667999999997,6.608185016285839,0.1427588183283413
17.110064,6.63491117412356,0.1422854177348674
17.112451999999998,6.66899410864089,0.1416721930473511
17.114832,6.706709157598715,0.1409749203622692
17.117227999999997,6.742189788384647,0.1402921572592575
17.119616,6.778881123984077,0.1395825496326282
17.122011999999998,6.811288718836955,0.1389569878201554
17.124407999999995,6.84341677443611,0.1383473558541004
17.126796,6.876475995595045,0.1377315934320027
17.129179999999998,6.906881489701504,0.1371459143106287
17.131583999999997,6.932259068956735,0.136603557235612
17.198476,6.967361925116721,0.1361784211605847
17.200856,6.9820263607898285,0.1360830647624613
17.203252,6.998460579783874,0.1359292489849449
17.205636,7.008795948740053,0.1358338409914626
17.208019999999998,7.021273188069507,0.1357007309733521
17.215192000000002,7.0295592344510265,0.135678160159019
17.217596,7.034354831876778,0.1356120810230583
17.21998,7.0427825437430265,0.1354653595044743
17.222360000000002,7.052980038930214,0.1352629495129362
17.224764,7.062246368557624,0.1350725242645974
17.227148,7.070721302252115,0.1348876321388251
17.229532,7.082129502252801,0.1346629071766067
17.231927999999996,7.091675371133931,0.134460776376942
17.234311999999996,7.10964895188131,0.1341182329364447
17.236691999999998,7.122454848150598,0.1338251466707889
17.239087999999995,7.131256542927053,0.1335929057607742
17.241476,7.141408712143866,0.133327671025069
17.243856,7.153702751733956,0.133026192666886
17.246252,7.167487035391266,0.1326853584673566
17.248635999999998,7.180619692742518,0.1323447312080732
17.251032000000002,7.194963054907269,0.1319805728949526
17.253428,7.215312719311271,0.1315305630411072
17.255815999999996,7.23072701666266,0.131147645971927
17.258195999999998,7.254941112932635,0.1306450383381631
17.260591999999995,7.281017540322167,0.130124599940196
17.26298,7.308304672525197,0.1295758211633937
17.26536,7.331587603235393,0.129087478009126
17.267756,7.3519372676393955,0.1286397551090682
17.270144000000002,7.365861320923565,0.1282971964662598
17.27254,7.380856309394374,0.1279378218845569
17.274935999999997,7.39091593081257,0.1276438896696484
17.277324,7.3971111203647935,0.127400352414133
17.279703999999995,7.406519115476932,0.1271049471933627
17.282108,7.408570333909462,0.1269260537157713
17.284495999999997,7.411273178648049,0.1267517828663393
17.286876,7.413836253759775,0.1265846616088082
17.289276,7.415188624058002,0.1264417323224934
17.29166,7.41803123842345,0.1262614594694141
17.294039999999995,7.421153392042617,0.1260680639791228
17.296436,7.422133675288509,0.1259090289839216
17.298823999999996,7.422834419280678,0.1257644654496327
17.301204,7.425537264019265,0.1255954399381518
17.303599999999996,7.432104540623826,0.1253810231043594
17.305988,7.437880421295469,0.1251713679161553
17.308368,7.441654201220696,0.1249879843470672
17.310764,7.446498916332561,0.1247884703875015
17.313151999999995,7.452274797004202,0.1245795417388086
17.315548,7.46177533991496,0.124334617906629
17.317952,7.478632659505324,0.1239843029417544
17.320335999999998,7.493767417602993,0.1236462475654151
17.322719999999997,7.517562204992388,0.123213201049873
17.325116,7.542288157941559,0.1227707422881544
17.3275,7.5628701397710385,0.1223860526806088
17.329879999999996,7.584523056787155,0.1219829242059238
17.332276,7.602032002683578,0.1216359646698575
17.334663999999997,7.616887221527526,0.1213083434869102
17.337044,7.632673605931253,0.1209708131336989
17.339439999999996,7.641615070334568,0.1207501241581547
17.341828,7.650137225857303,0.1205513038502597
17.344208000000002,7.657588446193398,0.1203683383604772
17.346604,7.665970832089272,0.1201773606695008
17.348991999999996,7.667927606865315,0.1200825186229103
17.351388,7.670815547201137,0.1199791560979077
17.353783999999997,7.670350912350183,0.1199298436209807
17.356167999999997,7.670817443059006,0.1198716708108659
17.375279999999997,7.651918384325456,0.1198410955142441
17.377663999999996,7.65182583652684,0.1198103795464949
17.380048000000002,7.655597720594195,0.1197391606134029
17.382444,7.664165202087305,0.1196190778303015
17.384828,7.6770164243269665,0.119440902307687
17.387223999999996,7.697364192873099,0.1191578972749043
17.389623999999998,7.716501256605732,0.1188968420544811
17.392012,7.740573687390977,0.1185832824422736
17.394391999999996,7.763063326310387,0.1182755483504711
17.396788,7.788905540416572,0.1179166128906455
17.399172,7.8128854234032,0.1175760155123784
17.401551999999995,7.840217881576605,0.1171863948051365
17.403956,7.865688008630452,0.1168136515151296
17.406343999999997,7.887573243072047,0.1164707626168597
17.408724,7.908667081580722,0.1161308184733089
17.411119999999997,7.930831855276037,0.1157753496505998
17.413508,7.955697577852068,0.1153661564864435
17.415892,7.980842839681822,0.1149462642162994
17.418287999999997,8.012413712631407,0.1144419311582108
17.420671999999996,8.040259923341878,0.1139704858598206
17.423055999999995,8.067174968492571,0.1135126870717401
17.42546,8.092227682523706,0.1130734831847507
17.427847999999997,8.115977143942725,0.1126256173071367
17.430228,8.139866374988607,0.1121758153527802
17.432623999999997,8.158960008608734,0.1117730471375244
17.435012,8.173397814429972,0.111408673796757
17.437396,8.190396799505066,0.1110009129872793
17.439791999999997,8.199946460101936,0.1106515426973958
17.442175999999996,8.210567055885443,0.1102903776081558
17.444559999999996,8.220396255736032,0.1099314301422198
17.446956,8.229573829280563,0.1095674718472325
17.449343999999996,8.236609532451817,0.1092310305479169
17.45174,8.244855940436569,0.1088755663926006
17.454136,8.252962578794461,0.1085267225349806
17.456524,8.263211087525631,0.1081538383013217
17.458903999999997,8.277603567376493,0.107737973470506
17.461307999999995,8.292647673533414,0.1073300644617821
17.463692,8.308902484503834,0.106906558975029
17.466071999999997,8.31994238916792,0.106540871643362
17.468468,8.331773689764926,0.1061734599171908
17.518636,8.027093839022916,0.1060098349436147
17.521023999999997,8.027513147903496,0.1059922020340142
17.52342,8.031377579769469,0.1059612733334596
17.525816,8.046183680927303,0.1058319313499135
17.5282,8.068998185070807,0.1056300105981269
17.530583999999998,8.09567712108028,0.1053983800400703
17.532984,8.123147453022677,0.1051647406866078
17.535371999999995,8.154062907950461,0.1049202948166472
17.537751999999998,8.193638392169976,0.1046089242427998
17.540155999999996,8.242293214561796,0.1042111889624737
17.542544,8.289877101766974,0.1038282989323261
17.544924,8.338904011211133,0.1034516968253721
17.547328,8.386859985468652,0.103088242850878
17.549715999999997,8.43574712528595,0.102720927994244
17.552096,8.486636365849664,0.1023391587665981
17.554491999999996,8.538876080853738,0.1019369144798979
17.55688,8.596330702164142,0.1014834039234869
17.559260000000002,8.646847855675519,0.1010878618611994
17.561664,8.693640346947783,0.1007177982631402
17.564051999999997,8.738058650421292,0.1003517023576009
17.566432,8.780754392402107,0.0999975031774197
17.568827999999996,8.819073845837748,0.0996664740233757
17.571216,8.854087945914857,0.0993428128113033
17.573596000000002,8.884306448566216,0.0990565233062383
17.575992,8.908658418605183,0.0988167769519394
17.578379999999996,8.930356661591677,0.0985895251105428
17.580759999999998,8.954476314205165,0.0983300937782799
17.583155999999995,8.975150843833264,0.0980831590384088
17.585544,8.993171646408886,0.0978496622146422
17.587924,9.009330117864948,0.0976290613549283
17.59032,9.025907898201597,0.0973935954695951
17.592708000000002,9.04155451297846,0.0971635406198556
17.595092,9.058551602195688,0.0969133059277959
17.597488,9.07210356842752,0.0966729273504365
17.599871999999998,9.080999706860458,0.0964581385272606
17.602255999999997,9.086031413427422,0.0962688059564628
17.604652,9.089200788874836,0.0960905180604865
17.607039999999998,9.096002278762745,0.0958649670788451
17.609435999999995,9.104433782344728,0.0956083349630382
17.611832,9.112585746672991,0.0953625463366793
17.614219999999996,9.115662574321783,0.0951569155650707
17.616603999999995,9.11552659641066,0.0949815896658089
17.619,9.116461553686175,0.0947961107549386
17.621384,9.117256741334836,0.0946159736271502
17.623764,9.120054029729904,0.0944210504617473
17.626163999999996,9.122711548498112,0.0942314960466939
17.628552,9.124298132079687,0.0940523537849963
17.630932,9.126164254914984,0.0938630187240813
17.633336,9.122163845137887,0.0937121966756521
17.635723999999996,9.11457854274854,0.093574982855042
17.638104,9.10713300998605,0.0934326324322712
17.640507999999997,9.10131749091764,0.0932598359141956
17.642891999999996,9.092428935916171,0.0931109678629246
17.645275999999996,9.083540380914709,0.0929615586165037
17.647672,9.07386042998032,0.092810940606822
17.650059999999996,9.068184680538774,0.092631357046558
17.65244,9.05743379441775,0.0924900291945089
17.65484,9.04626359941615,0.0923639897154832
17.657227999999996,9.03346339072047,0.0922683461319853
17.659608,9.020011555718732,0.0921665565326461
17.662003999999996,9.009772526276908,0.0920350262399074
17.664392,9.004748403141416,0.0918598100244822
17.666776,8.998513575192426,0.0916994038666785
17.669171999999996,8.994280847989854,0.0915250411551236
17.67156,8.985764380040727,0.0913892757487515
17.67394,8.980460717651518,0.0912247295665165
17.676336,8.97795055194164,0.0910473833649197
17.678723999999995,8.972599667724184,0.0909147769301156
17.681108000000002,8.969111114626283,0.0907725650975733
17.683504,8.965854878953863,0.0906516202556406
17.685891999999996,8.957104197721392,0.0905843568001992
17.688271999999998,8.943650466861785,0.0905717260525747
17.690672,8.93406116786815,0.0905356518409967
17.693059999999996,8.926054660740352,0.0905010169169193
17.695439999999998,8.923495377344363,0.0904446381423602
17.697835999999995,8.918514684321377,0.0904181775881108
17.700224,8.921123085403478,0.0903509244960076
17.702619999999996,8.925314278351413,0.0902852556190245
17.705016,8.933509672792185,0.0901917456943658
17.707403999999997,8.943939485404849,0.0901061616934113
17.709787999999996,8.95581232025649,0.0900279447404423
17.712184,8.963261644734716,0.089993402727896
17.714568,8.972573300332503,0.0899503436254234
17.716948000000002,8.978811919997229,0.089930676624144
17.719347999999997,8.991196611528068,0.0898646378123767
17.721731999999996,9.00036849749899,0.0898274850539277
17.724116000000002,9.007817821977216,0.0897941639797238
17.72652,9.017968095336162,0.0897216297415988
17.728904,9.030400008695244,0.0896253125863551
17.731283999999995,9.04753497168146,0.0894771804768745
17.733683999999997,9.070164380227729,0.0892769860984401
17.736072,9.09814846470719,0.0890300800850777
17.738451999999995,9.12240788694754,0.088800586259423
17.740848,9.147878014001387,0.0885574108484949
17.743235999999996,9.165759046950148,0.0883519623326887
17.745619999999995,9.180334726540378,0.0881467020002488
17.748016,9.191744822398933,0.0879391636323372
17.750403999999996,9.202270974525954,0.0877045048681527
17.752787999999995,9.211214334787137,0.0874694064484058
17.755184,9.216340485010592,0.0872238525757921
17.757571999999996,9.222305252995207,0.0869495453311713
17.759955999999995,9.228037703554344,0.0866532149039295
17.762352,9.23633133336734,0.0863259227462588
17.764739999999996,9.247186142434192,0.0859663992391905
17.76712,9.254083971836454,0.0856021786231517
17.76952,9.26046994455952,0.0852268021398192
17.771907999999996,9.266344060603386,0.0848414253385937
17.774291999999996,9.271426780714334,0.0844549554960148
17.776688,9.277580436011922,0.0840609335125725
17.779075999999996,9.280149198697258,0.0836779679457735
17.781459999999996,9.28378889656923,0.0832884579276869
17.783851999999996,9.287847903321786,0.0828866636850089
17.786235999999995,9.293909010820755,0.0824728350409081
17.788632,9.300529196827169,0.0820412526415997
17.791027999999997,9.317579195446244,0.0815389636926116
17.793416,9.337841999625237,0.0810106092586678
17.795795999999996,9.353029667124757,0.0805115740315888
17.7982,9.371662457609668,0.0800119690556022
17.800587999999998,9.389503852161662,0.0795127947503428
17.802968,9.408928038579491,0.0790160911589602
17.805372,9.4202040523848,0.0785676292768751
17.807760000000002,9.435344498056072,0.0781031394004492
17.810139999999997,9.44419910223438,0.077682019503285
17.812543999999995,9.44890973529299,0.0772872611065628
17.814932,9.45385268577708,0.0769131325831772
17.817312,9.456513996261032,0.0765583041434952
17.819708,9.455543192304487,0.0762406997994941
17.822091999999998,9.4564347194675,0.0759175979791817
17.824472,9.45253064920476,0.0756132150378494
17.826867999999997,9.444854694874664,0.0753501404018701
17.829256,9.431684294984514,0.0751303331052754
17.83164,9.413159219161171,0.0749485712051166
17.834035999999998,9.393702977778052,0.0747690892951496
17.836424,9.370754391581295,0.0746215309041853
17.838803999999996,9.341380194264708,0.0745184604175023
17.841203999999998,9.31330924956024,0.0744283822881206
17.843592,9.291896233401076,0.0743140640423645
17.845971999999996,9.264197375748942,0.0742394444452664
17.848368,9.232726634029452,0.0742061285951051
17.850755999999997,9.200836583429382,0.0741869097220762
17.853139999999996,9.17574423100148,0.0741390415333619
17.855536,9.150232569692998,0.0741046366308676
17.85792,9.127514405063849,0.0740622439993072
17.860304,9.109731607487312,0.0739966319219967
17.862699999999997,9.09553370252303,0.0739253597934196
17.865088,9.08599162535764,0.0738411493583771
17.867483999999997,9.078311879311803,0.0737515511610922
17.869880000000002,9.06807095401211,0.0736910815589347
17.872268,9.064999813936923,0.0736197312301059
17.874648,9.068866141660768,0.0735160764750733
17.877043999999998,9.073803404571247,0.0734043888418542
17.879432,9.082185790467124,0.0732918142851746
17.881811999999996,9.093082133788611,0.0731816317619763
17.884208,9.107842908976076,0.0730566548895094
17.886595999999997,9.122463914536675,0.0729364789846651
17.888979999999997,9.13722468972414,0.0728120826663072
17.891376,9.152776860844517,0.0726913260710338
17.893763999999997,9.171681607151674,0.072543631004955
17.896144,9.194870094205385,0.0723663221780574
17.898544,9.223133717938564,0.0721634982842026
17.900931999999997,9.251117802418026,0.0719715181324135
17.903312,9.274446059098596,0.071792003578281
17.905707999999997,9.300195725406166,0.0715900504058902
17.908091999999996,9.32287235578068,0.0714058387224391
17.910488,9.342243632796658,0.0712177933573764
17.912884,9.360451426827382,0.0710120234286042
17.915272,9.379358068992408,0.0707827803665149
17.917651999999997,9.404178465598068,0.0705020686541799
17.920055999999995,9.425693508845193,0.0702181130637058
17.922444,9.446836465039985,0.069920534508795
17.924824,9.47454480198146,0.0695800656107482
17.92722,9.502440130378044,0.0692062960660163
17.929608,9.529171975789373,0.0688157400145325
17.931987999999997,9.553529633401943,0.0684190361472748
17.934384,9.579237765454875,0.0680071454194323
17.936771999999998,9.60657591120189,0.0675736639124285
17.939152,9.62953776840373,0.0671419473574777
17.941547999999997,9.649845898553098,0.0667109528575938
17.943936,9.667779840903709,0.0662723815462668
17.946328,9.68147726433601,0.0658316475460652
17.948724,9.692940269596418,0.0653783509048662
17.951112000000002,9.702261404483547,0.064934094136068
17.953491999999997,9.705436467504564,0.0645178579302869
17.955892,9.707680364965803,0.0641023688889663
17.958275999999998,9.707502852800047,0.0637070709716178
17.960659999999997,9.705835096567071,0.0633316594184425
17.963056,9.705750132199933,0.0629624970262876
17.96544,9.694955815966404,0.0626540231223876
17.967824,9.681088463799824,0.0623583923489147
17.970219999999998,9.664659932379386,0.0620887736081672
17.972608,9.63994345871956,0.0618577071168913
17.975004,9.613457201738791,0.0616542736726811
17.977399999999996,9.586132326996866,0.0614772717647342
17.979788,9.558108604120635,0.0613220060812011
17.982168,9.52766347161741,0.0611868763339731
17.984564,9.491304584673554,0.0610984230331913
17.986951999999995,9.453455453662476,0.0610286233414533
17.989331999999997,9.419703071942848,0.0609695001030616
17.991732,9.389256043581751,0.0609176003966441
17.994115999999998,9.360624124511972,0.0608926810108612
17.996499999999997,9.335157789173865,0.0608798978928052
17.998891999999998,9.320493353500758,0.0608350250235167
18.00128,9.310624515253403,0.0607792223369979
18.003664,9.302338468871882,0.0607297936378973
18.006059999999998,9.300478033610196,0.0606460107887341
18.008448,9.301271325400982,0.0605632360664587
18.010844,9.301645308311189,0.060494078576911
18.013239999999996,9.31216956458034,0.0603862926444107
18.015628,9.331353850141218,0.0602601235681216
18.018008,9.349746739769175,0.0601308016359281
18.020408,9.37679965868886,0.059983188054178
18.022791999999995,9.403992347235404,0.0598312129164317
18.025176,9.43053340947589,0.0596715374158682
18.027572,9.462568917276428,0.059481372458011
18.02996,9.497957000263744,0.0592707951358075
18.032344,9.53991046399775,0.0590235071026127
18.03474,9.587870229971006,0.0587574033678213
18.037128,9.636668613705424,0.0584676199226733
18.039508,9.682813270387364,0.05817803212781
18.041903999999995,9.725000947404718,0.0578717149875361
18.044296,9.766816537369737,0.0575512471368319
18.046676,9.801182802856522,0.0572411637370743
18.049071999999995,9.836899542783671,0.0569196111047438
18.05146,9.877319332337954,0.0565674286325136
18.053844,9.9137349203994,0.056229916226806
18.056239999999995,9.946053759169397,0.0558799447970285
18.058628,9.977069345327278,0.0555151189916767
18.061008,10.00356887331313,0.0551522657779429
18.063404,10.0195460408877,0.0548064712327728
18.065792,10.036222056596568,0.0544399178032989
18.068176,10.043446647080795,0.0540841790290023
18.070572,10.056165683125077,0.0537023113327902
18.072956,10.071817985475551,0.0533155496474213
18.075356,10.08304677745261,0.0529539279695238
18.077752,10.09399603017595,0.0526018675418079
18.08014,10.101592707712513,0.0522692251933647
18.082519999999995,10.103043313382967,0.0519558661207203
18.08492,10.107799272411953,0.0516559261835328
18.087308,10.113346627373854,0.0513597170199214
18.089687999999995,10.125132602000487,0.0510698098184395
18.092088,10.13514879330618,0.0508052557891154
18.094476,10.147259633156905,0.0505600239117489
18.09686,10.161884430433243,0.0503241967886008
18.099256,10.169664307709176,0.050127076141833
18.101644,10.179538833530138,0.0499495699824099
18.104028,10.190437072709496,0.0497952866187651
18.106424,10.204640665247386,0.0496527027046635
18.108812,10.22187007189009,0.0495298826070819
18.111192,10.249482069317212,0.0494014442611978
18.113596,10.274765204915957,0.0493132814561158
