Time,Force,Position
13.834575999999998,2.499918781122069,0.1660582498282488
13.836959999999998,2.65278469479704,0.164289400638364
13.83934,2.7927559561198434,0.1629392102026268
13.841735999999996,2.929608855539218,0.1616087305290203
13.844124,3.0675799119734743,0.1603179523925114
13.846519999999998,3.2062044905716576,0.1587975799337988
13.848916,3.3419449205497584,0.157190060601952
13.851304,3.470424913362605,0.1554753692309479
13.853683999999998,3.598349619383749,0.1534182146862812
13.856088,3.7152420041722825,0.1516540613788574
13.858476,3.8172376358622326,0.1502382231652518
13.860855999999998,3.910203047065989,0.1488603539362755
13.863252,3.997723130395805,0.1474560874230525
13.86564,4.078959268090519,0.1461534799413003
13.868019999999998,4.149767489030438,0.1451051324331237
13.870416,4.218715274708669,0.1439375222374194
13.872804,4.279796322885962,0.142861984539009
13.875183999999996,4.327376418375404,0.1420515424352416
13.877588,4.374212339760172,0.141227945401559
13.982712,4.841696739928678,0.14084374907268
13.985108,4.840812796197143,0.1408013235524829
13.987496,4.83806652134605,0.1407948841927981
13.989876,4.834948159442621,0.1407617453280742
13.992276,4.829735148994157,0.1407264049330546
13.994664,4.822287720373801,0.1406999206492093
13.997044,4.821265902873275,0.1404988779070495
13.999447999999996,4.814749639812696,0.140454182383096
14.001835999999996,4.811398960483789,0.140382496844319
14.00422,4.810282699326777,0.1403018740951244
14.006615999999998,4.813729718170039,0.1400827162380939
14.009003999999996,4.81294021809499,0.1399196212995984
14.011384,4.811778630967605,0.139729364170845
14.01378,4.810617043840217,0.139539868024073
14.016168,4.806941499287216,0.1393808741158946
14.018548,4.806431538465889,0.1391988076418968
14.020944,4.807783908764117,0.138982377596074
14.023332,4.812721171674598,0.1387097894722192
14.025712,4.825806607197606,0.1382527901417342
14.028112,4.840382286787835,0.1377392965176467
14.0305,4.856867519325864,0.1371373311389946
14.192971999999996,4.72946604513113,0.1368628731882725
14.195359999999996,4.744315576401473,0.1368265604625402
14.19774,4.765311179537924,0.1366525682828413
14.200143999999998,4.796829143085658,0.1362849121893011
14.202531999999998,4.832351308126225,0.135830070371343
14.204912,4.865591833166654,0.1354407322872588
14.207311999999998,4.901346315632699,0.1350228356174843
14.209695999999996,4.933608453285107,0.1347091103097056
14.21208,4.969595253176628,0.1343333206132361
14.214475999999998,5.009306715307264,0.1338999420241191
14.216863999999998,5.051160047811176,0.1334229726534588
14.219244,5.091662905874729,0.1329999173943318
14.221643999999998,5.132445303192003,0.132556589387034
14.224028,5.1803049379351656,0.1319696334792404
14.226412,5.229095738238106,0.1313653725136323
14.228807999999995,5.279609100033744,0.1307474984542847
14.231196,5.329051526642742,0.1301732376123087
14.233591999999998,5.380775593251878,0.1295555075473461
14.235988,5.433850134301373,0.1289001435670427
14.238376,5.493210516843839,0.1281249593598804
14.240759999999998,5.549637633080111,0.1274219797765345
14.243156,5.604481957450545,0.1267447630366578
14.245544,5.648664151782837,0.1262444429322558
14.247927999999998,5.685397021636904,0.1258624436486149
14.250324,5.719895473319076,0.1254865046626578
14.252707999999998,5.7598883705613,0.1250001321749629
14.255088,5.800580115937826,0.1244745820461779
14.257492,5.841319083142594,0.123895798215156
14.259875999999998,5.876471056988693,0.1233907825324603
14.262256,5.910319778222676,0.1228853148379849
14.26466,5.941002915724987,0.1224000219204425
14.267048,5.968800008749345,0.1219098979913769
14.269427999999998,5.995945475467646,0.1214154988357953
14.271828,6.020576984760332,0.1209500150157798
14.274216,6.047118047000818,0.1204178028839725
14.276595999999998,6.067700028830297,0.1199304002233423
14.278992,6.08711852767452,0.1194295457577099
14.281375999999998,6.10323167316021,0.1189547256245968
14.283759999999996,6.113897594914091,0.1185365670389104
14.286155999999998,6.119535601816743,0.1181561550635512
14.288539999999998,6.124289664987859,0.1177414006104298
14.290924,6.123736274054026,0.1173724858464032
14.293323999999998,6.132821299799939,0.116835028041494
14.295711999999998,6.141022381814318,0.1162602401930142
14.298092,6.147128815283663,0.115674264309542
14.300487999999998,6.147276168342,0.11513142097727
14.302875999999998,6.144397707295525,0.1145887563487709
14.305272,6.145151360689546,0.1139699650989677
14.307668,6.152889703710839,0.1132135863447797
14.310056,6.155320592627182,0.1124983823404377
14.31244,6.156448228931409,0.1117696333998496
14.314836,6.1592058789297175,0.1109897013772181
14.317224,6.16107958519649,0.1101715114729591
14.319603999999998,6.157925376612034,0.1093763012759667
14.322,6.150255109855545,0.1086190738300848
14.324388,6.14821905828597,0.1077580279123639
14.326767999999998,6.139664847797945,0.1069555849586365
14.329176,6.128177371003726,0.1061854992569047
14.33156,6.125397145329476,0.1052730327347371
14.333944,6.119543883722171,0.1044005542765614
14.33634,6.113271313234285,0.1035534124033424
14.338728,6.1127255057319285,0.1026457245172785
14.341107999999998,6.107244331176961,0.1018017616425662
14.343504,6.104277114047608,0.1009493957707091
14.345892,6.10847968214276,0.1000534549974498
14.348271999999998,6.114776898782946,0.0991737822027734
14.350668,6.124099929527945,0.0983044060084603
14.35306,6.130302702511645,0.0975251869590066
14.355435999999996,6.130871260308431,0.0968405211864263
14.357844,6.1387493729565845,0.096106620811103
14.360228,6.147651198963133,0.0954036856938662
14.362612,6.157157429447497,0.0947566949787985
14.365008,6.171272265902508,0.0941249583042148
14.367396,6.190926873887949,0.0934984174689577
14.369775999999998,6.219334058963729,0.0928412913234694
14.372176,6.250347749263743,0.0922290622803542
14.37456,6.2918365781467935,0.0915776146863076
14.376943999999998,6.340355422627491,0.0909021086463269
14.379348,6.384123995652811,0.0903598551414733
14.381732,6.4349225842757765,0.0897951236977906
14.384111999999998,6.486093259951078,0.0892570738012177
14.386512,6.535354382678582,0.088780890975902
14.388896,6.583637118018064,0.0883545340442875
14.391279999999998,6.629870530782885,0.0879935744991635
14.393676,6.670469728360794,0.087717534888799
14.396064,6.713862422618037,0.0874300385808753
14.398443999999998,6.756184181688642,0.087158938595209
14.40084,6.797295235945748,0.0869057023315751
14.403228,6.840780478001609,0.086656250647966
14.405624,6.877840108937638,0.0864844267167989
14.451024,7.046041043170466,0.0863809850780831
14.453412,7.052559202088915,0.086346441893809
14.465352,7.089197628286495,0.0863303383642099
14.46774,7.099672766869534,0.0863026057095923
14.474919999999996,7.1220188444463455,0.0862966615606489
14.4773,7.130352112656107,0.0862913825695353
14.505964,7.192082891281586,0.0862857129249513
14.508367999999995,7.183889392698686,0.0862832630394729
14.510756,7.177837764489062,0.0862580998076236
14.513136,7.177001042585769,0.0861826582785038
14.515532,7.170577327323808,0.086136568034772
14.51792,7.163222446502068,0.0860953577340457
14.520304,7.15987176717316,0.0860214776668324
14.5227,7.161224137471389,0.0858828685308789
14.525088,7.16113348553064,0.0857347545593822
14.527468,7.160950285791276,0.0855542046724982
14.529864,7.159463833439794,0.0853576968041519
14.532252,7.163891135528947,0.0850811815754653
14.534636,7.163383070565488,0.0848404480387627
14.537032,7.16315454485575,0.0845858021539681
14.53942,7.167489299146285,0.0842755215025721
14.5418,7.169170326384346,0.0839724752186525
14.5442,7.166335295450376,0.0836849584514999
14.546588,7.164850738956766,0.083373583074296
14.548983999999995,7.167649923209709,0.0830181420037406
14.551379999999998,7.170169568208929,0.0826750659864391
14.553767999999998,7.174691313954568,0.0823161986652893
14.556151999999996,7.17870120302101,0.0819426725292865
14.558556,7.183270170594894,0.081545652889602
14.560944,7.190400317422633,0.0811119748835836
14.563323999999998,7.201814204996928,0.0806360502417038
14.56572,7.217791372571495,0.0801070126622779
14.568108,7.232045978653367,0.079582631719572
14.570487999999996,7.244158714361964,0.0790819337183528
14.572892,7.258273550816975,0.0785685775105938
14.57528,7.267033711338795,0.0781063190242977
14.577659999999998,7.277656202980171,0.0776377609679188
14.580056,7.28571751536769,0.0772113197228791
14.582444,7.299924899621318,0.0767395494276718
14.584823999999998,7.316274154248225,0.0762482543699195
14.587228,7.328479437755436,0.0757923021877132
14.589616,7.340684721262648,0.0753345555400201
14.591995999999998,7.361829573315306,0.0748234716936873
14.594392,7.381623950927605,0.0743346472512007
14.59678,7.399928084472684,0.0738756211868646
14.599159999999998,7.419163383577542,0.0734135273180853
14.601556,7.437327747495763,0.0729613492737607
14.603943999999998,7.458145838466457,0.0725077088631097
14.606327999999998,7.477194146116212,0.0720954256781727
14.608724,7.491399634511971,0.0717459252257072
14.611107999999998,7.501973008467235,0.0714416823036985
14.613488,7.513849635034616,0.0711586985524018
14.615892,7.523584391228718,0.0708932277326367
14.61828,7.533831004102018,0.0706432304939215
14.620663999999998,7.543518538467876,0.0704178819906685
14.62306,7.557861900632626,0.0701780702678978
14.625448,7.571506414663077,0.0699686475717707
14.627827999999996,7.584219763133748,0.069762910706269
14.630228,7.593720306044505,0.0695845551295538
14.632616,7.606386432686931,0.0694199492944711
14.634995999999996,7.619983724889138,0.0692529552397626
14.637391999999998,7.639307780076875,0.0690658069405488
14.639779999999998,7.651135288958143,0.0689380526034644
14.642163999999998,7.664964898585826,0.0687999122065182
14.644559999999998,7.680005213027009,0.0686486673468766
14.646947999999998,7.697978793774387,0.0684858656443714
14.649328,7.719537267134017,0.0683200659368446
14.651732,7.73988503568015,0.0681693303597691
14.65412,7.762234904972698,0.0680089997493899
14.656499999999998,7.785655709451885,0.0678402876435656
14.6589,7.812289319490989,0.0676476725224649
14.661283999999998,7.831054296171284,0.0674907869954292
14.663667999999998,7.850750438411357,0.0673311538688961
14.666064,7.868863788785596,0.0671653170308589
14.668451999999998,7.886465282480636,0.0669857525512419
14.670835999999998,7.902344214682978,0.0668061609787672
14.673232,7.915848959086568,0.0666165408220169
14.67562,7.929074164236438,0.0664383116399109
14.678003999999998,7.940948894945948,0.0662789161922116
14.6804,7.947655941177371,0.0661169396022619
14.682788,7.95529415296857,0.0659532990456761
14.685167999999996,7.9561346665876,0.0658162563322488
14.687563999999998,7.960467525020267,0.0656451571514257
14.689956,7.966150857893292,0.0654565972152155
14.692335999999996,7.970763255579679,0.0652761343108581
14.694731999999998,7.974584257333148,0.0650937605346902
14.697124,7.974028970541446,0.0649106489691738
14.699503999999996,7.970819956697269,0.0647277241868368
14.701899999999998,7.967099086173893,0.0645311902483699
14.704292,7.967010330091014,0.0642978544659724
14.706671999999998,7.967201113261858,0.064054646891715
14.709072,7.975679838672086,0.0637657822787512
14.71146,7.990584175202147,0.0634373884593207
14.713839999999998,8.006559446918846,0.0631024182780316
14.71624,8.021603553075767,0.0627696235648728
14.718628,8.03692719848641,0.0624272313426595
14.721011999999998,8.054532483897187,0.0620662115094982
14.723408,8.073628013375187,0.0616838133987199
14.725796,8.095424491733903,0.0612676948388236
14.728179999999998,8.121085401958592,0.0608419568241202
14.730576,8.144092585130805,0.0604159618195443
14.732964,8.172035135355632,0.0599727605423949
14.735347999999998,8.196764880020542,0.0595501469118237
14.737744,8.218002279871818,0.0591593245889811
14.740132,8.237377348603536,0.0587710110525361
14.742515999999998,8.251537511028923,0.0584103526532647
14.744912,8.268630939760504,0.0580413358483335
14.7473,8.286655534051864,0.057670416125093
14.749683999999998,8.30053615722353,0.0573200324980651
14.752084,8.31106420520842,0.0569963173313352
14.754472,8.324385749872643,0.0566721910534072
14.756852,8.327696790804783,0.0563843786740348
14.759252,8.324582220617094,0.0561350808120688
14.76164,8.32239881598918,0.0558852343128736
14.76402,8.31914447617463,0.0556407307323501
14.76642,8.315331057852637,0.0554166728198604
14.768808,8.311749956956124,0.0552174285263363
14.771188,8.306958151246109,0.0550294414415813
14.773584,8.299884705535959,0.0548582275094479
14.775972,8.288667288706115,0.0547051665092335
14.778351999999998,8.279032663742106,0.0545601883818444
14.780752,8.264602441352345,0.0544235714493407
14.78314,8.256178521201836,0.0542676671877344
14.785519999999998,8.248034140305045,0.0541013186913047
14.78792,8.245476752766926,0.0539312572470061
14.790304,8.246923566721643,0.0537481736193527
14.792687999999998,8.249022006982415,0.0535753062678119
14.795084,8.251911843176106,0.0534067566155643
14.797468,8.260528442355326,0.0532298155311845
14.799851999999998,8.267003171161269,0.0530637868166014
14.802252,8.266260892914463,0.0529270044116114
14.804636,8.274038874332524,0.0527797447988258
14.807019999999998,8.277393345377169,0.0526587830774688
14.809416,8.279397341981454,0.0525537358202298
14.811799999999998,8.285777627130912,0.0524561434962179
14.814196,8.29229768190723,0.0523535874851835
14.816592,8.297886571123769,0.0522516975294844
14.81898,8.303195921086587,0.052159928642633
14.82136,8.310879458848161,0.0520817362941133
14.823764,8.32601232108796,0.0519999255361479
14.826152,8.33993447851426,0.0519284955749121
14.847644,8.384258338331282,0.051885105735218
14.850027999999998,8.389845331689951,0.05188269182931
14.852424,8.392778597996148,0.0518766307088032
14.854812,8.403068640981953,0.0518381370437096
14.857208,8.414569388781256,0.0517895908391781
14.859603999999996,8.423695948781805,0.0517278413859482
14.861991999999995,8.430960177662797,0.0516667900431433
14.864376,8.436781384304814,0.0515916940249409
14.866771999999996,8.439948863894356,0.0515124746271506
14.869156,8.440090529379084,0.0514100133340238
14.87154,8.427056107400059,0.0513166998873726
14.873936,8.412578663182057,0.0512086816902261
14.876324,8.396658196725076,0.0510861934122118
14.878708,8.380365643215757,0.0509434241738342
14.881104,8.366494499333438,0.0507796788690797
14.883492,8.348898693212005,0.0506156432062972
14.885872,8.32878892966496,0.0504412615548182
14.888268,8.306025439065436,0.0502615563739043
14.89066,8.275672854360828,0.0500882630622049
14.89304,8.238662341110912,0.0499203193387102
14.895436,8.196204604129184,0.049746810438324
14.897824,8.148299643415648,0.049567830429213
14.900204,8.094807689343442,0.0493875821517661
14.902604,8.035868511539425,0.0492009621137491
