Time,Force,Position
13.490783999999998,3.1868617553856056,0.1599806804651743
13.493163999999997,3.4014961902249548,0.1579307111498665
13.495559999999998,3.6020743855847512,0.1561664514206373
13.497947999999996,3.780308399225606,0.1552220104971288
13.500328,3.941458463424226,0.1546486916655685
13.502723999999995,4.098141587136928,0.1538818089720919
13.505111999999995,4.248867526296491,0.1531275397298543
13.507507999999998,4.391262093104161,0.1523117205772699
13.509904,4.52630367494796,0.1513720399477871
13.512292,4.6486848177229385,0.1504585080853537
13.514671999999996,4.756543190309542,0.149600595108016
13.517076,4.847225065655291,0.148864913861434
13.519464,4.922685322678363,0.1482027516278672
13.521843999999998,4.991304451416761,0.1474204005558315
13.524247999999996,5.051033129295826,0.1466588134272806
13.526632,5.099589716315421,0.145994503712717
13.529016,5.145913781020989,0.1451878583019303
13.531412,5.187444144158676,0.1443509475803624
13.533796,5.226322676101758,0.1434103444926722
13.536179999999998,5.250908859424071,0.1426753862136625
13.538576,5.269535962335376,0.142023647756246
13.540964,5.282389080432907,0.1415427536366976
13.543343999999998,5.296358459687451,0.1411359681899708
13.54574,5.3148892230844,0.1407527832673185
13.548127999999998,5.335374865399523,0.1403785418631404
13.550507999999995,5.35385840696823,0.1400553845892258
13.552903999999998,5.3659635592453485,0.1398417315010058
13.555291999999998,5.381049199656905,0.139520804243769
13.557671999999997,5.394132739322044,0.139246441728917
13.560071999999998,5.409310927532217,0.1389779852695067
13.562459999999998,5.430820283205736,0.1386690151098655
13.564839999999997,5.453306130409406,0.1384393060555416
13.567235999999998,5.483753158770501,0.138103620518765
13.569623999999996,5.514060417504735,0.137782579723486
13.784668,6.141395420975518,0.137778460091722
13.787048,6.141674960229236,0.1377614988672972
13.791836,6.144747996162294,0.1377051227942307
13.794216,6.148612428028267,0.1376438493703776
13.796615999999997,6.153919882133216,0.137581123050362
13.808552,6.181758509412207,0.1374047043227017
13.810948,6.191255260607225,0.1373466840327886
13.813336,6.208341105907327,0.1371734148410699
13.81572,6.23264395826018,0.1368658438389126
13.818116,6.260951012105867,0.1364924430461896
13.820504,6.288978526697834,0.1361373445971762
13.822888,6.311651365356608,0.1358906803260387
13.825284,6.334556521440859,0.1356752045028858
13.827672,6.355831663831031,0.1355202942343518
13.830056,6.376175640661424,0.1353786566105099
13.832452,6.400384049357792,0.13518090001184
13.83484,6.421379652494245,0.1350468156913201
13.83722,6.444517126003974,0.1348743112319671
13.839623999999995,6.472869505820035,0.1346106205874692
13.842011999999997,6.506017483061847,0.1342858385255597
13.844392,6.543588970677075,0.1338776498171189
13.846791999999995,6.578227191986107,0.1335168248847178
13.849179999999995,6.619430794041831,0.1330323222487408
13.85156,6.663707432030612,0.1324940189067012
13.853959999999995,6.712547350019665,0.1318594239503863
13.856344,6.756451900956107,0.1313015333538053
13.858728,6.799984364840211,0.1307328354619448
13.861123999999997,6.837138439432727,0.1302419431679948
13.863511999999997,6.869496916599492,0.1298230553415877
13.865896,6.895057695594087,0.1294990123338587
13.868291999999997,6.920246387536346,0.129156326597852
13.870679999999997,6.952140229852154,0.1286884985483224
13.873075999999998,6.983010358809568,0.128199349308284
13.875471999999998,7.007641868102255,0.1277711874643809
13.877859999999998,7.0336238518353,0.1273113013101371
13.880239999999995,7.0533672159036165,0.126914471484711
13.882635999999998,7.0722266362404,0.1264855619191002
13.885023999999998,7.08698930728573,0.1260831551872605
13.887407999999995,7.096304754599252,0.1257400988208541
13.889803999999998,7.099800891128628,0.1254372033693452
13.892191999999998,7.097337947246994,0.1251781875740522
13.894571999999997,7.097715721872939,0.1248481865967342
13.896967999999998,7.094648373513492,0.1245458497731921
13.899355999999996,7.093909886982424,0.1241629327882264
13.901739999999997,7.0890746511599065,0.123799840381323
13.904135999999998,7.089082234591384,0.1233408030901796
13.906523999999996,7.08378236391791,0.1229245662936447
13.908904,7.080392046192237,0.1224472276156457
13.911299999999995,7.077840346227727,0.1219273393493498
13.913687999999995,7.080550774397791,0.1212902087323781
13.916072,7.084658898836456,0.1205838985516018
13.918467999999995,7.084250965103091,0.1199208881391153
13.920855999999995,7.085333275436943,0.11922290558192
13.923251999999998,7.093120736144346,0.1184148833176897
13.925648,7.096811447560301,0.1176220309778689
13.928036,7.105065438976529,0.1167515208805872
13.930419999999998,7.116392466325812,0.1158425992180305
13.932811999999998,7.127719493675095,0.1149312796385393
13.935199999999998,7.1410486217707945,0.1139949367261453
13.937583999999998,7.152375649120077,0.1130808721940957
13.939979999999998,7.165425237962056,0.1121544750283005
13.942367999999998,7.1749824819904005,0.1112928271209193
13.944747999999995,7.183608560458966,0.1104409762096644
13.947148,7.186320884486897,0.109694945702643
13.949535999999998,7.194200892992919,0.1089221185082432
13.951915999999995,7.202732527804997,0.1081631844401619
13.954316,7.215640451162247,0.107376791606849
14.073784,6.722663173645453,0.1069193569737693
14.076183999999998,6.710559917226203,0.1069007180375917
14.078567999999995,6.703112488605846,0.1068439251041795
14.080948,6.692452254425573,0.1068316264680019
14.083343999999997,6.6896606536041086,0.1067359584590305
14.085731999999997,6.691617428380152,0.1066351351140578
14.088116,6.696739786887869,0.1065308448060911
14.090511999999997,6.705307268380976,0.1064089525318459
14.092896,6.713455440993504,0.1063076884074688
14.095275999999998,6.723326175098728,0.1061981378778248
14.097672,6.737433428122261,0.1060695074059127
14.10006,6.75498580413119,0.1059221812647881
14.135907999999995,6.931465201314061,0.1058579724712404
14.138288,6.945989867360306,0.1058333375947975
14.140691999999998,6.966381066018943,0.1057496327601546
14.143075999999995,6.983838998371384,0.1056955855438005
14.14546,7.003718340350823,0.1056007268188801
14.147855999999996,7.020664416024068,0.1055341997139936
14.150243999999995,7.039333053190008,0.1054606069599035
14.152624,7.054788884796032,0.1054298190195565
14.155023999999996,7.07490054420095,0.1053619670360582
14.157411999999995,7.098225009165781,0.1052510388849992
14.159792,7.1186162078244175,0.1051705487455288
14.162187999999995,7.14780720540164,0.1050022554152331
14.164575999999997,7.174437023725004,0.1048828477566071
14.166956,7.201486150928949,0.1047412525462484
14.169352,7.22453107664006,0.1046421269984389
14.17174,7.250509268657368,0.1045138811575568
14.174124,7.277046539182114,0.1043586868505907
14.176519999999996,7.299067751534831,0.1042348886538016
14.178908,7.326024330940159,0.104061388843317
14.181288,7.351909975158849,0.1039046232555716
14.183691999999995,7.373791417884703,0.1037917937139857
14.186079999999995,7.391900976543203,0.103747724520638
14.188464,7.40600633370887,0.1037457711439378
14.190855999999997,7.425186827554008,0.1036895342397871
14.193244,7.440223350279452,0.1036818390853407
14.195624,7.464059671923482,0.10359348635966
14.198023999999997,7.484962727261316,0.1035324598821517
14.200408,7.507867883345567,0.1034506328061978
14.202787999999998,7.527188146817565,0.1033901467633046
14.205188,7.545437475102926,0.1033434712710324
14.207576,7.56089330670895,0.1033167573159061
14.209971999999995,7.57355564163564,0.1033111541917491
14.212367999999998,7.587708220629549,0.1032728638838229
14.214755999999998,7.60651662742235,0.1032014646324223
14.217135999999996,7.631610875708121,0.1030583372666916
14.219531999999996,7.655773958434114,0.1029230524172871
14.221919999999995,7.679517732279528,0.1028072543155151
14.2243,7.708057103550692,0.1026534814900017
14.226695999999995,7.733942747769381,0.1025153424292612
14.229083999999997,7.757966060868514,0.1023908954054535
14.231464,7.783339848408007,0.1022419122017854
14.233867999999998,7.807689922589103,0.1020672252184258
14.236255999999996,7.839955851957248,0.101790623338448
14.238636,7.867565953526504,0.1015483261755426
14.241035999999998,7.8968060687898385,0.1012704674297121
14.243423999999996,7.921158038828803,0.1010050198894496
14.245804,7.949840971442567,0.1006587621187248
14.248199999999995,7.979502291444352,0.1002732556585585
14.250587999999995,8.011864560326854,0.0998419556309143
14.252968,8.042831028798624,0.0993702800341346
14.255367999999995,8.079990790964748,0.0988081699331821
14.257755999999995,8.118688019026333,0.0981870011832655
14.260136,8.157060381863825,0.0975165324794447
14.262535999999995,8.193385317984525,0.0968066093189101
14.264919999999996,8.226172583321215,0.0960845823599471
14.267304,8.259705918620451,0.0953040390713521
14.269699999999997,8.292542301643255,0.094455821574918
14.272087999999997,8.32132915720285,0.0935821601758523
14.274472,8.35207278753849,0.0926372273279678
14.276867999999997,8.380908760784196,0.0916379758347268
14.279255999999997,8.407557537686255,0.0905985818064087
14.28164,8.438165190110771,0.0894698046616308
14.284035999999997,8.459368639138889,0.0883694924841064
14.286423999999997,8.484530963689464,0.0871839869231572
14.288819999999998,8.508437257456166,0.0859561242692889
14.291224,8.527734945252224,0.0847154124965725
14.293608,8.539071451890853,0.0834965254529677
14.295991999999998,8.54901215811875,0.0822395181332224
14.298388,8.56049033024211,0.080932557875074
14.300771999999998,8.576671551992607,0.0795815314918317
14.303155999999998,8.586614154078374,0.0782489542649711
14.305552,8.595113733925166,0.0769139686269506
14.30794,8.6029616874659,0.0755736163574747
14.310319999999995,8.607876374700437,0.0742489139436022
14.312715999999998,8.611348039695999,0.0729140941126264
14.315103999999998,8.612817603945144,0.0715923301891801
14.317483999999997,8.618151600060264,0.0702614213055743
14.319883999999998,8.6254876969218,0.0689239251028323
14.322267999999998,8.628260513783061,0.0676290658456241
14.324651999999997,8.637271950309051,0.0663334102234772
