Time,Force,Position
17.4287,4.487404038193103,0.1758243452069136
17.431096,4.534797142227442,0.1746645075560808
17.433484,4.573112803947344,0.1736850761701899
17.435868,4.606727311897981,0.1727569788318098
17.438268,4.634150422012133,0.1719318605680279
17.440652,4.660177731715552,0.1710659712571269
17.443036,4.687183428806993,0.1701187258260869
17.44544,4.7058086358604285,0.1694214377439561
17.447828,4.719498475861252,0.1688911282904768
17.450208,4.729695971048439,0.1685084727460381
17.452608,4.738822531048988,0.1681680244910178
17.454996,4.747297464743479,0.1678337666446541
17.457376,4.754701463251331,0.1675411930031956
17.459772,4.762896857692102,0.1672369897541173
17.46216,4.771743878438931,0.1669354076842626
17.46454,4.781801603999258,0.1665882957219337
17.46694,4.793349573626805,0.1661782902932677
17.469328,4.810112449560683,0.165621273078886
17.471708,4.827946260681201,0.1650359887196518
17.474108,4.841496331055163,0.1645790964826212
17.476496,4.855977566988905,0.1640957916598707
17.478876,4.8764651051618975,0.1634502927009189
17.481272,4.894950542588473,0.1628568197712645
17.48366,4.911573648895492,0.1623119399045687
17.486044,4.930850482254985,0.1617107807646533
17.48844,4.948776841174119,0.1611687617057219
17.490828,4.964561329719976,0.1606975558593527
17.493212,4.983418854198891,0.1601368859624058
17.495608,5.001857069797223,0.1596102765593021
17.497996,5.017082479835639,0.1591802473759476
17.50038,5.029234853941001,0.1588382419178071
17.50278,5.039245357673085,0.1585661209256608
17.505168,5.046182825472114,0.158382505840759
17.531456,5.049395631032029,0.1582695934932304
17.533844000000002,5.04995470953947,0.1582256965578013
17.536224,5.05186426248727,0.15812941950633
17.538624,5.055915685808348,0.1579730345841013
17.541012000000002,5.059967109129424,0.1578177739053654
17.543396,5.061504575024886,0.1576978097440609
17.545792,5.065742989801066,0.1574721451375867
17.54818,5.074777002002998,0.1571381929145447
17.550564,5.082740079018292,0.1568341908775169
17.552964,5.091774091220223,0.1564988944571321
17.555352,5.096803901929323,0.1562643770269345
17.557736000000002,5.100902547078642,0.1560504018564826
17.560132,5.108865624093937,0.1557491154548764
17.56252,5.118039405922728,0.1554076137991624
17.5649,5.130286223684576,0.1549785698704127
17.567296,5.145606077379479,0.1544713526066734
17.569684,5.160925931074381,0.1539690003325307
17.572068,5.174383453649727,0.1535098409510465
17.574464,5.1887721417848525,0.153030949485008
17.576856,5.200227563613783,0.1526250270545339
17.579236,5.2121022943232935,0.1521880030830429
17.581632,5.222114693913246,0.1517920600800341
17.58402,5.231195927943422,0.1514168565563434
17.586404,5.237343895667401,0.1511089256734666
17.5888,5.241489762644964,0.1508482671464338
17.591188,5.255506363727752,0.1503695885937607
17.593572,5.270593899997177,0.1498669154249907
17.595968,5.28316747884099,0.1494018665535411
17.598356,5.298162467311798,0.1488624740367911
17.600736,5.315299326155882,0.1482728618273935
17.603136,5.338070400186882,0.1475308337642867
17.605524,5.361912409404519,0.1467655758485459
17.607904,5.381098590823266,0.1460878494770859
17.610304,5.396699879629757,0.1454654789292393
17.612692,5.416724678809663,0.1447305730473496
17.615072,5.435678542802933,0.1440304241243269
17.617468,5.454772176423061,0.1433264937894437
17.619856,5.476938845976245,0.1425635347637251
17.62224,5.499385054783149,0.1417833282043326
17.624636,5.523041968403552,0.140972204244595
17.627024,5.545627946837317,0.1401875879697451
17.629408,5.5712869612041365,0.1393467816435065
17.631804,5.596945975570957,0.1385085979798275
17.634196,5.622744759564638,0.1376584799025912
17.636576,5.652035888371955,0.1367198130064257
17.638972,5.673086296768126,0.1359231803908294
17.641364,5.693996935537438,0.1351435013476858
17.643744,5.71411617837383,0.1343708346496788
17.64614,5.731302154904029,0.1336524760678147
17.648528,5.748767670687948,0.1329256272547565
17.650912,5.761809676098451,0.1323062126396981
17.653308,5.774200055202899,0.1316855679588369
17.655696,5.789011843934341,0.1310006332441985
17.65808,5.803823632665785,0.1303084766121644
17.660476,5.814910759158115,0.1296766877807941
17.662864,5.823204388971111,0.1290854118653327
17.665248000000002,5.831637788410967,0.1284892636665483
17.667644,5.833273489678655,0.1280041525846916
17.670032,5.832907090199925,0.1275535587691345
17.672412,5.830818129228499,0.1271207109151112
17.674808,5.829800103443711,0.1266655120530211
17.677196,5.819842509113478,0.1263623411521747
17.67958,5.809093518850326,0.1260623801822372
17.681976,5.798204758960315,0.1257707549084601
17.684368,5.782101092763972,0.1255795384177877
17.686752000000002,5.767300679179743,0.125397772780459
17.689148,5.747425128916042,0.1253081467204774
17.703488,5.61033612035545,0.1252932766129578
17.705876,5.589202643450007,0.1252775538739315
17.70826,5.568860562477483,0.1252564037684807
17.710656,5.553314078930711,0.1251614902502807
17.713048,5.53655689057044,0.1250955486521622
17.715428,5.5235243644492815,0.124979800137989
17.717828,5.515427205380737,0.1247832032551169
17.720216,5.507190276685329,0.1245948200249578
17.7226,5.50081567910948,0.1243820548743352
17.724996,5.504591354892575,0.1239939430377407
17.727384,5.511160527355005,0.1235717339804219
17.729768,5.521082275004211,0.1230804743497587
17.732168,5.537010324892668,0.1224935125193345
17.734556,5.550144878101789,0.1219388834913771
17.73694,5.57021689910994,0.1212745246427846
17.739336,5.591499624931588,0.120580806370882
17.741724,5.611199558887401,0.1198955983404007
17.744108,5.637976730269101,0.1190931002896585
17.746504,5.665265758330001,0.1183070876617061
17.748896000000002,5.6925547863909,0.117519872027609
17.75128,5.725570577437329,0.1166613115705851
17.753676,5.754442397364066,0.1158826723143998
17.756064000000002,5.781172346917526,0.1151433959558177
17.758448,5.802315303112314,0.114475007969296
17.760848,5.822387324120465,0.1138266247842134
17.76324,5.844461445875031,0.1131526171444366
17.765616,5.862391596509904,0.1125538022905243
17.768012,5.8819045390106135,0.1119525378532598
17.770396,5.8974132800184895,0.1114132766677838
17.772776,5.903423373973478,0.1110396567349137
17.77518,5.904358331248994,0.1107449520045929
17.777564,5.903011648524373,0.1104985355985653
17.779944,5.897660764306921,0.1103112123373522
17.782336,5.897385016768938,0.1100468353777486
17.784724,5.89510716848454,0.1098128751276582
17.787104,5.8914788457597815,0.1096140791410031
17.7895,5.888222610087361,0.1094390139536729
17.791888,5.878820302548831,0.1093570598458194
17.806208,5.788230975001697,0.1093498176455537
17.815748,5.734557717047996,0.1092845665724037
17.818164,5.72087166876291,0.1092722691342183
17.820548,5.714262857903715,0.109157412317917
17.822932,5.7124496444702695,0.108984561559318
17.825324000000002,5.711288057342883,0.1088193343400021
17.827712000000002,5.709707161334917,0.1086794198170254
17.832496,5.69383391670618,0.1086117813747251
17.834884,5.685175783272324,0.1085744000794679
17.837264,5.67558648427869,0.1085469415135384
17.839668,5.670932552337668,0.1084528914827072
17.842056,5.669351656329701,0.108311894609571
17.844432,5.665908429202177,0.1081902356429657
17.846836,5.6669812602466845,0.1080271303383486
17.849224,5.670847587970528,0.1078349946500828
17.851604000000002,5.676576246813928,0.1076234358196131
17.853996,5.683236071217105,0.1074028447474624
17.856384000000002,5.680537018194257,0.1073303829748703
17.858764,5.681981936291101,0.1071926116942961
17.861172,5.683426854387947,0.1070550644982227
17.86356,5.686362016552012,0.1068731652568676
17.865940000000002,5.691159509835633,0.1066732157600085
17.868336,5.697167707932753,0.1064496824810313
17.870724,5.702664049350674,0.1062120436447235
17.873104,5.7057862029698425,0.1059763658914289
17.875508,5.709467435096451,0.1057061728255053
17.877896,5.715290537596337,0.1054010793200967
17.880276000000002,5.728190877522112,0.1049962648630491
17.882672,5.742813778940583,0.1045867212203732
17.88506,5.760509716292109,0.1041350344381709
17.88744,5.772339121031246,0.1037527439694245
17.889844,5.781375029091047,0.1033974748500977
17.892232,5.791342102710627,0.1030315239681051
17.894616,5.799586614837509,0.102675269584214
17.897012,5.805829026217974,0.1023471336243553
17.899396,5.81207143759844,0.1020205798354754
17.90178,5.818593388232627,0.1016792918330096
17.904176,5.830330245173148,0.1012572346666092
17.90656,5.841135936553887,0.1008458244599292
17.90894,5.849659987934492,0.1004756756710582
17.911344,5.857485191180794,0.1001480681409207
17.913732,5.862237358494042,0.099864061362462
17.916116,5.861774619500957,0.0996570280209502
17.91852,5.859170010134593,0.0994836993443297
17.920904,5.860150293380485,0.0992852692235938
17.923288,5.864855238865489,0.0990550230487534
17.925692,5.868489249163854,0.0988419100343407
17.92808,5.869981389088943,0.0986623355580885
17.93046,5.864815600468722,0.0985468377309319
17.932864,5.858067019982665,0.0984308289865852
17.935252000000002,5.858255907295638,0.0982352911335465
17.937632,5.861378060914806,0.0980081794674257
17.940028,5.871437682333004,0.0977061696823078
17.942416,5.886712210057533,0.0973379897426768
17.944796,5.902126507408922,0.0969627327261533
17.947192,5.918099883267751,0.0965591824156531
17.94958,5.933933489499722,0.0961666120899323
17.95196,5.95083803091833,0.0957613772156072
17.954356,5.967882341963799,0.0953498977354559
17.956744,5.989489933009542,0.0948649291141214
17.959124,6.012727537749365,0.094336314968786
17.961524,6.039317717675964,0.0937587655313714
17.963908,6.0691207031624765,0.0931374916219416
17.966292,6.099854854208771,0.0925101413074656
17.968688,6.127795508575728,0.0919066158189032
17.971072,6.151871731076712,0.0913423437491272
17.973452,6.173294226525219,0.0907883354628395
17.975856,6.196206966040948,0.0902005272763933
17.978244,6.224055072609288,0.0895625679785773
17.980624,6.249761308804351,0.0889535974868865
17.98302,6.274024522760438,0.0883434058586932
17.985408,6.299358671903164,0.0877259882409332
17.987788000000002,6.314170460634608,0.0871945780795437
17.990184,6.324838278246358,0.0867149263498072
17.992572,6.335785635111828,0.0862218552137143
17.994968,6.343659956044244,0.0857618995631609
17.997364,6.347949384364404,0.0853168523819475
17.999752,6.350376481565011,0.0848839678710347
18.002132,6.355736845071809,0.084430126713414
18.004528,6.359234877459053,0.0839900288559708
18.006916,6.3616619746596585,0.0835640400359305
18.009296,6.362226740740708,0.0831505390350825
18.011692,6.362791506821756,0.0827388294750165
18.01408,6.361493941783248,0.0823362952428063
18.01646,6.361267311931378,0.0819214518359987
18.01886,6.361180451706368,0.0814986899319859
18.021244,6.3640268577875565,0.0810526101828361
18.02364,6.365522789428383,0.0806343506302138
18.026036,6.366878951442349,0.0802249704600485
18.02842,6.37195977569543,0.0797972293173261
18.0308,6.3754105862544295,0.0794110693380196
18.033204,6.376719526440153,0.0790498422379861
18.035592,6.382684294424768,0.0786636691187232
18.037972,6.388928601663103,0.0782643123151652
18.040368,6.3947536000208585,0.0778868078176765
18.04276,6.403092555804228,0.0775102060724496
18.04514,6.415016404199851,0.0771228712674548
18.047536,6.42987351890167,0.0767178547686884
18.049924,6.440586662483793,0.0763531093130429
18.052308,6.450600957931616,0.0760240779920195
18.054704,6.460475483752579,0.0757028726805265
18.057088,6.469279074386902,0.0753933012080916
18.059472,6.475149398715031,0.0751028413432191
18.061876,6.483952989349355,0.0747938815867785
18.064264,6.492616810356818,0.0744926244595245
18.066644,6.503934358416757,0.0741880927971503
18.06904,6.51818517278289,0.0738684136177369
18.071428,6.533506922335662,0.0735399086239815
18.073808,6.549108211142155,0.0732003476688081
18.076208,6.562986938455951,0.0728633265695849
18.078596,6.57607426983683,0.0725231363249423
18.080976,6.591163701964124,0.0721715707462467
18.083376,6.608115465210978,0.0718153601600346
18.08576,6.62357698439061,0.0714895068181762
18.08814,6.638247107637324,0.0711604171474713
18.090536,6.649332338271784,0.070837329021613
18.092924,6.660557338533105,0.070509512446642
18.09532,6.668429763607652,0.0702188469029314
18.097724,6.673648461629723,0.0699291933002519
18.100112,6.678075763718876,0.0696357144558089
18.102492,6.683574000994667,0.0693334643029706
18.104888,6.690655030136295,0.0690388249828574
18.107276,6.702671426330534,0.0687172347083181
18.109656,6.712545952151496,0.0684154959775282
18.112052,6.724422578718875,0.0681031406789899
18.11444,6.732434773420281,0.0678093345917995
18.11682,6.736302997001992,0.0675478273622355
18.119216,6.740031450956844,0.067294015568089
18.121604,6.74147826491156,0.0670654068898641
18.123988,6.742645539612553,0.066849957764594
18.126384,6.743812814313547,0.0666341272036239
18.128772,6.742977988268125,0.0664307179081768
18.131156,6.742422701476423,0.0662158539268463
18.133552,6.744149054684859,0.065977106282607
18.135936,6.747737739012849,0.0657338047834654
18.13832,6.755842481512873,0.0654848251265016
18.140716,6.760594648826119,0.0652683378114261
18.143104,6.766697290579726,0.0650303404598652
18.145484,6.78024925681156,0.0647741749562343
18.147884,6.795943093416669,0.0645014335201026
18.150272,6.809355290021642,0.0642528650595469
18.152652,6.820765385880197,0.0640153201142796
18.155048,6.822816604312727,0.0638416861061787
18.157436,6.827661319424591,0.0636617229693994
18.159816,6.829153459349678,0.0635141295634624
18.162216,6.83451003114074,0.0633516391701892
18.1646,6.842660099611136,0.0631830901663326
18.167,6.847737132148477,0.063033563205092
18.169396,6.854536726178515,0.0628861632270034
18.171784,6.858263284275497,0.0627572206389532
18.174164,6.864503799798094,0.0626348673225627
18.176568,6.867531509760775,0.062537483798466
18.178956,6.863342212670709,0.0624865048032165
18.200448,6.76673710359498,0.0624830630657216
18.202828,6.765201533557386,0.0624320873573004
18.205224,6.761012236467318,0.0623805958160105
18.207612,6.756311082698052,0.0623118571408039
18.209992,6.749747597809231,0.0622468975217793
18.212396,6.739599220308156,0.0621828727117971
18.214784,6.73052177799372,0.062110432346633
18.217168,6.721072248626944,0.0620144412625249
18.219572,6.721912762245976,0.0618574565067044
18.22196,6.723312354372447,0.0616767124513989
18.224344,6.728855917618612,0.0614701237088957
18.22674,6.743339049410222,0.061223390302096
18.229128,6.758800568589855,0.060932866366266
18.231508,6.777474893329404,0.0606202504249611
18.233908,6.803738312174038,0.0602902260885232
18.236296,6.826416838406419,0.0599633289695599
18.238676,6.848443738332743,0.0596266960547083
18.241072,6.874754379005621,0.0592606461137175
18.24346,6.899202688558942,0.0588981550632735
18.245844,6.921928436619567,0.0585322246905812
18.24824,6.9450734935607725,0.0581493037632866
18.250628,6.964493888262865,0.0577756549592771
18.253008,6.986847549271153,0.0573938180750919
18.255408,7.01613867807847,0.0569887960266452
18.257796,7.048502842818841,0.0565719775064654
18.260176,7.081798173118991,0.056153604730784
18.262572,7.1164439778594994,0.0557173400369608
18.26496,7.153883279279343,0.0552827918057214
18.26734,7.180101372153604,0.0549045748214509
18.26974,7.199242227601975,0.0545563610390907
18.272128,7.219593787863847,0.0541982859567558
18.274512,7.235149750699965,0.0538529918072298
18.276916,7.253079901334838,0.0535245801734225
18.279304,7.266726311223157,0.0532232968488053
18.281684,7.278138302939583,0.052905262711228
18.28408,7.290993316894983,0.0526038605160442
18.286468,7.303848330850385,0.0523030945485425
18.288848,7.312419604059231,0.0520281368419132
18.291244,7.318988776521661,0.0517587546438608
18.293632,7.328211676036566,0.0514933833324659
18.296012,7.336735727417169,0.051257021273678
18.298408,7.342186742864717,0.0510331932372582
18.300796,7.345635657565849,0.0508170306234368
18.30318,7.341867565214231,0.0506334195907924
18.305576,7.331162005063584,0.0504693278206728
18.307964,7.322318776032494,0.0503043197294636
18.310344,7.315989504427019,0.050150045414981
18.312744,7.303374391328572,0.0500255716863936
18.315132,7.296905350096237,0.0498764490286982
18.317512,7.299236107782486,0.0497078502754358
18.319912,7.29821429028196,0.0495628397531047
18.3223,7.2978440990874915,0.0494287184115204
18.32468,7.294400871959968,0.0493066353207925
18.32708,7.294030680765499,0.0491726051022591
