Time,Force,Position
16.864615999999998,2.951424571057003,0.1511846882315404
16.867003999999998,2.9887580536731457,0.1506483956779503
16.869383999999997,3.01319688393712,0.1503591668742554
16.886124,2.9619488273261547,0.150200416965212
16.888512,2.947845366018357,0.1501347449110882
16.890891999999997,2.937466566949675,0.1499455838670123
16.893296,2.928950099000548,0.1496924254374898
16.895684,2.9225755014246984,0.1493413759491903
16.898068,2.919785796461102,0.1488892399150486
16.900464,2.9223507674306983,0.1482028655470098
16.902852,2.9253350472808752,0.1474745103596296
16.905231999999998,2.933813772691105,0.1465041348654564
16.907632,2.9441548292208912,0.1454712439400898
16.910016,2.9531454113103184,0.1445167907305667
16.912395999999998,2.967071360452358,0.1433938268986698
16.914792,2.9856531373932884,0.1421549413217421
16.91718,3.001953274334083,0.1409977605079115
16.919559999999997,3.022489930193188,0.139754682201223
16.921964,3.0446093779181287,0.1384858536771993
16.924352,3.066961143068547,0.1373034249714848
16.926736,3.0922461745251604,0.1360204272386356
16.929132,3.114458170048718,0.1348497799735631
16.93152,3.13946366225161,0.1336018171068149
16.933899999999998,3.1649810111337007,0.1323906401936514
16.936296,3.185283453709459,0.131392794182487
16.938688,3.204887048150916,0.1304855690896133
16.941067999999998,3.223000398525154,0.1296828379003659
16.943464,3.2424170015115075,0.1289095776678556
16.945852,3.2589003381916664,0.1282339893171043
16.948235999999998,3.268958063751993,0.127810736428954
16.950639999999996,3.275802983752406,0.1275149434907952
16.953024,3.2762222926329865,0.1274654063099952
16.955408,3.2767813711404274,0.1273995305335433
16.957807999999996,3.28362629114084,0.1271129984655651
16.960196,3.2884691103948342,0.1268952014272941
16.962576,3.2863744618498005,0.1268831925469361
16.964979999999997,3.291868907409853,0.1266769388466347
16.967367999999997,3.294709625917431,0.1265230333106295
16.969748,3.297410574798149,0.1263850161043948
16.974531999999996,3.2916384858422454,0.1263720368700302
16.976912,3.292616873230267,0.1262625137577654
16.979308,3.2917329294987314,0.1261968179117374
17.055763999999996,3.3935377780178397,0.1261628916244383
17.058159999999997,3.4057808040639483,0.1261118657581244
17.060547999999997,3.418954995669836,0.1260394979256796
17.062928,3.433479661716082,0.1259038277693194
17.065327999999997,3.445071061456133,0.1258442206849702
17.067715999999997,3.4609462019427384,0.1256390001038939
17.070096,3.4784041342951806,0.1254312590743633
17.072491999999997,3.494930901087844,0.1252409752090101
17.074879999999997,3.513319999000064,0.1250075609630229
17.077264,3.52784466504631,0.1248675655895706
17.079659999999997,3.5479563244512264,0.1246101940371617
17.082047999999997,3.568207753483003,0.1243408801486442
17.0916,3.6072637975918425,0.1242786187725687
17.093995999999997,3.620624980652833,0.1241256452111295
17.096383999999997,3.63747850852746,0.1238442559733831
17.098768,3.656893215655944,0.1234620012863011
17.101172,3.674864900545453,0.1230764345539079
17.103559999999998,3.692464498382624,0.1226557128424621
17.105939999999997,3.706618973234402,0.122285589696499
17.108335999999998,3.721192756966761,0.1218780687695988
17.110723999999998,3.7319021088331454,0.1215582302913397
17.113107999999997,3.745824266259447,0.1211411423982128
17.115503999999998,3.7637506251785817,0.1206431521344413
17.117887999999997,3.773576033313432,0.1202745025953978
17.120271999999996,3.7856830814484193,0.1198309417236837
17.122667999999997,3.798488977717708,0.1193256884574031
17.125051999999997,3.81571838436041,0.118680540050701
17.127432,3.8242877617113873,0.1182204272879174
17.129831999999997,3.831274347196529,0.1177689323647077
17.132219999999997,3.8422651341745033,0.1172219501398115
17.1346,3.855677330779476,0.1165884571409831
17.136995999999996,3.867227196264892,0.1159957250324575
17.139384,3.879336140257749,0.1153471880543574
17.141779999999997,3.886369947571133,0.1148258761133316
17.144175999999998,3.890470488578323,0.1143699535903233
17.146563999999998,3.887493792159623,0.1140809751822645
17.148947999999997,3.8851687220469806,0.1138013121317985
17.151343999999998,3.881772716747701,0.1135506927052136
17.153731999999998,3.8803788121948366,0.1132542999745039
17.156111999999997,3.8760516413357777,0.1130193060473969
17.158516,3.872515866409637,0.1127799533407744
17.160904,3.871121961856773,0.1124840440199008
17.163287999999998,3.8598573231986855,0.1123989482510536
17.165684,3.856042009018824,0.1121870271033541
17.168072,3.851295529279185,0.1119908583170292
17.170451999999997,3.845989971032104,0.1118462563668945
17.172848,3.839333938344666,0.1117548804659705
17.175235999999998,3.839615373456255,0.1115187856854915
17.177615999999997,3.840548434873903,0.1112927651828712
17.180011999999998,3.837617064425577,0.1111402001685573
17.182399999999998,3.8321245147233935,0.1110817872503259
17.184783999999997,3.827143821700408,0.1110464204819899
17.187179999999998,3.823606150916397,0.111019020373888
17.189567999999998,3.8239329119983614,0.1109194072846538
17.191947999999996,3.824119903453465,0.1108321181174662
17.194347999999998,3.8283110964014018,0.1106570957076234
17.196731999999997,3.834644159722616,0.1104278884485693
17.199112,3.8426997845365274,0.110181773674829
17.201511999999997,3.84861353897716,0.1099918815058036
17.203899999999997,3.857181020470268,0.1097694761565173
17.20628,3.868169911590373,0.1094666433394758
17.208675999999997,3.875526688269983,0.1092882704495148
17.211063999999997,3.885816731255788,0.1090480622993893
17.213444,3.8913111768158406,0.1088966354464865
17.215839999999996,3.897457248681952,0.1087570720308981
17.218231999999997,3.902532385361424,0.1086452929810192
17.220612,3.907747291667756,0.1085209756308928
17.223011999999997,3.910960097227672,0.1084404031583509
17.225399999999997,3.915383607601086,0.1083212039311741
17.227784,3.922740384280696,0.1081466198547083
17.230179999999997,3.9366625417069967,0.107805694693648
17.232567999999997,3.948210511334543,0.1074684728837335
17.234963999999998,3.95989825058895,0.1071217620466421
17.237356,3.967721557977383,0.1068426275979283
17.239743999999998,3.9796888364855114,0.1064757508318381
17.242127999999997,3.994589381299833,0.106062311063766
17.244524,4.0094899261141554,0.1056568843373766
17.246912,4.020805578316224,0.1052889116456428
17.249291999999997,4.035054496824489,0.1048721195043233
17.251687999999998,4.048791558653557,0.1044353125403011
17.254075999999998,4.062109311602042,0.1040384846671767
17.256455999999996,4.073844272684692,0.1036394469094598
17.258851999999997,4.086789938580841,0.1032035899873737
17.261239999999997,4.102808640410045,0.1027055056988335
17.263635999999998,4.115242449626996,0.1022437491616491
17.266032,4.129166502911165,0.1017240446539956
17.26842,4.144021721755113,0.1011946158181685
17.270799999999998,4.155943674292867,0.1007136469319041
17.273196,4.16772585720376,0.1002489603711382
17.275584,4.17564360824868,0.0998432950090763
17.277963999999997,4.17634435224085,0.0995857055294676
17.280368,4.178627888098857,0.0993266136655811
17.282756,4.177978157650669,0.0991150204225413
17.285135999999998,4.180541232762396,0.0988315927090477
17.287539999999996,4.177098005634872,0.0986556355510487
17.289928,4.169790346641376,0.0985387654311829
17.292308,4.158338716528184,0.0985036346825426
17.294704,4.152334310146804,0.0984098744879404
17.297092,4.144467572645865,0.0983389271129066
17.299471999999998,4.136181526264346,0.0983021770028671
17.301868,4.130177119882965,0.0982076091973619
17.304256,4.128316684621278,0.0980342335945163
17.306635999999997,4.129249746038925,0.0978295673917883
17.309032,4.130182807456572,0.0976262157780117
17.31142,4.134980300740192,0.0973686009927449
17.313799999999997,4.136704758090759,0.0971652241900623
17.316204,4.136427114694907,0.0969941764799995
17.318592,4.137220406485695,0.096800140052064
17.320971999999998,4.134149266410509,0.0966592899808201
17.323376,4.136944658947713,0.0964320353661984
17.32576,4.141742152231334,0.0961710045460705
17.328143999999998,4.147610580701594,0.0958889086112237
17.33054,4.1566918147317695,0.0955408911207168
17.332928,4.166564444694862,0.0951986232656211
17.335307999999998,4.182443376897206,0.0947622445274198
17.337704,4.200324409845967,0.0942959370054623
17.340092,4.222628953168142,0.0937347705691217
17.342471999999997,4.242559308691563,0.093177634692962
17.344872,4.261698268282065,0.0926196918185616
17.34726,4.281116767126288,0.0920408844137176
17.349639999999997,4.293737567798342,0.091553556507796
17.352036,4.304496037350841,0.091090745045648
17.354423999999998,4.310598679104446,0.0906773057871742
17.35682,4.314978759365356,0.0902726915236254
17.359212,4.319219069999406,0.0898815457499856
17.361596,4.324530315820094,0.0894684055080548
17.363975999999997,4.335196237573975,0.0889618347655945
17.366383999999996,4.350006130447548,0.0883934472601048
17.368768,4.373895361493429,0.087703258679513
17.371147999999998,4.394199699927057,0.0870434251294156
17.373544,4.414643807987544,0.0863751669399597
17.375932,4.434436289741974,0.0856986190801759
17.378311999999998,4.457162037802599,0.0850020197330122
17.380708,4.474952418810611,0.0843641693159192
17.383096,4.48887836795265,0.0837726921849692
17.385488,4.500802216348274,0.0832076589457963
17.387884,4.50951325918398,0.0826981971219693
17.390272,4.5190156979526055,0.082194651995821
17.392652,4.528518136721231,0.0816902075519381
17.395055999999997,4.538951741049635,0.0811814808072244
17.397443999999997,4.552039072430512,0.0806560588766208
17.399824,4.559771727878198,0.0802116648262745
17.40222,4.570297880005219,0.0797462084310149
17.404608,4.582267054371214,0.0792985431788106
17.406988,4.593444832804292,0.0788499819123922
17.409384,4.608347273476483,0.078378016533368
17.411772,4.617895038215483,0.0779950386955968
17.519284,4.575439197091625,0.0777820632750399
17.521663999999998,4.5665940722026654,0.0777478212635258
17.52406,4.562544544739458,0.0776758003631972
17.526448,4.55849501727625,0.0776037794628686
17.528827999999997,4.551651993133707,0.0775487719556755
17.531228,4.545460595297223,0.0775073779079227
17.533616,4.543413168580432,0.0774135141106247
