Time,Force,Position
19.189928,5.136955948656075,0.1532337280757246
19.192316,5.140261302014608,0.1531925515288793
19.194696,5.144777360186639,0.1531113988014294
19.197096,5.152645993545447,0.1529331040779138
19.199484,5.165729533210588,0.1526231524142768
19.201864,5.176531432875589,0.152384023737274
19.20426,5.182537735114838,0.1522441970912853
19.206648,5.192827778100643,0.1519885872920752
19.209032,5.20805318813906,0.1516203744040533
19.211428,5.22500115967017,0.1512213671235144
19.213816,5.248047981239151,0.1507232596405563
19.216196,5.266391753180997,0.1503779132729793
19.218596,5.28603877773496,0.1500355000757799
19.220984,5.304894406356004,0.1497017624716445
19.22338,5.326403762029522,0.1493297720724217
19.225784,5.3412551891577325,0.149095874700872
19.228172,5.357037781845721,0.1488441139700271
19.230552,5.372028978600791,0.1486049779782346
19.232948,5.385297613863164,0.1483929052389814
19.235336,5.400987658752536,0.1481045553544978
19.237716,5.412393962895353,0.1479276345077367
19.240112,5.419935835172196,0.1478310734779699
19.2425,5.429479808195457,0.1476899659130287
19.24728,5.441862603868426,0.1475965043281289
19.249664,5.446331440212214,0.1475748598276825
19.252048,5.45880867954167,0.1473783164960968
19.254444,5.469935444430766,0.1472295602653236
19.256832,5.479711734879504,0.1471291936842185
19.259212,5.493352457194216,0.1469540572065164
19.261616,5.50555015726995,0.1467851681031732
19.264004,5.521752058838519,0.1465326926129802
19.266388,5.539164665220587,0.1462447092738822
19.268784,5.55843960272221,0.14592646447275
19.271172,5.571987777238304,0.1457151446239074
19.273556,5.589120844366651,0.145446355085676
19.275956,5.602249710002163,0.1452594017128733
19.278344,5.611094834891123,0.1451768009859661
19.280724,5.621522751645919,0.1450818831113621
19.283124,5.632602294706773,0.1449920096985001
19.285512,5.646754873700682,0.1448331647040137
19.287892,5.664120258254508,0.1445959345514632
19.290288,5.6788319157558576,0.1443988086106398
19.292676,5.692752177324289,0.1442085793806253
19.316564,5.7196105213574,0.1441745878060677
19.31896,5.72161262210382,0.1441348635121324
19.321348,5.724313570984537,0.1440488684807273
19.323732,5.734371296544865,0.1438021113269809
19.326124,5.747129970985911,0.1434677474247467
19.328512,5.756443522441562,0.1431752926749058
19.330888,5.763894742777659,0.1429143358426496
19.333284,5.771625502367475,0.1426364616485569
19.335668,5.782009989009764,0.1423276052970163
19.338064,5.793185871584974,0.1420127433104332
19.34046,5.804641293413904,0.1416800756953941
19.342848,5.823313722295583,0.1411991563336125
19.345228,5.842917316737043,0.140705701495722
19.347632,5.867875587111691,0.1400924983060545
19.35002,5.888969425620368,0.1395510929834011
19.3524,5.905267666703292,0.1390902864958716
19.3548,5.922636842972855,0.1386019067191821
19.357188,5.939354392936361,0.138111756269685
19.359564,5.957282647713361,0.137591636991362
19.36196,5.976281837677002,0.1370505502908837
19.364348,5.989554264655112,0.1366027551645211
19.366724,6.000545051633087,0.1362141107557605
19.36912,6.01111652973048,0.1358549863123679
19.371504,6.018894511148538,0.1355425049592367
19.373884,6.03025738517885,0.135188493113657
19.3763,6.044833064769083,0.1347681922661076
19.378684,6.058896887680113,0.134334873355176
19.381064,6.0721693146582245,0.1339086048535188
19.383456,6.076130086038554,0.1336144832193371
19.38584,6.084234828538576,0.1332442570978288
19.38822,6.092199801411738,0.1328833325867924
19.390636,6.098162673538484,0.132560864598253
19.39302,6.103473919359171,0.1322351967414038
19.3954,6.109204474060439,0.131887821650084
19.397804,6.117216668761846,0.1314911936721899
19.400188,6.130443769769583,0.1309991553766888
19.402568,6.14488157559082,0.1304774138123934
19.404972,6.160530086225554,0.1299295443003768
19.40736,6.174036726487013,0.1294241634050161
19.40974,6.185820805255776,0.1289360082179781
19.412144,6.200957459211314,0.1283736734695109
19.414532,6.213300616487518,0.1278453832768459
19.416908,6.226202852271162,0.1272865283980025
19.419312,6.237242756935249,0.1267535740697551
19.4217,6.242695668240666,0.1262950927403818
19.42408,6.246006709172804,0.1258779598356215
19.426476,6.251040311597641,0.125446423212554
19.42886,6.256865309955395,0.1250131389044734
19.43124,6.27549430872457,0.1243910870520908
19.433644,6.285742817455739,0.1238731041084818
19.436028,6.298272966187046,0.1233110622157387
19.438404,6.308940783798795,0.1227731636419177
19.4408,6.31788603991785,0.1222492384481176
19.443188,6.322547555290349,0.1218039575180536
19.445568,6.321994164356516,0.1214451464905333
19.447984,6.321301003795824,0.1210970218931938
19.450368,6.323960418421906,0.1206869477502376
19.452748,6.322196322674573,0.1203587563071177
19.455152,6.318709665434546,0.1200422407616547
19.562664,5.635257244088665,0.1198828144014654
19.565048,5.638283058193477,0.1198809646753391
19.567428,5.648665648977898,0.1197439077085596
19.569836,5.6649147723747095,0.1195223948738892
19.57222,5.681163895771522,0.1193014898048565
19.5746,5.698344184728112,0.1190669547919189
19.577004,5.711100963311288,0.1189228251689143
19.579392,5.717571900401493,0.118892745869512
19.581772,5.728326578238252,0.1187820513630368
19.584172,5.738010320888374,0.1186921688577198
19.58656,5.746203819471276,0.1186487785630743
19.58894,5.756958497308036,0.1185388698727613
19.591344,5.769203419212015,0.1183847421287909
19.593728,5.787594412982103,0.1181299421901261
19.596108,5.807987507498608,0.1178495212405263
19.598512,5.829870846082333,0.1175219821676851
19.600896,5.8532444287332765,0.1171519427901701
19.603276,5.877688946570859,0.1167660289435483
19.60568,5.905206500341498,0.1163317956932668
19.608068,5.934726154858554,0.1158730091223647
19.610448,5.964106039748749,0.1154280754346514
19.612852,5.993485924638943,0.114988930598996
19.615236,6.018582068782584,0.1146263403687558
19.617616,6.03566980994056,0.1143800121985745
19.620008,6.051407076658174,0.1141677321056522
19.622396,6.068727135241624,0.1139510520966992
19.670192,6.178961591484846,0.113781559614329
19.672576,6.179380900365428,0.1137577145693644
19.674956,6.179939978872868,0.1137260181050071
19.67736,6.184363489246284,0.1136478942020892
19.679748,6.192791201112532,0.1135155178427412
19.682128,6.200427517045862,0.1133860626039748
19.68452,6.210997099285387,0.1132205517165256
19.686908,6.22235807745783,0.1130528987111942
19.689288,6.234278134137715,0.1128539478403863
19.691692,6.247269126004237,0.1126362735092901
19.694076,6.259608491564703,0.1124152118879865
19.69646,6.273298331565525,0.1121603381829223
19.698856,6.294996574552016,0.1117967119315735
19.70124,6.312690616045674,0.1114883558823221
19.703624,6.326380456046498,0.1112339374114263
19.70602,6.336717720860545,0.111038778063642
19.708408,6.348125920861231,0.1108246562537836
19.710804,6.362048078287532,0.1105988949893123
19.7132,6.376110005340694,0.1103638560378473
19.715584,6.389892393140134,0.110145798792044
19.717968,6.39967057944674,0.109981778862971
19.720364,6.402231758700598,0.1099236065260181
19.722752,6.40307037646176,0.1098762724602543
19.725132,6.404468072730362,0.109797725258147
19.727536,6.404003437879407,0.1097378730715804
19.729924,6.402328098214955,0.10970284058262
19.732308,6.398138801124887,0.1096794588166918
19.734704,6.395439748102039,0.1096159033334874
19.737088,6.393252551758387,0.1095666051275882
19.739468,6.391716981720794,0.1095237884723677
19.741864,6.387248145377006,0.1095154450772352
19.744248,6.385992114593133,0.1094573782712364
19.746644,6.382873752689703,0.1094168019403131
19.74904,6.380174699666855,0.1093532803912601
19.751424,6.380548682577061,0.1092484409544541
19.753804,6.384415010300904,0.1090792524144194
19.7562,6.390283438771163,0.1088851916734847
19.758584,6.395640010562225,0.1086782992449179
19.760976,6.404209387913202,0.1084239261996401
19.76338,6.412406678211842,0.1081485638066921
19.765768,6.423677004443538,0.1078325669972958
19.768148,6.438020366608288,0.1074739963547096
19.77054,6.452363728773039,0.1071145050629499
19.772928,6.465356616497431,0.1067877363615252
19.775308,6.478209734594962,0.1064687842828021
19.777712,6.488129586386298,0.1061810061162535
19.780096,6.497769898923916,0.1059077948798326
19.782476,6.505128571461395,0.1056750887188006
19.784872,6.510624912879318,0.1054594334048001
19.78726,6.518263124670517,0.1052123635363187
19.78964,6.525761566834856,0.1049721579313129
19.823096,6.415340119136525,0.1049525690902113
19.825492,6.410778734994119,0.1049035437320237
19.827888,6.409430156411631,0.1048082109856385
19.830276,6.40915251301578,0.1046973446421112
19.832656,6.408083473687009,0.1045865070943859
19.83506,6.405571412119265,0.1044693616599008
19.837448,6.402267954618602,0.1043522289098405
19.839824,6.4053901082377696,0.1041425574612966
19.842228,6.414518564096188,0.103862999109346
19.844616,6.426999595141381,0.1035311581781202
19.846996,6.436035503201183,0.1032149719218352
19.849392,6.447213281634262,0.1028701331350674
19.85178,6.456249189694062,0.1025564427778031
19.85416,6.469429068873557,0.1021883696272891
19.856556,6.4836798832396925,0.1018070078995927
19.858944,6.501934899098659,0.1013789450995683
19.861324,6.522471554957765,0.1009183311352187
19.863728,6.5371416782044784,0.1005169261180551
19.866116,6.553022506264693,0.1000949853335551
19.868496,6.568903334324905,0.099674123162105
19.8709,6.585575558318037,0.0992569115058607
19.873288,6.601316616751389,0.098850334378082
19.875668,6.613053473691908,0.0984880154113952
19.878064,6.621857064326231,0.0981529167120189
19.880448,6.634385317199668,0.0977893907859296
19.882832,6.64328145563261,0.0974899235130167
19.885228,6.654971090744886,0.0971685906641473
19.887616,6.659583488431272,0.0969270900595597
19.889996,6.660471223878545,0.0967151628149798
19.892392,6.66000848488546,0.0965330993366281
19.89478,6.660988768131351,0.0963577999963826
19.89716,6.656614375444051,0.0962539494286557
19.899556,6.65210021312989,0.0961571755895227
19.90194,6.646375346002228,0.0960820361884421
19.90432,6.641162335553764,0.0960216793558022
19.90672,6.638742821784636,0.0959409152364068
19.909108,6.630037466522537,0.0959365060801181
19.911488,6.62626747831305,0.0958837975566446
19.913884,6.6222179508498416,0.0958453535700117
19.916272,6.620030754506191,0.0957935376139819
19.918652,6.614770522229485,0.095775718455378
19.921068,6.608579124393,0.0957641896642474
19.923452,6.606112388795628,0.0957265256377249
19.925836,6.611374516930203,0.0956232292420209
19.928232,6.614914083572082,0.0955262858117441
19.930616,6.625019030960654,0.0953423687734884
19.933,6.634472352043167,0.0951516853021618
19.935396,6.649512666484349,0.0949223250375741
19.937784,6.667346477604867,0.0946754089973212
19.940176,6.685180288725383,0.0944299680331426
19.94258,6.705295739846039,0.0941514478945755
19.944968,6.729694931713247,0.0938188143917355
19.947348,6.75702738988665,0.0934614865407391
19.949744,6.7875726536199705,0.0930681118507164
19.952132,6.812530923994621,0.0927102880643452
19.954512,6.830691496197102,0.0924107026347961
19.956908,6.850854169145999,0.0920891460852404
19.959296,6.871808238027815,0.0917710857880796
19.961676,6.891039745416935,0.0914591320504396
19.96408,6.905335885753444,0.0911914098870738
19.966468,6.917909464597255,0.0909272014391886
19.968848,6.928341173067788,0.0906886724453116
19.971244,6.936910550418766,0.0904634784449293
19.973632,6.941895035157492,0.090258093563539
19.976012,6.945948354336439,0.0900586576363619
19.978408,6.948511429448165,0.0898942210655205
19.980796,6.949724030119533,0.0897558893510667
19.983176,6.947491507805508,0.0896269115069122
19.985576,6.941394553625509,0.0895274940969438
19.987964,6.932504102766176,0.0894449592259306
19.990344,6.924684587093481,0.08934984620061
19.992736,6.915933905861007,0.089260099490836
19.995124,6.907462763882256,0.0891569235586908
19.997504,6.895127190037529,0.0890816470103102
19.999896,6.891731184738248,0.0889317720868863
20.002284,6.892479150558662,0.0887404277224508
20.004664,6.897790396379351,0.0884893771496348
20.007068,6.901658619961062,0.0882301214175488
20.009452,6.908460109848969,0.0879498834097613
20.011832,6.920336736416349,0.0876245704824912
20.014248,6.9362175644765625,0.0872655315010786
20.016632,6.958244464402886,0.0868523052798695
20.019016,6.977477867649873,0.086452652150183
20.021412,6.9927070694040285,0.0860859129853272
20.023796,7.007656731904463,0.0857315839817633
20.026176,7.016879631419369,0.0854130862965844
20.028592,7.027173466120912,0.0850826135275503
20.030976,7.039189862315151,0.0847481619080712
20.03336,7.054139524815586,0.084392047841581
20.035756,7.071231057689297,0.0840123359699771
20.038144,7.082176518696898,0.083688497096783
20.08832,6.792096819078943,0.0836060004425804
20.090704,6.788791465720411,0.0836045710522478
20.0931,6.790980557921932,0.0835408328068217
20.095488,6.798244786802924,0.0834344420020242
20.097868,6.807650886057192,0.0833064407972348
20.100264,6.820549330125099,0.0831309348448774
20.102652,6.833727313446724,0.0829422431720502
20.105032,6.851980433447822,0.082710195912516
20.107428,6.872515193449058,0.0824493434088353
20.109816,6.892258557517375,0.0821886554190585
20.112212,6.918147993451804,0.0818738404724345
20.114608,6.939381601587339,0.0815844070582288
20.116996,6.964898950469431,0.0812533062011196
20.119376,6.988833507485686,0.0809191653493593
20.121772,7.015421791554415,0.0805799479096003
20.12416,7.039076809316949,0.0802616629616217
20.126544,7.063802762266121,0.0799352311646937
20.128936,7.092812455961848,0.0795667347449357
20.131324,7.123172624097934,0.0791764464335831
20.133708,7.149528590741185,0.0788182595610542
20.136104,7.176815722944215,0.0784572091925428
20.138492,7.20130935846791,0.0781125538197374
20.140872,7.223661123618329,0.0777911779820017
20.143272,7.239215190596578,0.0775088282196388
20.145656,7.251835991268632,0.0772454479459774
20.148048,7.267529827873742,0.0769603572753607
20.150452,7.283503203732572,0.0766635626094554
20.15284,7.296683082912066,0.0763788521048455
20.15522,7.308000630972005,0.0761022239839207
20.15762,7.316524682352608,0.0758368135948639
20.160008,7.321835928173296,0.0756016412081142
20.162388,7.329149274740401,0.0753535578804866
20.164784,7.334180981307369,0.0751328522158969
20.167172,7.341866414926812,0.0749085978311982
20.169552,7.348900222240196,0.0746769790560717
20.171956,7.355934029553581,0.0744449114793942
20.174344,7.360174340187631,0.0742236617376503
20.176724,7.362412550075263,0.0740160361652439
20.17912,7.361298184776121,0.0738423063527401
20.181512,7.361254754663616,0.073659113547918
20.183892,7.360559698245053,0.0734674613470499
20.186288,7.356000209960517,0.0732943479992953
20.188672,7.351300952049121,0.073127253436731
20.191052,7.353539161936753,0.0729190314349725
20.193456,7.357919242197663,0.0726926233787894
20.195844,7.354011380219185,0.0725273981612935
20.198228,7.350755144546764,0.072371312434228
20.200624,7.3516428799940385,0.0721853218181094
20.203012,7.357186443240203,0.0719851467530007
20.205392,7.365243963911983,0.0717877984795587
20.207788,7.379447556449874,0.0715505203040523
20.210176,7.391229739360767,0.0713431706073139
20.212556,7.401149591152103,0.0711419199342429
20.214952,7.410138277383663,0.0709448624037391
20.21734,7.415634618801583,0.0707857209242102
20.21972,7.423133060965923,0.0706152341126956
20.22212,7.432493834249818,0.0704395015569855
20.224508,7.438641801973798,0.0702892875940459
20.226888,7.448793971190612,0.0701159874089445
20.229292,7.4615998674599,0.0699413375129251
20.231676,7.473986454848608,0.0697847052803911
20.23406,7.488235373356872,0.0696218326280064
20.236456,7.5015531263053585,0.0694617464215256
20.238844,7.511797843320789,0.0693223693116566
20.241224,7.519760920336083,0.0692063286905946
20.24362,7.536943105150541,0.0690308291910165
20.246008,7.552262958845445,0.0688610096668333
20.248388,7.562507675860875,0.0687229102439922
20.250784,7.565023529144359,0.0686175528525876
20.253172,7.565816820935148,0.0685115692017023
20.255552,7.556599608993851,0.068460566429889
20.257948,7.549664037052691,0.068386853819421
20.260336,7.544870335484808,0.0682962553455288
20.262716,7.540076633916926,0.0682057681975097
20.265116,7.539846212349318,0.0680705267360791
20.267504,7.53975556040857,0.06792995468685
20.269884,7.539664908467823,0.0677898288161491
20.27228,7.547862198766462,0.0675970272343799
20.274668,7.5536853012663485,0.0673947251668437
20.277052,7.556203050407702,0.06718528480351
20.279464,7.561142209176053,0.0669495098582372
20.281852,7.568363007944541,0.0666928106292398
20.284232,7.579727777832723,0.0664118428733407
20.286632,7.594445122907679,0.0661033223855571
20.289016,7.608650611303439,0.0657792436989902
20.291396,7.6189916678332255,0.0654716439568722
20.293796,7.628029471750896,0.0651447973136501
20.296184,7.639488685295563,0.0647915349305687
20.29858,7.655511178840505,0.0643958473593695
20.300976,7.675165786825945,0.0639629338832113
20.303364,7.700594379625156,0.0634740968341779
20.305748,7.725650885372031,0.0629675046343905
20.308144,7.748193433693291,0.0624565344912054
20.310532,7.767430628656018,0.0619361057478626
20.312912,7.782291535073575,0.0614144107791688
20.315312,7.794778253692375,0.0608819127704647
20.3177,7.804099388579506,0.0603334195357376
20.32008,7.804108867868853,0.059801040424475
20.322476,7.802535555292363,0.0592587072584511
20.32486,7.795515018984063,0.0587143001148453
20.32724,7.783326798197673,0.0581599196338631
20.329644,7.76876438961253,0.057591860393704
20.332028,7.746101030243103,0.0570205463055802
20.334408,7.71491741120881,0.0564602242374968
20.336804,7.680428438815984,0.0558805765450313
20.339188,7.641563177877987,0.0552896718868459
20.341588,7.601626981753351,0.0546987655574488
20.343984,7.555032857083407,0.0541125670717437
