Time,Force,Position
22.122992,4.847000932458642,0.146243168694977
22.290344,4.773132946590753,0.1458416765329147
22.292739999999995,4.776670617374763,0.1458397117083563
22.295128,4.786494129651744,0.1456717060846856
22.297532,4.793244605995668,0.1455813413411419
22.299928,4.803859514205568,0.1454086168669569
22.302316,4.813915343908026,0.1452807940761246
22.304711999999995,4.827416296595878,0.1450988828873901
22.307108,4.845200990030283,0.1447989792502576
22.309496,4.865779180144023,0.1444493544946521
22.311899999999994,4.88849924063104,0.1440380608162501
22.314304,4.907075329998364,0.1437372606223948
22.316688,4.927653520112104,0.1433887600021426
22.319088,4.952794990226118,0.142900079989486
22.321487999999995,4.9782159995938535,0.1423953933236771
22.323871999999994,5.006710044894643,0.1418210755725235
22.326272,5.034412694262516,0.1412605180432121
22.328664,5.058250911764414,0.1407964150011234
22.33106,5.085162165199368,0.1402671935946371
22.333456,5.111841101208846,0.1397135282107151
22.33584,5.144386569830713,0.1390450366322496
22.338235999999995,5.175349246586745,0.1383943248411896
22.34064,5.202447491476802,0.1378191228382057
22.343028,5.227962944501023,0.1372616745690439
22.345424,5.252407462338606,0.1367233163150793
22.34782,5.274058483496854,0.1362389172068295
22.350207999999995,5.295197647975905,0.1357396319122853
22.352604,5.318618452455092,0.1351807787204511
22.355,5.341759717680558,0.1346499650245307
22.357388,5.359825846226554,0.134227665690759
22.359767999999995,5.381616637011661,0.13375047291608
22.362164,5.405269758916326,0.1332428327959432
22.364552,5.427200319328295,0.1327562231138721
22.366932,5.45113298048668,0.1322415559287844
22.369328,5.471340979405952,0.1317860100931262
22.371716,5.487684546459248,0.1314018725256203
22.374095999999994,5.503888343885687,0.1310300058333678
22.424284,5.48745791660738,0.1308974659620542
22.42668,5.484711641756288,0.1308864816763544
22.429068,5.487459812465248,0.1307498024757978
22.431448,5.488205882427794,0.1306497323310143
22.433844,5.48993033977836,0.1304840876171571
22.436232,5.493936437129063,0.1302640984812631
22.438612,5.499153239293264,0.1300123614912932
22.441012,5.497432573658436,0.1298835805137121
22.443396,5.5027891454495,0.1296257941849438
22.44578,5.511498292427337,0.1292935457500874
22.448176,5.52369978421881,0.1288766462193075
22.45056,5.534178714517588,0.1284736913892365
22.452956,5.5447974144432255,0.1280647048807131
22.455352,5.560631020675196,0.1275537126907688
22.45774,5.582378381347799,0.1268978309599729
22.46012,5.602962259035146,0.1262232214163821
22.462523999999995,5.621171948923742,0.1255523827757721
22.464912,5.637519307692777,0.1249093196610532
22.467292,5.654937601648454,0.1242478190578341
22.469688,5.675149392283463,0.12354824948683
22.47208,5.689774189559804,0.1229269591904394
22.47446,5.707472022769198,0.1222564349800955
22.476856,5.719303323366203,0.1216832827998345
22.479243999999994,5.7316937024706505,0.1210702442908915
22.481624,5.741011045642042,0.1205135986797285
22.48402,5.747534892134096,0.1199960029743114
22.486408,5.752615716387177,0.119476488907256
22.488792,5.759978180640394,0.1189050958654841
22.491188,5.762964356348439,0.1183796767991288
22.493576,5.761806560936794,0.1179284618372259
22.495956,5.763302492577618,0.1174566913343324
22.498352,5.768523086457559,0.1169389155608197
22.50074,5.771089953285025,0.1164463434112475
22.50312,5.770071927500238,0.1159902686677576
22.50552,5.766912031342173,0.1155767055542932
22.507904,5.765614466303665,0.1151423817800256
22.510288,5.770323203504407,0.1146181538665011
22.512684,5.77545124958573,0.1140675937376173
22.515072,5.780858834920773,0.1135035262195658
22.517468,5.787756664323036,0.1129001298030544
22.519864,5.800660795964549,0.1122130393639115
22.522248,5.80862956055345,0.1115955730943056
22.524628,5.816738094769212,0.1109665113292459
22.527027999999994,5.830713161597363,0.1102672857981984
22.529412,5.844408689171795,0.1095810268596615
22.531796,5.859314921559725,0.1088697989962874
22.5342,5.874081384320794,0.1081669247124866
22.536587999999995,5.886845746335448,0.1074916105517356
22.538968,5.899190799469521,0.1068414135279565
22.541363999999994,5.916610989283066,0.1061225418201158
22.543752,5.927233480924442,0.1054893001648488
22.546132,5.936412950326842,0.1048515541967491
22.548528,5.945033341221801,0.1042437279945606
22.550916,5.956307459169235,0.103617606823603
22.553296,5.961435505250557,0.1030766743854708
22.555692,5.963350745771965,0.1025882999360916
22.558076,5.962844576666375,0.102153603330648
22.560476,5.961779329053344,0.1017514309157541
22.562872,5.9572217366266775,0.1014172564533243
22.565259999999995,5.951034130505932,0.1011344944666206
22.567643999999994,5.937349978078715,0.1009696840448218
22.57004,5.923526056024639,0.1008124795006773
22.572427999999995,5.912216091396178,0.1006451392257416
22.574808,5.896342846767441,0.1005607736664788
22.577208,5.882471702885122,0.100450749120398
22.579595999999995,5.866179149375805,0.1003896853467846
22.581976,5.849746826239629,0.1003360813812283
22.584371999999995,5.835968230155927,0.1002645963862111
22.593924,5.778802627388588,0.100186085772153
22.598704,5.755200519027905,0.100177042910272
22.601092,5.747054242273247,0.1001439147867377
22.603472,5.740630527011286,0.1001024643889269
22.605868,5.735277746935962,0.1000442006223531
22.608256,5.730995902047277,0.0999692064606555
22.69906,5.623972355506099,0.099892161505699
22.701448,5.628069104797548,0.0998842621837777
22.703827999999994,5.638172156328251,0.0998016423497744
22.706224,5.651208474165146,0.0996863863333515
22.708611999999995,5.662522230509346,0.0995790488696343
22.780308,5.688685518123887,0.0995192873203805
22.782688,5.689803675138768,0.0994529298449216
22.785087999999995,5.692784163273207,0.0993699091143332
22.787476,5.694833485847866,0.0992956077184781
22.789856,5.699955844355582,0.0991815079655889
22.792255999999995,5.710944735475688,0.0990056645739205
22.794644,5.724727123275128,0.0988068791968501
22.797024,5.740371842194126,0.0985908628294209
22.799423999999995,5.757367035553483,0.0983420917262874
22.801808,5.780228761525229,0.0980311191245209
22.804192,5.806303293056892,0.0976733761332103
22.806588,5.830934802349577,0.0973072628134449
22.808976,5.854355606828766,0.0969686232730185
22.811356,5.879126885748311,0.0966037271844657
22.813752,5.903758395040998,0.0962489965125123
22.816144,5.933325271386296,0.0958407515358424
22.818524,5.958748176611901,0.0954851628391018
22.820924,5.990456923330476,0.0950447650114255
22.823308,6.016299137436661,0.0946645916694303
22.825688,6.043863913035542,0.0942759328053079
22.828088,6.068355652701369,0.0939294814073701
22.830476,6.086421781247364,0.0936775348623764
22.832856,6.102905117927523,0.0934231673062109
22.835252,6.117526123488124,0.0931840931127941
22.83764,6.130145028302309,0.0929703322478943
22.84002,6.133684594944187,0.0928613382145458
22.84242,6.134710204160452,0.0927583335303778
22.844808,6.1352239566975175,0.0926386951972778
22.847188,6.139462371473699,0.092491998480311
22.849588,6.134900987331292,0.0924316162741194
22.851976,6.131270768748666,0.0923643972712205
22.854356,6.131365212405154,0.0922701154495027
22.856756,6.131599425688502,0.0921684734378322
22.859144,6.13076270378521,0.0920818736552561
22.861524,6.130205521135638,0.0919804224197445
22.86392,6.129368799232346,0.0918945819881628
22.866308,6.135609314754942,0.0917345938987347
22.868692,6.1395681902774015,0.0916108459082786
22.871088,6.148043123971892,0.0914623307508588
22.873476,6.158799697666519,0.091280084449034
22.875856,6.170906745801509,0.0910703164365202
22.878252,6.184643807630575,0.0908160140567318
22.880644,6.202385070952476,0.0905230051472522
22.883024,6.219986564647517,0.090236506247508
22.885424,6.2365171231559176,0.0899644923762808
22.887812,6.25905398390357,0.0896312815640865
22.890192,6.284384341330557,0.0892816228169288
22.892592,6.311297490623381,0.0889352918669979
22.89498,6.332483876930674,0.0886355631128082
22.89736,6.360887270290717,0.0882541224551948
22.899756,6.3863573973445655,0.0879019700760808
22.902144,6.405821222159162,0.0876084399714358
22.904523999999995,6.423702255107922,0.0873132428450157
22.90692,6.438650021750487,0.0870444976879036
22.909308,6.450524752459998,0.0868080269881443
22.911704,6.464960662423365,0.0865274597949227
22.914103999999995,6.47460097496098,0.0862848689848674
22.916492,6.484008970073119,0.0860131340831883
22.918872,6.493184647759781,0.0857120360251922
22.921271999999995,6.501568929513524,0.0854118728135271
22.92366,6.506740405707352,0.0851489927335846
22.92604,6.514565608953655,0.0848783998259245
22.928436,6.521319877013319,0.0846220531279328
22.930824,6.53035578507312,0.0843347673574753
22.933208,6.537948670893945,0.0840361360247621
22.935604,6.544238304102655,0.0837214141038274
22.937992,6.546943044699112,0.0834202572299148
22.940376,6.54899615898951,0.0831107387183424
22.942772,6.553051374026325,0.0827837466553633
22.945164,6.5564549627570825,0.0824500860507481
22.947544,6.557344594062225,0.0821158628166975
22.94994,6.562797505367643,0.0817201838109156
22.952332,6.569181582232838,0.0813200228179022
22.954712,6.578778464657949,0.0808864670403789
22.957108,6.593730023016253,0.0803969976078054
22.959495999999994,6.601604343948667,0.0799690973684808
22.96188,6.611620535254359,0.0795195999824627
22.964276,6.618284151373277,0.0791099588789436
22.966668,6.627881033798388,0.0786838457478253
22.969048,6.635196276223361,0.078287552311163
22.971447999999995,6.64679525939489,0.077847912365502
22.973836,6.655740515513942,0.0774157118171962
22.97622,6.659098778274326,0.0770064884351548
22.97862,6.661805414728652,0.0765893688266375
22.981008,6.668376483048951,0.0761503992955218
22.983388,6.675878716929028,0.075709783340778
22.985788,6.684312116368884,0.0752643516353325
22.988176,6.695166925435737,0.0747875105381276
22.990556,6.707511978569811,0.0742828391359609
22.992956,6.719717262077023,0.0737883120638237
22.995344,6.733133250397733,0.0732750524871253
22.997727999999995,6.745478303531806,0.0727747272910438
23.000124,6.759173831106236,0.072254179733604
23.002516,6.767142595695137,0.0717599655963729
23.004895999999995,6.7712469284180665,0.0712879445732682
23.007296,6.778843605954631,0.0707729472511132
23.009684,6.785509117931415,0.0702631617462812
23.012068,6.797669075468254,0.0697002748358132
23.014468,6.8050334355793405,0.0691611565764905
23.016856,6.8129568741978686,0.068595819554952
23.01924,6.815433089084586,0.0680407482173731
23.02164,6.818980239157941,0.0674767429075036
23.024028,6.830535792216965,0.0668654332445316
23.026408,6.843022510835767,0.0662547819141384
23.028811999999995,6.850062005722759,0.0656531045195101
23.031195999999994,6.853097299116918,0.0650736740956509
23.033576,6.860416333257629,0.0644627215600455
23.035972,6.866943971465425,0.0638527182176554
23.038356,6.869467408180387,0.0632637828289555
23.040732,6.8682661826562335,0.0626824914104128
23.043128,6.869578914557696,0.0621078925512654
23.045511999999995,6.872102351272655,0.0615210526369519
23.047892,6.868479716121507,0.0609679609311632
23.050296,6.869932217649828,0.0603859059216773
23.052684,6.871524488805011,0.0597972176471941
23.055063999999994,6.872045824773554,0.0592170096316025
23.057455999999995,6.870984368876263,0.0586270659091406
23.05984,6.865499402605556,0.058074714328166
23.062236,6.860945601894627,0.057519282908805
23.06464,6.858393901930115,0.0569559481135919
23.067024,6.858495929018078,0.0563921555468172
23.069404,6.856595855359624,0.05583613781457
23.071804,6.849620645021699,0.0553055471052581
23.074188,6.837430528377441,0.0548028109192282
23.076567999999995,6.830687635464992,0.0542991333938538
23.078972,6.826738239231879,0.0537909288273436
23.081356,6.816363231878935,0.0533251658046575
23.083735999999995,6.799562613406157,0.0528984610692079
23.086132,6.785136182732137,0.0524860369126512
23.088516,6.771221608737313,0.0520884929631659
23.090896,6.756236099555851,0.0516980924305751
23.093292,6.736687310374114,0.0513458028756815
23.095676,6.722725514551047,0.0509877248475586
23.098068,6.700987633167789,0.0506871349329504
