Time,Force,Position
20.943692,8.622090939542895,0.1425473049795075
20.946088,8.632800291409279,0.1423814850399429
20.948476,8.641505646671378,0.1423389438783332
20.95086,8.657518660926975,0.1423173736164118
20.953256,8.688942180818222,0.1421432855425963
20.955644,8.726698764030683,0.1418363189305723
21.027332,8.78209647933495,0.1415445104440204
21.029712,8.786612537506981,0.1415021393818804
21.032116,8.793876766387974,0.1413710569464781
21.034504,8.800676360418013,0.1411996154124042
21.036884,8.805101766649296,0.1410390424469866
21.039284,8.805662741014606,0.1409229328680795
21.041668,8.806595802432254,0.1408213070332787
21.044048,8.811113756462154,0.1406872142163237
21.046444,8.826992688664498,0.1403995336234863
21.048832,8.84012534601575,0.1401070954043082
21.051212,8.853724534075829,0.1397641777835965
21.053616,8.862016268030953,0.1394648849863732
21.056004,8.871798246053297,0.1391322567673699
21.058384,8.880229749635284,0.1388292654080664
21.06078,8.88689146989633,0.138572071761921
21.063168,8.893553190157377,0.1383138509774449
21.065552,8.901146075978204,0.1380460576709171
21.067948,8.911579680306607,0.1377149231939541
21.070336,8.92136165832895,0.1373819492298163
21.07272,8.924206168552267,0.1371349731341324
21.075116,8.920113210976556,0.1369730034441548
21.077504,8.912947217467789,0.1368516757391699
21.079884,8.902568418399104,0.1367768159457149
21.08228,8.888697274516785,0.1367604929502399
21.084668,8.877107770634604,0.1367066332530692
21.087048,8.867939676379418,0.1366094514687776
21.089456,8.859610199885395,0.1364757507320184
21.091844,8.849418392271815,0.1363606987595484
21.094224,8.831730038351767,0.1363523996387831
21.09662,8.815764245924415,0.1363313842547262
21.099008,8.798587748683563,0.1363309822402139
21.101392,8.788488488868598,0.1362414490573394
21.11812,8.664994876652347,0.1362279016225491
21.120508,8.647306522732297,0.1362189495122927
21.122888,8.633762139931942,0.1361538386096822
21.125292,8.621288692318224,0.1360729828964544
21.12768,8.610537806197202,0.1359790628923385
21.130064,8.600997624889681,0.1358630486351053
21.142008,8.517024691633221,0.1358115106556671
21.144392,8.501710525511927,0.1357918407053026
21.146788,8.48625658976377,0.1357781784613677
21.149172,8.469871488455837,0.1357726376860137
21.151568,8.457630358267595,0.135710166594993
21.153964,8.449672968825912,0.1355849240073154
21.156352,8.442786514570864,0.1354437206338915
21.158732,8.436179599569538,0.1352899750115083
21.16114,8.435718756434321,0.1350549082757767
21.163524,8.435257913299104,0.1348195489756644
21.165908,8.440384063522556,0.1345283691397772
21.168304,8.44564998337287,0.1342321874335614
21.170692,8.452638464715882,0.1339249791602853
21.173072,8.46083765087239,0.1335965291117715
21.175476,8.4702475418424,0.1332476180936832
21.177864,8.477655332065993,0.1329216231588247
21.180244,8.487996388595779,0.1325621713939808
21.182644,8.504343747364816,0.132129975355447
21.185028,8.524415768372965,0.1316607064659042
21.187412,8.544627559007976,0.1311882971219425
21.189808,8.572987522255513,0.1306143022605385
21.192196,8.59548095289066,0.1301076078342751
21.194576,8.619836714645364,0.129583994370621
21.196972,8.640979670840153,0.1291059187510216
21.19936,8.657187259982331,0.1286850757382073
21.20174,8.671532518004952,0.1282833203284074
21.204136,8.687088480841071,0.1278610541580003
21.206524,8.702644443677187,0.1274398573819825
21.208908,8.711262938714277,0.1270983040080098
21.211312,8.721743764870922,0.1267401643355135
21.2137,8.727568763228678,0.1264261679907977
21.21608,8.729669099347317,0.1261461601636669
21.218476,8.729115708413484,0.1258862612113438
21.220864,8.72935371341257,0.1256244642338127
21.223244,8.727869156918958,0.1253737414395799
21.225644,8.732530672291457,0.1250494098489227
21.228032,8.735329856544398,0.1247421433680901
21.230412,8.734544148185087,0.1244629000245767
21.285376,8.178274154613531,0.1243315085967815
21.28776,8.174504166404045,0.1243019227822933
21.290156,8.17855558972512,0.1242215814102664
21.292544,8.18684353196451,0.1241178683654521
21.29492,8.196015417935431,0.1240411817024553
21.297316,8.210634527638163,0.1239204765904301
21.299704,8.226417120326152,0.1238139312361506
21.3021,8.246715771186174,0.1236724991351257
21.304504,8.265291860553496,0.1235423275071135
21.306888,8.2835884106671,0.123424359658695
21.309272,8.306168701527255,0.1232502283723556
21.311664,8.33061132350697,0.123059710203096
21.314052,8.360268851793014,0.1228037870721734
21.316432,8.393511272691315,0.1225195446170452
21.318828,8.429314872843472,0.122188516314664
21.321216,8.466980804115186,0.1218416261210215
21.323596,8.503855339453981,0.1214964539668547
21.326,8.538215917367161,0.1211637185071024
21.328388,8.571133473041366,0.1208294288178935
21.330768,8.597672639423983,0.1205486322329295
21.333164,8.620906452448068,0.1202840972139253
21.335552,8.638832811367202,0.1200591874741651
21.337932,8.654664521741301,0.119830590753586
21.340336,8.671846706555762,0.1195789321779355
21.342724,8.685443998757968,0.1193521741815109
21.345104,8.701462700587173,0.119089475614945
21.3475,8.71738885461776,0.1188000260384668
21.349888,8.730149424916675,0.1185188808932618
21.352272,8.742537908163252,0.1182223349641276
21.354676,8.756835944357627,0.1178788295822613
21.35706,8.766338383126254,0.1175792605218284
21.359444,8.775468734842542,0.1172648014204636
21.36184,8.781945359506354,0.1169675799404794
21.364228,8.790471306744827,0.1166191076778126
21.366608,8.79941656286388,0.1162554457295474
21.369004,8.807710192676874,0.1158884011210133
21.371392,8.820287563236423,0.1154724408421522
21.373772,8.833935868982612,0.1150429566193617
21.376168,8.850796980288717,0.1145774088401489
21.378556,8.870079501221817,0.1140752883801517
21.380936,8.889129704729442,0.1135525932768017
21.383332,8.90524664193087,0.1130551569110861
21.38572,8.919221708759023,0.1125837783758223
21.3881,8.929472113348062,0.1121416626061923
21.390496,8.93986228756396,0.1116918696257577
21.392884,8.945317094727248,0.1112894156768752
21.395264,8.95249446338323,0.1108808375703161
21.39766,8.959671832039215,0.1104721708789773
21.400048,8.969502927747671,0.1100508585385218
21.402428,8.977843779388909,0.1096597028985148
21.40484,8.987115796589926,0.109261095729503
21.407228,8.997318979350723,0.1088574943073925
21.409608,9.007242622857795,0.1084647296454837
21.412012,9.015676022297653,0.108102909088806
21.414396,9.02047730729701,0.1077930904887435
21.41678,9.024347426736592,0.1074896334201288
21.419176,9.021140308750285,0.1072517402370097
21.421564,9.02086645707017,0.1069902468997326
21.423944,9.02017329650948,0.1067463728513293
21.426344,9.019852223001122,0.1065185717127658
21.428732,9.018040905425549,0.106318002555103
21.431112,9.019954250089087,0.1060931346086975
21.433508,9.01986549400621,0.1058849245218728
21.435896,9.021639069042887,0.1056649276362513
21.438292,9.028627550385895,0.1053940709383333
21.440688,9.034684866169128,0.1051285242822568
21.443076,9.035015418966829,0.1049038197082415
21.445456,9.03571805881687,0.104694838738238
21.447852,9.03013485717394,0.1045483128276655
21.45024,9.025343051463928,0.1044014024869362
21.452624,9.022693116127192,0.1042318990514209
21.45502,9.017761540790318,0.1040903341399009
21.457408,9.014692296573,0.1039371395195166
21.459788,9.010272577915323,0.1038060487379953
21.462184,9.008925895190703,0.1036467423458368
21.464572,9.008230838772144,0.1034923857117389
21.466956,9.01326254533911,0.1032978143684313
21.46936,9.014941676719303,0.1031424516128516
21.471748,9.010754275487102,0.1030320057869415
21.474128,9.005915247948845,0.1029165333231429
21.476532,9.004661113022841,0.1027837142475911
21.47892,9.003546747723698,0.1026458566119013
21.4813,9.009230080596724,0.1024584100476763
21.4837,9.011700607909834,0.1023037046643124
21.486088,9.012820660782586,0.1021715280869223
21.488468,9.019667476640866,0.10200194767011
21.490864,9.02995941548454,0.1018204340228635
21.493252,9.042812533582072,0.1016025938549047
21.495636,9.063813824292131,0.1013155095371617
21.498032,9.083232323136352,0.101029267507284
21.50042,9.102371282726857,0.1007552817530364
21.5028,9.120718846384442,0.1004806340148157
21.5052,9.140416884482384,0.1001871898774601
21.507588,9.15881166996821,0.0998830554793926
21.509968,9.174552728401563,0.0995896967923479
21.512364,9.193786131648556,0.0992568925863437
21.514752,9.211436743029704,0.0989257299978856
21.517132,9.230437828851215,0.0985739045295929
21.519528,9.25372265541928,0.0981795688357147
21.521916,9.274213985308014,0.0978001201845483
21.5243,9.297406264077464,0.0973839663002755
21.5267,9.320226455794574,0.0969545862287896
21.529088,9.339881063780012,0.0965281662408956
21.531468,9.36251615989989,0.0960515356176037
21.533872,9.381985672288096,0.0955750947914014
21.53626,9.393214464265151,0.095136713831353
21.538644,9.407703283630372,0.0946406167167704
21.54104,9.418467440756478,0.094164381058365
21.543424,9.423784374150776,0.0937123822078951
21.545808,9.431522717172069,0.0932323872393527
21.548204,9.434093375715271,0.0927627379970613
21.550588,9.44029614869897,0.0922501680373289
21.552968,9.442774259443556,0.091756058601102
21.555372,9.44767377981514,0.0912334343478844
21.55776,9.45606564500036,0.0906737710242719
21.56014,9.459010286453768,0.0901358145962608
21.56254,9.462514006414615,0.0895792195985546
21.564928,9.464994013017073,0.0890011766634008
21.567308,9.471106134060022,0.0883849696569522
21.569712,9.481501995849529,0.0877334484629296
21.5721,9.48230666278753,0.087130813420114
21.574484,9.482040394538892,0.0865374667159634
21.57688,9.47977202554384,0.0859564277557561
21.579268,9.477084347668203,0.0853908999413742
21.581648,9.475048296098628,0.0848304990022398
21.584044,9.477016446021883,0.0842432881990624
21.586432,9.474281546318004,0.0837055449076034
21.588816,9.47033594180063,0.0831790078462436
21.59122,9.465319402096616,0.0826588750600314
21.593604,9.456158891272905,0.0821668965793304
21.595988,9.45430793530056,0.0816514531936188
21.598384,9.45110650488786,0.0811553116871339
21.600772,9.449627635967854,0.0806568708690337
21.603156,9.443445717420715,0.080204361256617
21.605552,9.43470261961972,0.0797829633536785
21.60794,9.426983235177117,0.0793827383417989
21.61032,9.418565002600216,0.079006888800937
21.61272,9.413032814501264,0.0786475551741248
21.615108,9.40265780714832,0.0783397149173229
21.617492,9.391863490914794,0.078046621773879
21.619888,9.389449664719272,0.0777260589360583
21.622276,9.385405824829672,0.0774315975464483
21.624656,9.38159430236555,0.0771574129958682
21.627052,9.376432305461067,0.0769003153510576
21.62944,9.37527451004942,0.076623012683037
21.631824,9.377422067996308,0.0763496375980665
21.63422,9.383573827436026,0.0760563060037504
21.636608,9.394800723555216,0.0757357243932624
21.638988,9.412545778592856,0.0753977003429867
21.641384,9.432153164750051,0.0750539672947582
21.643772,9.444962852735078,0.0747384294337445
21.646156,9.458284397399302,0.0744354708540097
21.648552,9.47039523725003,0.0741447420679147
21.65094,9.489303775272925,0.0738270071987382
21.653324,9.509934874788517,0.0735096145235304
21.655728,9.53363901023716,0.0731763775574274
21.658116,9.553199174566114,0.0728660970331179
21.660496,9.56968630296201,0.0725734709736048
21.662892,9.58389179135777,0.072298657652763
21.66528,9.595955409380252,0.0720387520998086
21.667664,9.601733185909763,0.071817188691621
21.67006,9.608581897625914,0.0715880164148692
21.672448,9.615570378968926,0.0713538779911587
21.674828,9.622558860311935,0.0711195195993699
21.677228,9.624052896094891,0.0709256996295931
21.679616,9.61982016889232,0.0707507603372524
21.681996,9.613166032062749,0.0705993659212146
21.684396,9.6048818815391,0.0704736702731305
21.686784,9.5918021335897,0.0703637555034014
21.689164,9.57723214157308,0.0702740606164176
21.69156,9.571461948475044,0.0701507888056312
21.693948,9.563038028324534,0.0700291912505566
21.696332,9.554614108174023,0.069907303456906
21.698728,9.54218598653068,0.0698031007917744
21.701116,9.528035303394642,0.0696982573732326
21.7035,9.51015995801949,0.0696012995704474
21.7059,9.495357648577391,0.0694885584181356
21.708288,9.481486504695072,0.0693735753817641
21.710668,9.473109806372806,0.0692205675432715
21.713064,9.46459333842368,0.0690718388204179
21.715452,9.461152007154023,0.0688990166375422
21.717836,9.460643942190568,0.0687158237524795
21.720232,9.460135877227108,0.068532372557737
21.72262,9.459627812263648,0.0683486623244748
21.725004,9.460470221740549,0.0681487035491312
21.7274,9.46503729345656,0.0679406357581896
21.729792,9.467742034053018,0.0677361658232774
21.732172,9.46672211241036,0.0675391964561408
21.734568,9.463560320394429,0.0673547288190727
21.736956,9.466544600244609,0.0671406223702615
21.73934,9.461520477109117,0.066960748324974
21.741736,9.460221016212738,0.0667734508613289
21.744124,9.461063425689638,0.0665734447029885
21.746508,9.463256309606894,0.0663578414210708
21.748908,9.466380359083931,0.0661404891566278
21.751296,9.470435574120748,0.0659209911529467
21.753676,9.476632659530836,0.0656891614984076
21.756076,9.48352859307523,0.0654349264279664
21.758464,9.487351490686567,0.0651956312867788
21.760844,9.492664632365129,0.0649365666107365
21.763244,9.491319845498374,0.0646929783770758
21.765632,9.48746110120601,0.0644455277197338
21.768012,9.489888198406618,0.0641674305463794
21.770412,9.497669971540413,0.0638607641958033
21.7728,9.504520579114434,0.0635551210112707
21.775184,9.510859330009254,0.0632383129517106
21.77758,9.518828094598158,0.0628972514421428
21.779968,9.530289204000692,0.0625291590606985
21.782356,9.546965219709564,0.0621365567004129
21.784752,9.558054242059765,0.0617537936523474
21.787136,9.569562573290543,0.0613557709161946
21.78952,9.580419278215269,0.0609521960327208
21.791916,9.588482486460652,0.0605527986109346
21.7943,9.59775639951954,0.0601446867937159
21.79668,9.606378686272368,0.0597292725075497
21.79908,9.616211677838695,0.0593042687007117
21.801464,9.625253273472104,0.058877317484587
21.803844,9.634946495411572,0.0584595776169807
21.806252,9.646781587724316,0.0580319040044653
21.808636,9.655543644104004,0.0576155681679428
21.81102,9.67138293790958,0.0571746370964729
21.813416,9.688944793207856,0.0567374983896715
21.815804,9.696356375147186,0.0563364064041111
21.818184,9.693617683727574,0.0559697389580406
21.820584,9.691949927494594,0.0555971303801282
21.822972,9.693075667940953,0.0552238024167376
21.825352,9.695644430626286,0.0548625766045513
21.827748,9.69765411480418,0.054519155556676
21.830136,9.69565959748924,0.0541874130569233
21.83252,9.692594144987662,0.0538592979011919
21.834916,9.696326390658252,0.0535191626613611
21.837304,9.695914665209148,0.0531939659131028
21.8397,9.69922760199916,0.0528670566600894
21.842096,9.699187963602393,0.0525589586885146
21.844484,9.697518311511544,0.0522721575419851
21.846868,9.69556912016698,0.0519942083573028
21.849264,9.694411324755333,0.0517206893417989
21.851652,9.689109558223992,0.0514611409432472
21.854032,9.67752195019968,0.0512242227716098
21.856428,9.6704504003474,0.0509896173164078
21.858816,9.65974673605462,0.0507818144182936
21.861196,9.645690496575067,0.0505917082475629
21.863596,9.639502890454322,0.0503860733009162
21.865984,9.638762508065383,0.0501819155508823
