Time,Force,Position
21.951704,7.247258267440525,0.1354306760163357
21.954092,7.253961521956209,0.1354167939720511
21.956472,7.26201525091225,0.1353702141119308
21.958872,7.271651771734128,0.1353157810794927
21.963636,7.288456181922643,0.1352986514044127
21.966035999999995,7.302096904237355,0.1351848430598564
21.968424,7.310849481327697,0.1351026855235305
21.97082,7.314806460992289,0.1350838261617504
21.973216,7.32421066438869,0.1350065706280925
21.9756,7.336128825210704,0.1349126019422956
21.977984,7.347115820472941,0.1348304633016503
21.980388,7.35745118942912,0.1347448304979615
21.982776,7.368205867265878,0.1346383440352397
21.985156,7.37830891879658,0.1345283881365627
21.987552,7.393207567753033,0.1343583735524735
21.989936,7.413972749321878,0.1341122921011541
21.99232,7.439253989062752,0.1338202520037829
21.994716,7.463883602497568,0.1335262767375686
21.997104,7.490655086305661,0.1331966049688058
21.999483999999995,7.52022006679309,0.1328368111847123
22.00188,7.543359436160688,0.1325789395009932
22.004268,7.561423668848813,0.1323955304671452
22.006648,7.580558836723577,0.1321958303421714
22.009044,7.603837975718035,0.1319353135210876
22.011432,7.6317729425113825,0.1316233319055139
22.013812,7.656495103744818,0.1313681184182537
22.016212,7.686944027963782,0.1310493682889254
22.018596,7.716461786622967,0.1307393165128701
22.020996,7.744536523043177,0.1304337151584544
22.023392,7.767536122783914,0.1301994008262826
22.025776,7.788114312897655,0.130011591581526
22.02816,7.809763438198033,0.1298078116109426
22.030556,7.832203959431331,0.1296027078746698
22.032944,7.856926120664765,0.1293597130060563
22.035328,7.879785950778642,0.1291384323406017
22.037724,7.895056686787434,0.1290016308861742
22.040112,7.90674253018397,0.1288968255811886
22.042492,7.918288603953647,0.128799047917684
22.044888,7.933187252910101,0.1286485152157873
22.047276,7.946083801120139,0.1285240918912481
22.049656,7.970481097129477,0.1282386254040206
22.052052,8.000093299445151,0.1278810023059877
22.05444,8.030916206574323,0.1275055915730998
22.05682,8.056943516277741,0.1271849945963049
22.059216,8.080317098928685,0.126887407559857
22.061604,8.100338106392854,0.1266417163731556
22.064004,8.112071171617636,0.1265077713226104
22.0664,8.127808438335249,0.1263256484924615
22.068784,8.140193129866088,0.1261963338464215
22.071168,8.1559303965837,0.1260146660813743
22.073564,8.175020238488091,0.1257806752610236
22.075952,8.192899375578982,0.1255688377950925
22.078336,8.209987116736956,0.1253610341171031
22.080732,8.224653448267931,0.1251972875715592
22.083116,8.241321880545323,0.1250113056032557
22.085496,8.265998715808383,0.1247319108040604
22.087896,8.299754889243749,0.1243493217000871
22.09028,8.336863637865893,0.1239212324019691
22.09266,8.369548876114617,0.1235615027611369
22.095056,8.403165279923122,0.1231941698892472
22.097444,8.430635611865519,0.1229061344799978
22.099844,8.455032907874859,0.1226565679777066
22.10224,8.47742810313778,0.1224315671089744
22.104628,8.506248909520536,0.1221267088342231
22.107012,8.538562060716925,0.1217725233452677
22.109408,8.578791067100367,0.1213087396778715
22.111796,8.622931727178024,0.1207726003199554
22.11418,8.66777123538998,0.1202157042976275
22.116576,8.715311692482658,0.1196093135365023
22.118964,8.763830536963356,0.1189702694579614
22.121344,8.813327768832075,0.1182990642914865
22.123744,8.86594525846209,0.1175669310838259
22.126128,8.914186459546936,0.1168581293387498
22.128512,8.966479083952859,0.1160826629885649
22.130908,9.018167303880968,0.1152803597226056
22.133296,9.06431575227865,0.1144970126644882
22.135676,9.09691602616024,0.1138051470396102
22.138072,9.124348615563736,0.1131416748046395
22.14046,9.152899361982117,0.1124355806120245
22.142844,9.184989675042374,0.1116576580768549
22.145248,9.216335813997958,0.1108499840934976
22.147636,9.248148483662366,0.1099961233237696
22.15002,9.2767955695951,0.109145910493374
22.152416,9.298644957355668,0.1083571412593935
22.154804,9.31784061806376,0.1075876747857549
22.157184,9.323860191308098,0.1069090614762733
22.159583999999995,9.328296972686596,0.1062320605181562
22.161972,9.326867221452703,0.1056031755298671
22.164352,9.326927714286033,0.1049500123964659
22.166748,9.321913070439887,0.1043425549536069
22.169136,9.312894225100909,0.1037694999452842
22.171516,9.295587437522544,0.103272197194476
22.173912,9.287359988116483,0.1026979484569441
22.1763,9.270053200538118,0.1021993296540772
22.178684,9.249254068146117,0.1017427957318851
22.18108,9.225194908365951,0.1013475649426572
22.183468,9.20695505936994,0.1009375396088689
22.185848,9.188295901493348,0.1005418441188692
22.188252,9.167355103616616,0.1001719536994005
22.19064,9.138358680925974,0.0998971962527125
22.193024,9.109966662713148,0.0996579889498289
22.195416,9.0781748474853,0.0994864796705791
22.197804,9.051970025616122,0.0992814686285758
22.200188,9.02748776523964,0.0990701973646737
22.202592,9.001095951915358,0.0989003625008191
22.204976,8.986762069039953,0.0986930466282276
22.207356,8.973312129896081,0.0985117209315676
22.209756,8.95930311224477,0.0983508779992565
22.212144,8.938449174593048,0.0982691486327058
22.214524,8.920621051046135,0.0981925775365534
22.216928,8.904468267163676,0.0981426242537229
22.219312,8.900560405185196,0.0980191240235672
22.221696,8.890087162460027,0.0979636764125475
22.224092,8.887854640146001,0.0978672557279004
22.226476,8.885435126376867,0.0978079359230828
22.22886,8.890744476339686,0.0976970285129571
22.231256,8.897916157422062,0.0975764520329632
22.233644,8.909743666303328,0.0974312558368128
22.236024,8.92301419742357,0.0972918816470166
22.23842,8.938938455596286,0.0971416193078593
22.240808,8.955421792276447,0.0969706149036117
22.243204,8.977399574516658,0.0967428504551562
22.2456,8.996304320823814,0.0965428714223416
22.247988,9.01614023269075,0.0963391415354249
22.250368,9.038257784557825,0.0961103202800664
22.252772,9.058699996760442,0.0958576781603628
22.25516,9.079701287470504,0.0955848835327185
22.257544,9.105265858180838,0.0952621113764356
22.25994,9.13953768001114,0.0948562707318487
22.262328,9.17264601885619,0.0944351822595321
22.264708,9.205149953223424,0.0939781017300094
22.267104,9.227550836059956,0.093569987729905
22.269492,9.247577531097734,0.0931584755049262
22.271872,9.265369807963616,0.0927429400835623
22.274276,9.283488845911464,0.0922845911170938
22.276664,9.299373465687417,0.0918232557260805
22.279044,9.31381506322439,0.091357612809321
22.281444,9.32481153777597,0.0909013564163512
22.283832,9.335435925275211,0.0904294401594073
22.286216,9.349832196841811,0.08991099477623
22.288612,9.363297302848636,0.0893974122042512
22.291,9.373037746616344,0.0889018895215432
22.29338,9.38026423295844,0.0884080787004776
22.295776,9.3846972226212,0.0879266838652872
22.298168,9.384614154111928,0.0874597805120534
22.300548,9.379036640042605,0.0870431722956874
22.302944,9.377463327466112,0.0866027568723017
22.305332,9.37360837488948,0.0861855205070795
22.307712,9.361325710446604,0.0858339790927086
22.310108,9.349974211563508,0.0854782277831795
22.3125,9.340996900479164,0.0851263011275316
22.31488,9.338537748313268,0.0847482965929184
22.31728,9.341665589506045,0.0843479330979357
22.319668,9.342232251444958,0.0839791164855271
22.322048,9.34424193562285,0.0836175982832876
22.324444,9.343830210173747,0.0832833050934991
22.326836,9.339134743978091,0.0829818300396571
22.329215999999995,9.334159738528712,0.0826897688800026
22.331612,9.326903093079196,0.0824185243203703
22.334,9.316154102816045,0.0821824219369227
22.336383999999995,9.303914868485672,0.0819687475541087
22.33878,9.29162841232706,0.0817854726127181
22.341168,9.28157637434034,0.0816109312444959
22.343548,9.26910292672662,0.0814623095956172
22.345944,9.259934832471435,0.0813140500600795
22.348332,9.256773040455505,0.0811300213077444
22.350716,9.248116802879515,0.0809932401252788
22.35312,9.240112191609589,0.0808627483788638
22.355508,9.23676340813855,0.0807149232081627
22.357892,9.232436237279492,0.0806017680151086
22.360288,9.223545786420155,0.0805317638351186
22.362676,9.209300659627631,0.080503108801727
22.36506,9.193705058394748,0.0804920742738825
22.372228,9.157206401824029,0.0804794437436509
22.374624,9.1528773351071,0.0804548462911075
22.377012,9.147989189882733,0.0804498541360374
22.379392,9.149479433949953,0.080426989671475
22.381788,9.152552469883004,0.0804074920285848
22.38418,9.159489937682036,0.080370209599105
22.38656,9.172853016600897,0.0802848483320755
22.38896,9.186867721825813,0.0802061785658795
22.391348,9.2076801252229,0.0800952699886711
22.393728,9.23035485973954,0.0799786318514937
22.396128,9.247674918322993,0.0799026183635634
22.398516,9.26699707765286,0.0798155678965683
22.4009,9.287250402542506,0.079725769749527
22.403296,9.305501626685736,0.0796471755894346
22.405684,9.324172159709544,0.0795539364512411
22.408068,9.34619526792013,0.0794317335625054
22.410464,9.371291412063773,0.0792901916028776
22.412852,9.39252312434144,0.0791658131297125
22.415232,9.416036476619244,0.0790218600389802
22.417628,9.441831468897186,0.0788583104532236
22.420016,9.46604366930929,0.0786915801608968
22.4224,9.490395639348256,0.0785222612548214
22.424796,9.515166918267802,0.0783382374547864
22.427188,9.536493074201957,0.0781582174196203
22.429572,9.555305272710491,0.0779775896173692
22.431968,9.573605614539831,0.0777869712821222
22.434356,9.58524802782387,0.0776226904020709
22.43674,9.596797893309285,0.0774335507706505
22.43914,9.608394980622943,0.0772163543247006
22.441524,9.619480211257404,0.0769891167028125
22.443904,9.634337325959224,0.0767214242991459
22.4463,9.643886986556092,0.0764599296266877
22.448688,9.652133394540844,0.0761857071360876
22.451068,9.664011916966093,0.0758764896618779
22.453472,9.676449517898783,0.0755493692134066
22.45586,9.689306427712053,0.0752098619768657
22.458244,9.701139624166924,0.0748487202499217
22.46064,9.717116791741493,0.0744631851235259
22.463028,9.725644634837836,0.0740977456781415
22.465412,9.726211296776754,0.0737404266235442
22.467808,9.72705749796939,0.0733735197824747
22.470196,9.7221769361765,0.0730261599459082
22.47258,9.719578014383746,0.0726603897854716
22.474976,9.715116761471435,0.0722989476740135
22.477368,9.716010184492315,0.0719035124528185
22.479748,9.715041276393642,0.0715131796157757
22.482148,9.71607446904138,0.0711133298914493
22.484536,9.718038827248902,0.0707122603132086
22.48692,9.717162466948846,0.070348641672092
22.489316,9.710279804409536,0.070010524615611
22.491704,9.698973631496813,0.0697031865485513
22.494084,9.6931146823159,0.069386454266722
22.496488,9.688838525000822,0.0690747533581367
22.498872,9.679347461379413,0.0687914478500915
22.501256,9.667574757757867,0.0685253070463576
22.503651999999995,9.652449478949544,0.0682830212341145
22.50604,9.6363458127532,0.0680718279997291
22.50842,9.621173312116635,0.0678589252763298
22.510816,9.61251897039852,0.0676317036670271
22.513204,9.613036514651323,0.0673894754327034
22.515584,9.615276620396823,0.0671482667304388
22.51798,9.62152092763516,0.0668904112860109
22.520368,9.627485695619775,0.06664258570812
22.522748,9.634521398791028,0.0663881683587369
22.525152,9.63513149084245,0.0661717369484583
22.52754,9.636532978826793,0.0659580906397458
22.52992,9.635652826810992,0.065761076880896
22.53232,9.629417998862005,0.0655945324401281
22.534704,9.6206692134874,0.0654235717773019
22.537084,9.62193093184488,0.065213531315915
22.539484,9.62905918281475,0.0649848441459605
22.541868,9.63753790822498,0.0647423302263676
22.544248,9.644433841769375,0.0644946284813095
22.546652,9.65547374643346,0.0642273954183102
22.54904,9.668655521470829,0.0639482054153521
22.55142,9.68425870613519,0.0636482227402142
22.553816,9.699489803747214,0.0633313940806382
22.556204,9.70955321688115,0.0630102954823684
22.558588,9.717102672589473,0.0626856113415216
22.560984,9.71906513493912,0.062370437621386
22.563372,9.720375970982712,0.0620485107603196
22.565752,9.719033079973828,0.0617262118605135
22.568152,9.717318101912612,0.0613883192914175
22.57054,9.717465454970949,0.0610483353759291
22.57292,9.72282771433562,0.0606848918476656
22.575316,9.729400678513787,0.0603125371049014
22.577704,9.738395052318952,0.0599202418532796
22.5801,9.75488597243059,0.0594899658700116
22.582496,9.775520863661916,0.0590426565822072
22.584883999999995,9.78735595597466,0.0586195590200277
22.587264,9.79695663011551,0.0581845223827692
22.589664,9.803903577203886,0.0577495549343784
22.592051999999995,9.812433316158096,0.0573220961102497
22.594432,9.818960954365892,0.0569015154669092
22.596836,9.82469719664077,0.056477879924986
22.599219999999995,9.831364604475423,0.0560547116318141
22.601604,9.84203621380291,0.055620971496151
22.604,9.854150845369372,0.0551970236737069
22.606384,9.863052671375922,0.0547866951593324
22.608764,9.871954497382472,0.0543755605137271
22.611164,9.87485002114977,0.053979428983764
22.613548,9.878257401596269,0.0535949087975192
22.615928,9.878172437229129,0.0532331102706771
22.618324,9.87208117062274,0.0528864311923833
