Time,Force,Position
20.942976,5.206591391431671,0.1593235958261532
20.95014,5.203473029528241,0.1593034900509541
20.95252,5.2045439647148815,0.1592730260476938
20.954916,5.211621202140772,0.1590934521787037
20.957308,5.214694238073829,0.1590139490825308
20.959688,5.217395186954546,0.1589101005922302
20.962088,5.220003588036646,0.1587616812571867
20.964476,5.224753859492024,0.1585561831973962
20.966856,5.231785770947539,0.1582823661223958
20.969252,5.241331639828667,0.1579712682123586
20.97164,5.250038890948636,0.1577240661417864
20.974024,5.256744041322189,0.1575256769396998
20.97642,5.266661997255658,0.1572385475159448
20.978808,5.282074398749178,0.1567923672378311
20.981192,5.302050080242973,0.1562073898092382
20.983588,5.321234365803848,0.1556364935717602
20.985972,5.332550018005916,0.1552527752664688
20.988356,5.348381728380015,0.1547861892422077
20.990752,5.368589727299288,0.1542504275453174
20.99314,5.386376316591564,0.1537994972808858
20.995524,5.406724085137697,0.1532582146912256
20.99792,5.426932084056971,0.1527235107119885
21.000308,5.443555190363988,0.1522551680807843
21.002688,5.456313864805033,0.1518753097580354
21.005088,5.469491848126658,0.1514629244739068
21.007476,5.484392392940979,0.1510226922544361
21.009856,5.496871528128306,0.1506583277700476
21.012252,5.502552965143463,0.1504424823330094
21.01464,5.507023697345122,0.1502668135548162
21.01702,5.512193277681083,0.1500414420169687
21.019416,5.5177821668976215,0.1497854665595002
21.021804,5.526444092047213,0.1494574767233491
21.024184,5.5357576435028655,0.14913569857114
21.02658,5.5395767493984645,0.1489604823899935
21.028968,5.538972344920652,0.1489047426606596
21.031348,5.539578645256336,0.148812366041262
21.033764,5.543257981525075,0.148648953716816
21.036152,5.545354525927978,0.1485004301105857
21.038532,5.544937112905265,0.1483832507282414
21.040948,5.544287382457075,0.1482338725113202
21.043336,5.545360213501582,0.1480621857399154
21.045716,5.551787720479282,0.1477628570698444
21.048112,5.560217328203398,0.1474223394772197
21.0505,5.568646935927516,0.1470822777115586
21.05288,5.580940975517606,0.1466720932932817
21.055276,5.595656424734694,0.1461957674840817
21.057664,5.6158663195118335,0.1455873812919328
21.06006,5.637938545408529,0.1449412103386121
21.062456,5.65856774906625,0.1442994023153143
21.064844,5.680128118283748,0.1436499567381642
21.067224,5.702899192314748,0.1429699827403325
21.069624,5.720595129666274,0.1423939545994514
21.072008,5.73242453440541,0.1419265541900152
21.074392,5.753612816570572,0.1412604224301803
21.076796,5.779084839482287,0.1404966992774073
21.079184,5.798550560154752,0.1398509072453857
21.081564,5.814151848961244,0.1392739709784253
21.08396,5.830684303327515,0.1386848340803778
21.086348,5.847356527320647,0.1380883799162071
21.088728,5.864540607992976,0.1375085412053963
21.091124,5.877860256799332,0.1369986559175967
21.093512,5.885173603366437,0.136608334973962
21.095892,5.890764388440845,0.1362388695158963
21.098296,5.897426108701891,0.1358470449203145
21.100684,5.899943857843244,0.1355419334595118
21.103064,5.901250902171099,0.135271296935258
21.10546,5.898134436125538,0.1351024370563799
21.107852,5.896508214147198,0.134883470808641
21.110232,5.897535719221331,0.1346328864809223
21.112628,5.897492289108826,0.1344062974700492
21.115016,5.8994509597427385,0.134146306955366
21.117396,5.904622435936566,0.1338186031692793
21.119792,5.917010919183142,0.1333533042940209
21.12218,5.921390999444053,0.1330330903926984
21.12456,5.922698043771908,0.1327702281384603
21.12696,5.931873721458569,0.1323784849452912
21.129348,5.948638493250318,0.131878199360254
21.131728,5.960328128362594,0.1314654392205333
21.134124,5.971458684967429,0.1310880997163308
21.136512,5.982729011199124,0.1307044601223859
21.138896,5.997863769296791,0.1302622820039712
21.141292,6.013789923327379,0.129813360804554
21.14368,6.031019329970082,0.1293744667614401
21.146064,6.042382204000395,0.1290267151490148
21.14846,6.055095552471066,0.1286397926853563
21.150848,6.064735865008681,0.1283086059006198
21.153232,6.074515947173159,0.1279673862965362
21.155628,6.08653044750953,0.1276260797816328
21.158016,6.094540746353066,0.1273534380643281
21.1604,6.099478009263547,0.1271360444075038
21.162796,6.100411070681195,0.1269875649268023
21.165184,6.104417168031897,0.1267860843010556
21.167568,6.104139524636047,0.1266685510805105
21.169964,6.105584442732892,0.1265348827973047
21.177132,6.0926916862385925,0.1264243960054668
21.17952,6.088549610976767,0.1263634660023198
21.24164,5.980740356076279,0.1263577428301844
21.244032,5.988748759061947,0.1262297697055198
21.246428,5.997967866861114,0.1260737998065943
21.248824,6.007466513914,0.1259030009957119
21.251212,6.012029793914274,0.1258058768225209
21.253592,6.021668210594021,0.1256271961646861
21.256,6.033029188766464,0.1254341516604272
21.258388,6.048953446939181,0.1251463657683411
21.260768,6.067671201791234,0.1248235022490814
21.263164,6.089601762203202,0.124443253020535
21.265548,6.109669991495614,0.1240839417586018
21.267932,6.131880091161303,0.1236849482850548
21.270328,6.152367629334294,0.123302769892923
21.272712,6.1719240019475095,0.1229310349758789
21.275092,6.1937620145608605,0.1225109967843564
21.277496,6.213877465681516,0.1221030816725182
21.279884,6.237065952735225,0.1216480305956294
21.282264,6.2546674464302665,0.1212618680034147
21.28466,6.273200105685086,0.1208659921905026
21.287048,6.290801599380127,0.1204847122328711
21.289428,6.308263323448307,0.120112013349899
21.291832,6.316645709344182,0.1198828056972988
21.29422,6.323817390426556,0.1196815948189596
21.2966,6.32591393482946,0.1195589574511581
21.298996,6.332154450352056,0.1193668723232982
21.30138,6.332388663635402,0.1192657522212253
21.30376,6.332902416172469,0.1191486849796202
21.306168,6.329272197589842,0.1190990879925754
21.308552,6.3269924534475726,0.1190147112459325
21.310932,6.320708507812471,0.1189882745805944
21.313336,6.316566432550646,0.1189246727201969
21.315724,6.312703896542542,0.1188449172185379
21.318108,6.309120899788158,0.1187490154154698
21.320504,6.312615140459664,0.1185508395156903
21.322892,6.31545775482511,0.118347598548001
21.325272,6.321373405123612,0.1180982162646683
21.327668,6.323564393183003,0.1178899925207754
21.330056,6.330690748295006,0.1176164346927789
21.33244,6.33702570747409,0.1173458253106538
21.334836,6.339636004414058,0.1171139943626901
21.337224,6.344667710981026,0.1168324376239146
21.339604,6.351561748667553,0.1165291758898916
21.342008,6.357664390421158,0.11622752379877
21.344396,6.370052873667735,0.1158277407035231
21.346776,6.382441356914312,0.1154289171601486
21.349172,6.395900775347526,0.1150102157217511
21.35156,6.408289258594103,0.1146108080805555
21.353944,6.42188844665418,0.1141855106210351
21.35634,6.433345764340977,0.1137980158433155
21.358728,6.44852774426689,0.1133722370670061
21.361112,6.467713925685637,0.1128979176597348
21.363508,6.486760337477521,0.1124349121287012
21.365896,6.503525109269269,0.1120130347358608
21.368276,6.507485880649599,0.1117516235099346
21.370672,6.50902524240293,0.1115393256337553
21.37306,6.510704373783122,0.1113202927902879
21.375444,6.515456541096369,0.1110591850886851
21.37784,6.513131470983727,0.1108922412488638
21.380228,6.509595696057587,0.1107497424320841
21.382608,6.511926453743836,0.1105368935789549
21.385004,6.51104440587017,0.1103749537437933
21.387392,6.514306329116198,0.1101547343211475
21.389776,6.518639187548864,0.1099178096099711
21.392172,6.523763441914449,0.10968318581067
21.39456,6.53075002739959,0.1094325974160742
21.396956,6.537736612884732,0.1091813821299803
21.399352,6.545654363929652,0.108922304810303
21.40174,6.553432345347711,0.1086711478012314
21.404124,6.558277060459576,0.1084520647158813
21.40652,6.560188509265244,0.1082666229982369
21.408908,6.555953886204802,0.1081625738881913
21.411292,6.550648327957722,0.1080743742148228
21.413688,6.547996496763116,0.1079683334053351
21.416076,6.554935860420014,0.1077615414568459
21.418456,6.567229900010105,0.1074756791663578
21.420852,6.579384169973335,0.107199384495599
21.42324,6.586043994376513,0.107009484136081
21.42562,6.597639185832303,0.1067603587232449
21.42802,6.610305312474732,0.1064948872151755
21.430404,6.619758633557244,0.1062792389996075
21.432784,6.631214055386174,0.106039880500371
21.435188,6.639596441282047,0.105842211247353
21.437576,6.6489099927377,0.1056373085543954
21.439956,6.649283975647907,0.105535241779184
21.442356,6.643791425945724,0.1054967636730457
21.44474,6.640300976989957,0.1054344578053033
21.447124,6.633877261727995,0.1054039207217607
21.449528,6.627593316092893,0.1053657805655058
21.451916,6.626244737510403,0.1052721991192292
21.454296,6.625315467808494,0.1051561207481697
21.456692,6.626528068479861,0.1050086055839979
21.45908,6.627740669151229,0.1048611806424112
21.461464,6.629652117956898,0.1046773128591882
21.46386,6.630120544523591,0.104488603371907
21.466248,6.62765570478409,0.104331482253827
21.468628,6.622117829111533,0.1042119370062002
21.471028,6.6208636941855294,0.1040318588673469
21.473412,6.622962134446301,0.1038006883852911
21.475796,6.627342214707211,0.1035338186651797
21.478192,6.630139503102284,0.1032669521546224
21.48058,6.631865856310718,0.1030154629397692
21.48296,6.633731979146013,0.1027569776693561
21.48536,6.635877641235028,0.1024853526366082
21.487748,6.644309144817016,0.1021318842973764
21.490128,6.658746950638253,0.1017115018493555
21.49252,6.673324526086351,0.1012866257086374
21.494908,6.691114907094363,0.1008181737612241
21.497304,6.707974122542598,0.1003573376109551
21.4997,6.720968906124859,0.0999335726952204
21.502088,6.734755085640037,0.099510168833956
21.504472,6.748401495528356,0.0990946386504823
21.506868,6.761536048737477,0.0986652067958893
21.509256,6.77359966675996,0.09825228920788
21.51164,6.781519313662748,0.0978885616207687
21.514036,6.7872970901922605,0.0975526172996576
21.516424,6.796939298587746,0.0971816488564186
21.518808,6.805790111050313,0.0968120020608028
21.521204,6.810217413139466,0.0965071253129955
21.523592,6.809569578549147,0.0962574851203447
21.525972,6.810784075078384,0.0959937945454183
21.528368,6.810136240488064,0.0957430675353769
21.530756,6.811490506644162,0.0954727837918261
21.53314,6.81135452873304,0.0952379688961791
21.535536,6.806795040448503,0.0950644726482588
21.537924,6.799022746604051,0.0949319937081739
21.540304,6.787106481639906,0.0948466380639618
21.5427,6.7731881159293446,0.0947808521492165
21.545088,6.756848340591785,0.0947567896901517
21.547472,6.743441831560421,0.0947054881981614
21.549868,6.729616013648475,0.0946752977042787
21.557044,6.683947366964702,0.0946734629785878
21.559432,6.673938759090487,0.0946518331305118
21.564208,6.6542936303943945,0.0946304124437225
21.566596,6.644796879199378,0.0946227430503073
21.56898,6.638373163937415,0.0945816445936088
21.571376,6.636465506847484,0.0945156691784094
21.573764,6.63642018087711,0.0944372295524862
21.576144,6.636374854906736,0.0943583881874755
21.578544,6.632185557816669,0.0943259189626866
21.580932,6.627484404047404,0.0942785223876415
21.583312,6.630000257330888,0.0941522694618252
21.585708,6.634657980987648,0.0939996603889745
21.588096,6.644670380577604,0.0937812251351992
21.59048,6.656684880913974,0.093544265543945
21.592876,6.675544301250756,0.0932087719360137
21.595264,6.694683260841258,0.0928622271327787
21.597644,6.71666293893934,0.0924580682813616
21.600044,6.741995192224196,0.0920097047824699
21.602432,6.768026293643353,0.0915286011426681
21.604812,6.789681106517339,0.0910616920837796
21.607212,6.81003266677921,0.090582304929854
21.6096,6.830431448869324,0.0900629796302809
21.61198,6.85646444614635,0.0894696617501351
21.61438,6.87518788857201,0.0889140485280059
21.616768,6.88981458170622,0.08836012346913
21.619164,6.903697100735754,0.0877665039733737
21.62156,6.9157645104739744,0.0871451930958226
21.623948,6.934397300958888,0.0864501797802385
21.626332,6.954008478831821,0.0857060317631989
21.628728,6.972828260771838,0.0849592002880065
21.631116,6.986340588606905,0.0842345015394108
21.633496,7.001902239016632,0.0834585268205444
21.635896,7.013739227187244,0.0827044463873886
21.638284,7.024272962745742,0.0819359471006017
21.640664,7.029871331251627,0.0812069636450918
21.64306,7.034026677518535,0.0804693841438854
21.645448,7.0333864263596935,0.07976057665352
21.647832,7.031163383335015,0.0790487735890886
21.650232,7.029080109937197,0.0783318903237229
21.65262,7.034074073965267,0.0775620332147549
21.655,7.037345476500642,0.0767936386845986
21.657396,7.041827583849514,0.0760123818793403
21.659784,7.042957116011612,0.0752705827535992
21.662168,7.049161784853181,0.0744883420287006
21.664564,7.059882511866782,0.0736960891568461
21.666952,7.067250663693607,0.072939120715921
21.669332,7.069775996266437,0.0722423149200727
21.671728,7.063082221040101,0.0716136609407457
21.674116,7.054898201746546,0.0710101943177359
21.6765,7.047645348012769,0.0704016156790236
21.6789,7.037831315025135,0.0698269467808617
21.681288,7.019170261290672,0.0693382987948458
21.683672,7.003814560914741,0.0688561376396626
21.686076,6.985618142031232,0.0684220757852507
21.688464,6.965931479080504,0.0680136516152938
21.690844,6.9444750328088345,0.0676445282321607
21.693248,6.924461608776143,0.0672864123472564
21.695636,6.90333002772857,0.0669784289940801
21.698016,6.877635166680723,0.0667185107997425
21.700412,6.846445860072823,0.0665098155253721
21.7028,6.812276065330484,0.0663566917736512
21.70518,6.7740548472670685,0.0662680457585208
21.72668,6.503004496720175,0.0662558188938969
21.729076,6.499327056309305,0.0662227731516479
21.731464,6.4916454144056,0.066212507118134
21.733844,6.4887593699276485,0.0661833769687331
21.736252,6.49560428992806,0.0661110417840727
21.738636,6.505102936980947,0.0660379530421192
21.74102,6.51618437589967,0.0659732349624864
21.743416,6.530478620378308,0.065882389993791
21.745804,6.550359858215617,0.065776963143276
21.748184,6.57182388791876,0.0656792854350582
21.75058,6.601296320607573,0.06553653479012
21.752968,6.630628983669524,0.065398130368791
21.755348,6.659961646731476,0.0652597259474621
21.757748,6.686361043487232,0.0651357643099978
21.760132,6.716764641735823,0.0649890183217081
21.762516,6.747447779238134,0.064829226979244
21.76492,6.778270686367304,0.0646646188622716
21.767308,6.810024759056254,0.0644993172923849
21.769688,6.834981133573035,0.0643637181902038
21.772084,6.861148212903314,0.0642143525013752
21.774472,6.889457162606871,0.0640500402566197
21.776852,6.9100372485784805,0.0639178782797352
21.779252,6.935552701602701,0.0637628844973779
21.78164,6.961207924253782,0.0636035840783525
21.78402,6.97671287354592,0.0635041374283594
21.78642,6.992497362091777,0.0633929970633756
21.788808,7.010423721010911,0.063266624757917
21.791188,7.025416813623852,0.0631531116835147
21.793588,7.038827114370954,0.0630319955079688
21.795972,7.052656723998638,0.0628927089492045
21.798356,7.063832606573847,0.0627548559308086
21.80076,7.081294330642027,0.0625761814447129
21.803148,7.101037694710345,0.0623769045242661
21.805532,7.123854094711718,0.0621608868110589
21.807928,7.142806062847117,0.0619583497772721
21.810316,7.163480592475213,0.0617590217731163
21.812696,7.182432560610612,0.061558509419496
21.8151,7.198730801693537,0.0613581393340023
21.817488,7.221175114642572,0.0611240816007578
21.819868,7.239754995725634,0.0609034178848203
21.822272,7.255122071248779,0.0607069601821917
21.82466,7.271420312331703,0.0605079718456146
21.82704,7.281991790429097,0.0603252379016359
21.829444,7.28776767110074,0.0601565895879077
21.831828,7.29596496139938,0.0599599893267208
21.834212,7.30416225169802,0.0597643568013299
21.836608,7.308634879757547,0.0595758825121311
21.838992,7.314038673376853,0.0593857646467127
21.841372,7.318371531809519,0.0592030446744614
21.843772,7.324706490988602,0.0590123566525049
21.846156,7.332112385354324,0.0588158159830745
21.848536,7.333931286361375,0.0586284911878288
21.850928,7.333748086622011,0.0584502796976064
21.853312,7.329840224643533,0.0582772851863736
21.855692,7.32914516822497,0.0580830339840639
21.8581,7.324353362514956,0.0578717317765214
21.860488,7.317699225685385,0.0576623140902158
21.862868,7.3141181247888705,0.0574381290301745
21.865272,7.306672592026383,0.057224723900598
21.86766,7.304441965570227,0.0569833643195335
21.87004,7.301699482434874,0.056725719539903
21.872444,7.301518178553378,0.0564377373272055
21.874832,7.307343176911133,0.0561271336562996
21.877212,7.315030506388446,0.0558131881551549
21.879616,7.322717835865757,0.0554989042021467
21.882004,7.324538632730678,0.0552003389964259
21.884384,7.3263594295956,0.0549012926695809
21.886788,7.328180226460521,0.0546023896859066
21.889176,7.33214289369872,0.0542905721546356
21.891552,7.329168093137889,0.0540010058096088
21.893956,7.318836515897448,0.0537508302593153
21.896344,7.310087730522844,0.0535098306630168
21.898728,7.300407779588463,0.0532692152897887
21.901128,7.293521325333416,0.0530259260290887
21.903516,7.283561835145313,0.0527960008589324
21.905896,7.275836763129105,0.052586108734342
21.908292,7.272627749284928,0.0523788064913356
21.910676,7.264203829134419,0.0521975984970505
