Time,Force,Position
20.49408,4.671529655592351,0.1465467728540107
20.496464,4.695133659810903,0.1461892385764291
20.49886,4.726746067015122,0.145642806170449
20.501248,4.761059423100061,0.1449987182923567
20.503636,4.802729555864608,0.1441694555104859
20.506032,4.844120149375435,0.1433659873145209
20.50842,4.885370973259401,0.1425663766420975
20.510804,4.921826199717616,0.1418668245101314
20.5132,4.955627699123356,0.1412044443969403
20.515584,4.9846336011033445,0.1406424178142214
20.517972,5.012848107150414,0.1400911015378
20.520368,5.049071016183151,0.139363945280502
20.522752,5.08422299002925,0.1386738229318127
20.52514,5.123239395741322,0.1378965760140929
20.527544,5.163186967013173,0.1371103306877673
20.529928,5.202762451232687,0.1363145699984493
20.532312,5.235680006906891,0.1356498514424201
20.534708,5.2608686988491495,0.1351411805784267
20.537096,5.279911318925296,0.1347781023895201
20.539484,5.290805766388916,0.1346020350550149
20.55384,5.316689514749736,0.1343759080775765
20.556244,5.32013463773513,0.1343365630189672
20.558632,5.326792566280439,0.1342229467380346
20.561036,5.33759446594544,0.1340206777067931
20.580196,5.333639382138719,0.1338879304354909
20.582588,5.334430778071637,0.1338828358056054
20.584992,5.341368245870666,0.1337488605734729
20.587388,5.354451785535805,0.1334858306998769
20.589784,5.362460188521472,0.133328738279018
20.592176,5.374612562626833,0.1330829367841295
20.594572,5.384762835985779,0.1328767368981771
20.596976,5.39733451897172,0.1326034150081737
20.599364,5.407624561957524,0.1323907197106998
20.60176,5.413491094569914,0.1322846237883237
20.604156,5.41670390012983,0.1322124605846838
20.606544,5.418706000876247,0.1321741481324681
20.60894,5.419497396809166,0.1321695926125567
20.61134,5.423222059048279,0.1321132931257398
20.613724,5.430252074645925,0.1320295146672956
20.616108,5.444499097296321,0.131798979721108
20.618504,5.461819155879772,0.1315059731289147
20.620888,5.478767127410885,0.1311904492362
20.623284,5.496646264501776,0.1308618503482172
20.62568,5.515875876033027,0.130488103800391
20.628068,5.537247357937556,0.1300727930265457
20.630452,5.555545803909027,0.1297185618631945
20.649576,5.563833746148413,0.1295572633934463
20.651956,5.566767012454609,0.1295057042143921
20.65436,5.570259357268246,0.1294161609661633
20.656748,5.573891471708742,0.1293176944259474
20.678248,5.5599731059981785,0.1293136825074848
20.680628,5.564955694879034,0.1291798687430696
20.683028,5.574082254879582,0.1289671957286507
20.685412,5.583767893387573,0.1287167345374734
20.687792,5.599879143015393,0.1283332265615647
20.690188,5.6186441196956896,0.1279235368265115
20.692576,5.643834707495816,0.1273816456078277
20.694956,5.673169266415636,0.1267565356021272
20.697356,5.699570559029263,0.1261860946263691
20.699744,5.719266701269337,0.1257677339798296
20.702124,5.739474700188609,0.1253661780817417
20.70452,5.756889202428546,0.125002251691364
20.706908,5.76950810724273,0.1247119803902384
20.709292,5.780124911310499,0.1244546490404928
20.711688,5.7931631250052655,0.1241360670268376
20.714072,5.809414144259947,0.1237565993758169
20.716456,5.824222141275652,0.1233753881181868
20.718852,5.839309677545076,0.1229749749072488
20.72124,5.853046739374144,0.122615744235216
20.723636,5.866132174897154,0.1222483190608391
20.726032,5.877727366352943,0.1219326982296513
20.728416,5.885178586689039,0.1216955803180534
20.7308,5.889556771092079,0.121512879695397
20.733196,5.896868221801315,0.1212867951887865
20.735584,5.902177571764133,0.121095458644942
20.737964,5.90283109392806,0.1209623751040716
20.74036,5.900551349785792,0.1208728974994871
20.742748,5.897480209710606,0.1207861908352341
20.745132,5.895340235195199,0.1206882907646722
20.747528,5.896180748814229,0.1204988645320188
20.749912,5.895298700940563,0.1203234678691208
20.752296,5.898420854559731,0.1200861844341023
20.754692,5.90140323855204,0.1198558964160251
20.757076,5.908669363290901,0.1195464073526485
20.759472,5.913141991350428,0.1192707763136952
20.761868,5.911748086797565,0.1190799586222405
20.764256,5.911145578177618,0.1188863752157386
20.766636,5.91105492623687,0.1187071869346178
20.769032,5.911243813549843,0.1185108715788272
20.77142,5.917299233475206,0.1182321189490701
20.773804,5.920700926348094,0.1179775347864725
20.7762,5.924382158474703,0.1177060470796912
20.778588,5.929413865041671,0.1173977195933105
20.780968,5.933374636421998,0.1171111554915928
20.783364,5.935473076682771,0.11684658880661
20.785752,5.9418552576901,0.1165057634600238
20.788148,5.945304172391232,0.1162042414031047
20.790544,5.947542382278865,0.1159301842384254
20.792932,5.9452645339944645,0.1157004188019086
20.795312,5.942567376829484,0.1154963290204208
20.797708,5.940289528545085,0.1152661359124944
20.800096,5.93493864432763,0.1150851527483824
20.802476,5.934523127162787,0.1148346587454867
20.804876,5.931686200370949,0.1146396859848881
20.807264,5.931363231004723,0.1144301202913003
20.809644,5.934904693504472,0.1141698594314557
20.81204,5.937654760071302,0.1139114185264268
20.814428,5.941895070705351,0.1136095156038608
20.816808,5.944924676525901,0.1133345803704716
20.819204,5.940085648987646,0.1131677025198818
20.821592,5.942323858875279,0.1128969265031395
20.823988,5.942699737643354,0.1126458448903164
20.826384,5.941864911597932,0.1124214657315378
20.828772,5.935815179246176,0.1122806694704549
20.831152,5.929485907640701,0.1121564314123975
20.833548,5.91980406084845,0.1120960652776234
20.835936,5.914778041855091,0.1119849292864254
20.838316,5.911754123608148,0.1118451215751527
20.84072,5.914968825025933,0.1116512452712094
20.843108,5.918043756816858,0.111465886469292
20.845488,5.920280070846621,0.1113307074363229
20.847892,5.921305680062885,0.1112219811226896
20.85028,5.917675461480258,0.1111642190051743
20.85266,5.9151161780842685,0.1110879289354928
20.855064,5.910694563568724,0.1110317873747945
20.857452,5.9038515394261815,0.1110295760220949
20.859832,5.898591307149475,0.1110239549379175
20.862228,5.894122470805686,0.1110162276670938
20.864616,5.893797605581592,0.1109441571151361
20.867,5.89826833778325,0.1108141943347055
20.869396,5.895242523678438,0.1108114486126949
20.871784,5.89459089737238,0.1108045208496247
20.874168,5.8967327677456565,0.1107686059446097
20.876564,5.907302349985182,0.1105978408003655
20.878952,5.917871932224706,0.110426198585896
20.881336,5.926439413717814,0.1102806167678541
20.883732,5.931933859277867,0.1101815015026633
20.88612,5.938778779278279,0.1100490904814117
20.8885,5.943249511479936,0.1099217013957517
20.890896,5.947999782935314,0.1097780159715379
20.893284,5.959035895883663,0.109538773859256
20.895668,5.977149246257902,0.1092044322057514
20.898064,5.998847489244393,0.1088423698345974
20.900452,6.016821069991771,0.1085161967649807
20.902832,6.038938621858843,0.1081316703921194
20.905232,6.0636173529797714,0.1076887180162533
20.90762,6.091508889660616,0.1072012417664231
20.91,6.118748800035403,0.106712889265853
20.912396,6.1401221777978,0.1062947030395004
20.914784,6.15963322444064,0.1058946392857163
20.917168,6.179423810337201,0.105474343011748
20.919564,6.198982078808285,0.1050249110051839
20.921948,6.218028490600171,0.1045649674797768
20.924332,6.232930931272362,0.1041683247916648
20.926728,6.251185947131329,0.1037173993677423
20.929116,6.27358493410999,0.1032079765738077
20.9315,6.297613934782731,0.1026511105205385
20.933896,6.318569899522417,0.1021383533042533
20.936284,6.335521662769267,0.1016717680245929
20.938668,6.351682030083201,0.1012062606471203
20.941072,6.361184468851826,0.1008093799055004
20.94346,6.366962245381337,0.1004493649863535
20.94584,6.370226064485235,0.1000985795555873
20.948236,6.376702689149047,0.0997004046003858
20.950624,6.379594421200607,0.09932765941506
20.953008,6.38169475731925,0.0989562599349939
20.955404,6.377276934519444,0.0986379790389259
20.957792,6.369646306159721,0.0983640825668089
20.960172,6.367090814479472,0.0980304895568249
20.962568,6.364675092426081,0.0976885584647154
20.964956,6.366031254440049,0.0972719093792525
20.967336,6.367107877200295,0.0968709415955617
20.969736,6.364831924773765,0.0965213392852133
20.972124,6.361624806787456,0.096178582586788
20.974504,6.354553256935175,0.0958717485657048
20.9769,6.348971951150112,0.0955293073781621
20.979288,6.342040170924691,0.0952155890040691
20.981684,6.333897685885772,0.0949224767010417
20.98408,6.33241312939216,0.0945734608407993
20.986472,6.328786702525271,0.0942514671985589
20.988852,6.327302146031659,0.0939000579346147
20.991252,6.318880121739019,0.0936173928756351
20.993636,6.3121806589390745,0.0933283681278596
20.99602,6.305341426512272,0.0930467449006104
20.998416,6.297291489271969,0.0927857833404845
21.000804,6.288962012777946,0.0925396138743549
21.003188,6.2832862633363975,0.0922799088842875
21.005584,6.277750283521709,0.0920112899008439
21.007972,6.2671391670275485,0.091798335497108
21.010352,6.2558764242273295,0.0915757466567665
21.012748,6.240841797359756,0.0914251130916348
21.015136,6.222734134559125,0.0913090489352893
21.017516,6.204254384706158,0.0911682942290772
21.019916,6.183772534106773,0.0910480077587649
21.022304,6.1630111442536695,0.0909424549485044
21.024684,6.137686474400289,0.090908487028268
21.027084,6.116645545293464,0.0908153081710325
21.029472,6.096023925067219,0.0906985653512243
21.031852,6.068884145922526,0.0906267483386356
21.034252,6.0466797338304445,0.0905057859983971
21.036636,6.021122746551588,0.0904345111296502
21.03902,6.004365558191316,0.090280638186816
21.04142,5.986677204271266,0.0901325620932703
21.043804,5.965636275164441,0.0900345841057336
21.046184,5.946178137923452,0.0899388386586128
21.05336,5.871832246199523,0.0899105087805426
21.055756,5.85190757824971,0.0898868758539223
21.05814,5.834868954777849,0.0898836614716331
21.060524,5.82262592873174,0.0898392422549821
21.062928,5.815318269738243,0.0897459558056983
21.065312,5.8128987559691145,0.0896526365895217
21.067696,5.817788797051354,0.0895155687918037
21.070088,5.8293367666789,0.0893271089832948
21.072472,5.842747067426003,0.0891249510516205
21.074868,5.850662922613053,0.0890026568053825
21.07726,5.860813195971998,0.0888925230748079
21.079648,5.87734185862253,0.0887461196286054
21.082028,5.89452214757912,0.0886119657232463
21.084432,5.91836036508102,0.0884276665807591
21.086816,5.940056712209642,0.0882741798327066
21.089196,5.962404685644321,0.0881310248586158
21.091592,5.99033965243767,0.0879511613951031
21.093976,6.024280921470271,0.0877177554933019
21.096372,6.067301528675177,0.0873947973773371
21.098776,6.114326337372916,0.0870330519355018
21.10116,6.162561850884154,0.0866512729958079
21.10354,6.208655494022115,0.0862983758578962
21.105936,6.2565189204810165,0.085900992536447
21.10832,6.299586749514167,0.0855413810523798
21.1107,6.33958154261426,0.0852157105701008
21.113104,6.3761312127289616,0.0848994296776008
21.115492,6.406442263178935,0.0846105517528864
21.117872,6.433028651389795,0.0843488901639213
21.120276,6.460965514041013,0.0840619331660609
21.122664,6.492906578185067,0.0837392214035029
21.12504,6.529271152702534,0.083365542589606
21.127444,6.564984100913943,0.0829888444509453
21.129832,6.596041221326461,0.0826392004260656
21.132212,6.620719952447391,0.0823194582522663
21.134616,6.640603086142568,0.0820302278477048
21.137004,6.657972262412131,0.0817418523662312
21.139384,6.675388660509936,0.0814133681716507
21.141788,6.6821429285696,0.0811600934197241
21.144172,6.680376936964399,0.0809573686720701
21.146552,6.678238858306861,0.0807326898532578
21.148948,6.674517987783485,0.0805035208650346
21.151332,6.6725669005810495,0.0802290540749533
21.153712,6.666751381512642,0.0799800955132018
21.156116,6.663497041698091,0.0796876050853359
21.1585,6.663595277070316,0.0793554036993624
21.16088,6.666906318002456,0.0789908537253051
21.16328,6.673290394867652,0.0786001846040518
21.165664,6.674087478374177,0.0782332081481048
21.168044,6.674093165947784,0.0778647353348368
21.170448,6.669722564976221,0.0775031294756335
21.172832,6.659904740272848,0.0771608698442417
21.175212,6.64729341889014,0.076830567151153
21.177616,6.636823967880708,0.0764781492633027
21.180004,6.633152215043446,0.0760859739581961
21.182384,6.634695368512516,0.0756466514660249
21.184788,6.637309457168224,0.0751955128335105
21.187172,6.637641905823796,0.0747740406541865
21.189552,6.643980656718618,0.0743082375090206
21.191956,6.65576663134525,0.0738259984155884
21.194344,6.666202131531522,0.0733696399726395
21.196724,6.677988106158153,0.072890893885205
21.199128,6.688563375971287,0.0724312930717503
21.201512,6.699790272090478,0.0719815973796723
21.203892,6.711389255262006,0.0715567907722471
21.206288,6.720194741754199,0.0711440467372931
21.208676,6.724996026753559,0.0707582210257458
21.211056,6.725513571006364,0.0704106699989443
21.213448,6.7354825404838135,0.070025650164163
21.215836,6.745032201080682,0.0696610681403244
21.218216,6.76044839428994,0.0692667084363969
21.220612,6.773582947499061,0.0688970456192735
21.223,6.788440062200878,0.0685290275757945
21.225396,6.802226241716057,0.0681709371487497
21.227792,6.80814378787243,0.0678560886156149
21.23018,6.812199002909245,0.0675477339415957
21.23256,6.817185383505838,0.0672368433110117
21.234956,6.824685721528046,0.0669326136415625
21.237344,6.832186059550254,0.0666300691705676
21.239724,6.838383144960347,0.0663088231348314
21.242128,6.843788834437521,0.0659838616005325
21.244512,6.849426841340172,0.0656893595549596
21.246896,6.853854143429325,0.0654098910951022
21.249296,6.856419114398921,0.0651345573420148
21.25168,6.856470127942903,0.0648535029010584
21.254064,6.854099731859889,0.06460119229242
21.256456,6.856524933202627,0.0643316948268611
21.258844,6.8640252712248335,0.0640317903235926
21.261224,6.861003248835758,0.0637690513433787
21.263616,6.8553274993942095,0.0635055966614129
21.266004,6.842155203646192,0.0633015084784029
21.2684,6.832288261256706,0.06310724672103
21.270796,6.82349225405386,0.0629049829412128
21.27318,6.814836016477873,0.0626956848706368
21.27556,6.813117246700914,0.0624526259276927
21.277964,6.817637096588685,0.0622101365140906
21.280352,6.822808572782512,0.0619789178680155
21.282732,6.820530724498114,0.0617626128655191
21.285136,6.810384242854907,0.0615789308276812
21.287524,6.797676581957844,0.0614298535760434
21.289904,6.7845496121802,0.0612991455445112
21.292308,6.76942054165614,0.0611783819240994
21.294692,6.756433341505356,0.061040885226313
21.297072,6.747590112474265,0.0608769223411363
21.299476,6.742192006428567,0.0607183659160135
21.30186,6.743871137808759,0.0605229318640554
21.30424,6.7416858373229775,0.0603411672292754
21.306636,6.737638205717639,0.0601631694336085
21.309024,6.743181768963804,0.0599566181831053
21.311404,6.7541725559417785,0.0597472716263995
21.313808,6.772380349972503,0.0594958408246479
21.316196,6.789284891391111,0.0592230700983724
21.318576,6.799251965010691,0.0589790073370887
21.320972,6.812664161615663,0.0587427264111653
21.32336,6.824725883780276,0.0585288620374794
21.32574,6.827336180720247,0.0583358931207196
21.328136,6.827292750607742,0.0581407589405437
21.330524,6.834047018667406,0.0579234717205942
21.332904,6.852534351951851,0.0576657627989979
21.3353,6.87530542598285,0.0573792468130639
21.337684,6.897564643334651,0.0570750191950157
21.34008,6.92210550068659,0.0567506278550393
21.342476,6.944364718038391,0.0564479683091597
21.344864,6.966344396136472,0.0561608299970212
21.347244,6.982876850502742,0.055874281605882
21.349644,6.994613707443261,0.0556017203971558
21.352028,7.00635056438378,0.0553290216434095
21.354408,7.017668112443719,0.0550749578537468
21.3568,7.026052394197462,0.0548322388807131
21.359188,7.029129221846256,0.0545834606832161
21.361588,7.028621156882797,0.0543332878682941
21.363984,7.031977523785312,0.0540750507781653
21.366368,7.040409027367298,0.0537935934834628
21.368752,7.043533076844335,0.0535051866401954
21.371156,7.039347571470006,0.0532152323553425
21.37354,7.040097433148288,0.0529088079846698
21.37592,7.046574057812101,0.0525936885383312
