Time,Force,Position
23.084496,10.243960978939429,0.1586987634530589
23.086884,10.253459625992312,0.1585688776608493
23.089264,10.269431105993272,0.1583201673422739
23.09166,10.286288425583637,0.1580115061439657
23.094048,10.298304821777876,0.1577058332187285
23.096432,10.30943727424058,0.157383193837266
23.098828,10.31163015815784,0.1571693496525022
23.101216,10.324577719911858,0.1568599666787367
23.103596,10.34492738431586,0.1565076282465278
23.105992,10.372399612116126,0.1561189665250521
23.10838,10.410719065551769,0.1556559883105021
23.110776,10.457232017570307,0.1551337674624154
23.113176,10.514127560373272,0.1544990658420911
23.115564,10.56836937612376,0.1538771981256178
23.117944,10.614510241089963,0.1533328050837804
23.120344,10.658044600831936,0.1527939959902342
23.122732,10.699204772775158,0.1522704484263524
23.125116,10.73142537617293,0.1518564859151686
23.127512,10.76401806662304,0.1514561023440643
23.1299,10.790417463378796,0.1511621093455853
23.132284,10.818492199799008,0.150886271504243
23.13468,10.844377844017696,0.1506657866780103
23.137068,10.867422769728808,0.1505010801185881
23.139452,10.888465594693502,0.1503604097697927
23.141856,10.90820516704608,0.1502159543612082
23.144244,10.92468660786837,0.1500649850664707
23.146624,10.94498715458626,0.1498227549524577
23.149024,10.951739526788057,0.1497011767935134
23.151412,10.949459782645787,0.1496586965906603
23.153792,10.94652841219746,0.1496149537100861
23.156188,10.943457272122274,0.149576302829948
23.15858,10.946252664659475,0.1494766506324867
23.16096,10.947185726077128,0.1493943510558037
23.163356,10.957757204174518,0.1491915839597224
23.165748,10.973683358205106,0.1489216643457784
23.168128,10.980158087011052,0.1487406543835111
23.170528,10.9868198072721,0.1485289333880591
23.172916,10.993808288615108,0.1482803574394141
23.175296,10.997770955853303,0.1480407686660284
23.177696,11.006296903091778,0.1477387306579232
23.180084,11.008956317717864,0.1474972515139533
23.182464,11.016271560142837,0.1472140545039806
23.184864,11.023027724060372,0.1469499130181974
23.187252,11.02550014723135,0.1467377424958651
23.189636,11.0318370022683,0.146486492746282
23.192032,11.03924479249189,0.1462217172328831
23.19442,11.046000956409426,0.1459561577136401
23.1968,11.052524802901482,0.1456719467781467
23.1992,11.05881633196806,0.1453708633179168
23.201588,11.0635250691688,0.1450779406289718
23.203972,11.066651014503709,0.1447936210917151
23.206368,11.064562053532285,0.144571249438422
23.208756,11.063636575546113,0.1443576842930448
23.211136,11.06187247979878,0.1441744321415038
23.213536,11.055312786625697,0.1440357696994836
23.215924,11.051965899012528,0.1438574193482466
23.218304,11.045173888413968,0.1437012820999507
23.220704,11.039732352255765,0.1435222268679455
23.223092,11.035641290537924,0.1433202906103629
23.225472,11.026242774715127,0.1431567608752961
23.227872,11.020196834079112,0.1429495689018916
23.23026,11.014290663069955,0.1427380243571136
23.23264,11.0083844920608,0.142525937862651
23.23504,11.008344853664031,0.1422552121663347
23.237428,11.006814971200049,0.1420121403134255
23.239808,11.003934614295703,0.141791406670474
23.242208,11.00105425739136,0.1415708248779479
23.244596,11.005251137912907,0.1412754025586739
23.246976,11.008377083247812,0.1409922290599196
23.249376,11.01150302858272,0.1407097784273009
23.251764,11.010624772424794,0.1404686331004447
23.254144,11.010537912199784,0.1402243645386966
23.256544,11.003513584175744,0.140049344865185
23.258932,10.993136680964929,0.139917423887202
23.261316,10.988067231859064,0.1397480766584902
23.263712,10.984440804992175,0.1395773328547767
23.266104,10.980115529990986,0.139430536676294
23.268484,10.976441881295855,0.1392858258611432
23.270884,10.976353125212976,0.139115416364261
23.273272,10.97863855692885,0.1389363513929876
23.275656,10.981435845323926,0.13876479505144
23.278052,10.98381382483842,0.1386085211215417
23.28044,10.99420020733858,0.1383734174124707
23.282824,11.004958676891077,0.1381505882853346
23.285224,11.018370873496048,0.1379105818646819
23.287612,11.033505631593716,0.1376602600811195
23.289992,11.048221080810809,0.1374249938635545
23.292392,11.059583954841118,0.1372325454851715
23.29478,11.074391951856825,0.1370203151199702
23.29716,11.087197848126111,0.1368278167038273
23.29956,11.102657471447875,0.1366178447346305
23.301948,11.121981526635611,0.1363750959957836
23.304328,11.150896776674852,0.1360497277621327
23.306724,11.182325984139704,0.1357123876667355
23.309112,11.211473551604422,0.1354052676780365
23.311496,11.244206011681394,0.1350753124377763
23.313892,11.282665234743892,0.1346978485607952
23.316284,11.318842817806258,0.1343495671548837
23.318664,11.352366673816146,0.134021511705416
23.32106,11.38388842907962,0.1337122084899912
23.323448,11.415689723596811,0.1333957183227243
23.325832,11.44469752143467,0.1331008470052539
23.328228,11.46420667221964,0.1329076862487368
23.33062,11.48292442707169,0.1327172569723306
23.333,11.499919620431047,0.1325369355428161
23.335396,11.51756644009646,0.1323593435986453
23.337784,11.536284194948514,0.1321709724292003
23.340168,11.553931014613932,0.1319941215442714
23.342564,11.565990840920676,0.1318582240435263
23.344956,11.578981832787198,0.1317153636227725
23.347336,11.590110493534164,0.1315863225564444
23.349736,11.598585427228656,0.1314742493133915
23.352124,11.603755007564615,0.131376590237994
23.354508,11.60641063047496,0.1312901560115547
23.356904,11.608414627079243,0.1312013152663338
23.359292,11.608696062190834,0.1311216978995396
23.361676,11.607115166182863,0.1310556294137656
23.364076,11.607815910175038,0.1309628329704593
23.36646,11.605443618234151,0.1308988303604185
23.368844,11.603630404800708,0.1308167024557897
23.37124,11.599954860247708,0.1307478480845346
23.373628,11.597350250881345,0.1306678698248695
23.376012,11.599960547821311,0.1305368022465332
23.378408,11.606435276627256,0.1303756127975656
23.380796,11.61384117099298,0.1302082446280866
23.383176,11.619804043119723,0.1300406072693808
23.385576,11.623904584126914,0.1298861879597953
23.387964,11.631078161067158,0.1297037691490561
23.390348,11.64653968024679,0.1294434740982368
23.392744,11.660278637933724,0.1291912820882289
23.395132,11.673365969314604,0.1289359414136911
23.397512,11.684590969575927,0.1286938091054818
23.399908,11.693254790583392,0.1284870693838229
23.402296,11.700847676404216,0.1282906784157547
23.40468,11.712304994091015,0.1280648348207287
23.407076,11.72017741916556,0.1278600400515056
23.409464,11.725535886814493,0.1276656243994868
23.411844,11.729032023343867,0.1274842065939432
23.414244,11.730665828753684,0.1273147116274631
23.416632,11.735093130842836,0.1271263702016379
23.419012,11.740311828864906,0.1269364228038841
23.421408,11.746741231700478,0.1267315857312259
23.423796,11.754800648230123,0.1264996986347816
23.42618,11.757273071401109,0.1263057982742491
23.428576,11.757883163452528,0.1261244248955379
23.430964,11.764499557743202,0.1258939701368761
23.433344,11.771907347966794,0.1256618260828086
23.435744,11.775590475951269,0.1254543601447399
23.438132,11.774850093562335,0.1252937113819769
23.440516,11.778905308599152,0.1250989815653102
23.442912,11.78775612106172,0.1248704789919096
23.4453,11.7986090342707,0.1246260615735924
23.44768,11.811091961173767,0.1243540215570642
23.45008,11.830931664756438,0.1240161676323887
23.452464,11.849048806846412,0.1236878945308163
23.454848,11.872101315989005,0.1233225030245664
23.457244,11.895945221064505,0.1229552824559762
23.459632,11.919928895766876,0.1225838665194178
23.462012,11.950198411962216,0.1221563324509718
23.464408,11.979676532224632,0.1217328029968078
23.466796,12.007711630248078,0.1213086726520873
23.46918,12.03681766345816,0.1208770506085477
23.47158,12.060569020735045,0.120496291712992
23.473968,12.088324579504768,0.1200854277876819
23.476352,12.117430612714852,0.1196568547464095
23.478748,12.138528242939264,0.1192915466214496
23.481136,12.156692606857485,0.1189463001580467
23.48352,12.174717201148844,0.1186044019503684
23.485916,12.195302974694062,0.1182318004289526
23.488308,12.212303855627027,0.1178784338598613
23.490688,12.226790779134376,0.1175347701707405
23.493088,12.240346537081948,0.1171973487994521
23.495476,12.251760424656243,0.1168788945007684
23.49786,12.25437451331195,0.1166218296474875
23.500256,12.252984400474826,0.116394170532132
23.502644,12.249312647637565,0.1161899898970152
23.505028,12.247363456293,0.1159795012530967
23.507424,12.24606589125449,0.1157720110678623
23.509812,12.246351118081815,0.1155635394452312
23.512196,12.244634244162729,0.1153696021756098
23.514592,12.24263783098992,0.1151836944407853
23.516984,12.235845820391356,0.1150273739542127
23.519364,12.229193579419656,0.1148665606550755
23.521764,12.221470403261318,0.1147151741518079
23.524156,12.214398853409037,0.1145669386818271
23.526536,12.209329404303173,0.1144041414263621
23.528936,12.20933509187678,0.1142037708548033
23.531324,12.215207312062777,0.1139656609995776
23.533704,12.21758718743514,0.1137633529145403
23.536104,12.221549854673338,0.1135594687895187
23.538492,12.225093213030956,0.1133680195853594
23.540872,12.228496801761713,0.1131807932073735
23.543268,12.23669598791822,0.1129654402927206
23.54566,12.248480066686986,0.1127340519028108
23.54804,12.262126476575304,0.1124922174158874
23.55044,12.27698359127712,0.1122380562884111
23.552824,12.290257914113102,0.1119859699111697
23.555208,12.30460317213572,0.1117256088461603
23.557604,12.311871192732452,0.1115156291333096
23.559992,12.316997342955906,0.1113228334358711
23.562376,12.32212349317936,0.1111298605162663
23.564772,12.332696867134624,0.1109122995991963
23.56716,12.34834537776936,0.1106593711216348
23.569544,12.359338060605204,0.1104300414528613
23.57194,12.366466311575076,0.110223714388112
23.574332,12.375456893664504,0.1100081739347747
23.576712,12.382724914261232,0.1097988903505976
23.579112,12.383335006312656,0.1096268118491886
23.581496,12.38357301131174,0.1094430522633541
23.58388,12.38329915963163,0.1092521882062418
23.58628,12.38130274645882,0.1090663897833849
23.588668,12.37972564216659,0.1088686752483882
23.591048,12.373632479702332,0.108690094672713
23.593448,12.36902956130529,0.1084911509855563
23.595836,12.367127591788966,0.1082594193696572
23.59822,12.362571895220167,0.1080371642341916
23.600616,12.359226903464869,0.1078024806316702
23.603008,12.354438889470597,0.107564901470559
23.605388,12.354353925103457,0.1072817348641461
23.607788,12.359903175923227,0.1069490315718665
23.610176,12.36815337562372,0.1065844970498266
23.612556,12.372586365286482,0.1062188903162204
23.614956,12.373714001590711,0.1058598390783446
23.617344,12.376983508268214,0.1054831180794606
23.619728,12.387749561252187,0.1050503007364946
23.622124,12.399074692743604,0.1046034188078976
23.624512,12.411610529048518,0.104146021864557
23.626892,12.428709645353708,0.1036492104633923
23.629288,12.448742027965093,0.1031370513210584
23.631676,12.46719161871064,0.1026257841966767
23.634056,12.490064719829602,0.102080375632462
23.636452,12.513217360202283,0.1015288285096359
23.63884,12.53972257576174,0.1009511487567981
23.64122,12.563434294641867,0.1003864448141679
23.643616,12.585795539081628,0.0998393327138086
23.646004,12.60894817945431,0.0992919384305413
23.648388,12.630890115013496,0.0987568536972739
23.650784,12.653902985759313,0.0982153412311157
23.653172,12.67398259019894,0.0976901038202507
23.655552,12.688987057959094,0.0971959137402361
23.657948,12.699847554599556,0.096728292009526
23.660336,12.711219907919212,0.0962683694209931
23.66272,12.720031081985011,0.0958341439873435
23.665116,12.731775522357008,0.0953857918372841
23.667504,12.7332299197432,0.0949999305673508
23.669888,12.731751050823194,0.0946287855003836
23.672284,12.724917505969996,0.0942936780253996
23.674672,12.713380911489663,0.0939987275530049
23.677052,12.699981985889774,0.0937106707870495
23.679452,12.687886312902002,0.0934303702028651
23.68184,12.672298295100587,0.0931791460191738
23.68422,12.654288867672186,0.0929492047644248
23.68662,12.632787095430142,0.0927475976574156
23.689008,12.612728345427078,0.0925500125753557
23.691388,12.590527725050734,0.092366051961016
23.693788,12.568187335047533,0.09218536125843
23.696176,12.54598671467119,0.0920003582539397
23.698556,12.522295850227628,0.0918330309384163
23.700956,12.50205010876946,0.0916597516409267
23.703344,12.485249490296685,0.0914806174624177
23.705724,12.473896095555718,0.0912858491505551
23.70812,12.463194327120808,0.0910951454004907
23.710508,12.4530044153651,0.0909118567012915
23.712892,12.442395194728809,0.0907398532963019
23.715288,12.440446003384244,0.0905318167546091
23.717676,12.436587259091876,0.0903523969734154
23.720056,12.436453177038626,0.0901599175712881
23.722452,12.442325397224623,0.0899376021708098
23.72484,12.445356898903045,0.0897472601556076
23.727224,12.45039050132788,0.0895474941859056
23.72962,12.45435316856608,0.0893542686100833
23.732008,12.460178166923836,0.0891547570641115
23.734388,12.46679456121451,0.0889556114339579
23.736784,12.473410955505182,0.088756718987696
23.739172,12.479608040915272,0.0885685429390091
23.741556,12.486736291885142,0.0883773858866232
23.743956,12.494376399534213,0.088194559525816
23.746344,12.501736967929556,0.0880190932760114
23.748724,12.503091234085652,0.0878730022750965
23.75112,12.507378766547946,0.0877149158439479
23.753512,12.507382558263684,0.0875839610761393
23.755892,12.505104709979287,0.0874699596550468
23.758288,12.50818153762808,0.0873227474726431
23.76068,12.51340023565015,0.0871629977885948
23.76306,12.514614732179387,0.0870225984440994
23.765456,12.5191818038954,0.0868584838448223
23.767844,12.526030515611552,0.0866780956664094
23.770228,12.529666421767788,0.0865179034130035
23.772624,12.537725838297437,0.0863279001498492
23.775012,12.543643384453809,0.0861513923346868
23.777396,12.550492096169958,0.0859718039705515
23.779792,12.557201038259247,0.0857960759434206
23.78218,12.56791418184137,0.0856025440016582
23.78456,12.578627325423495,0.0854093260342338
23.786956,12.594415605685093,0.0851918744644343
23.789344,12.611274821133328,0.0849687661745334
23.791728,12.633209173261037,0.084723001756453
23.794124,12.65542306464246,0.0844699117305393
23.796512,12.6825723230765,0.084195933179702
23.798896,12.703855048898149,0.083946156538918
23.801292,12.727559184346797,0.0836770519651655
23.80368,12.75368472942244,0.0833881562871457
23.80606,12.777668404124803,0.0831135126190394
23.808456,12.79550600696106,0.0828691867162653
23.810844,12.816276876103512,0.0826142428970368
23.813228,12.83918961561924,0.0823482690250766
23.815624,12.857958384015276,0.0821036138150343
23.818012,12.875935756478391,0.0818580604011195
23.820392,12.894984064128147,0.0816078375310775
23.822792,12.913380745471846,0.0813532207206935
23.825176,12.936852563495016,0.0810771887860201
23.827576,12.959672755212123,0.0807968124634523
23.829976,12.98063061580968,0.0805228606706375
23.83236,13.00359057715365,0.0802418199996073
23.834744,13.024967746631784,0.0799601012342041
23.83714,13.04634491610992,0.0796795561471717
23.839532,13.060924387415886,0.0794229619822522
23.841912,13.079508060214684,0.0791515934900958
23.844312,13.098231502640346,0.0788777771934915
23.8467,13.119888211372205,0.0785941765106185
23.849084,13.14061375454428,0.0783136516074557
23.85148,13.16133929771636,0.0780337954908367
23.853868,13.17913157458224,0.0777638916205565
23.856252,13.199996887381175,0.0774804370511324
23.858648,13.213412875701886,0.0772134236558974
23.861036,13.2238955977164,0.0769568529800271
23.86342,13.23959322603725,0.0766769797321501
23.865816,13.257153185477652,0.0763934439709599
23.868204,13.272571274544784,0.0761217913956013
23.870588,13.28663888917155,0.0758620522965888
23.872984,13.296562532678628,0.0756216516224069
23.875376,13.30727757211862,0.0753828427246646
23.877756,13.3159905108122,0.0751516712899294
23.880156,13.32298088801308,0.0749217330831589
23.882544,13.32917986928104,0.0746909544123966
23.884928,13.333656289056306,0.0744609078051339
23.887324,13.339063874391348,0.0742287174773998
23.889712,13.33953609267378,0.0740128465532273
23.892096,13.337075044650016,0.0738057784235297
23.894496,13.329166772894444,0.0736057426891439
23.896884,13.321398270765728,0.0734023754624845
23.899268,13.314421164569932,0.0732007244134796
23.901664,13.311588029493832,0.0729821274722736
23.904056,13.309825829604367,0.07275874165889
23.90644,13.317654824566407,0.0725114311785441
23.908848,13.329348251394425,0.0722548323480829
23.911236,13.335826771916103,0.0720204079258602
23.913616,13.337369925385174,0.071800548667841
23.916012,13.336910978107827,0.0715871255318216
23.9184,13.33780250527084,0.0713617794358861
23.92078,13.339113341314434,0.0711266911112929
23.92318,13.342286508477583,0.070888879948333
23.925568,13.345459675640733,0.0706509259717222
23.927948,13.348073764296442,0.0704263493237436
23.930344,13.348266443325157,0.070218010513765
23.932732,13.351904245339258,0.0700105254496546
23.935112,13.355402277726498,0.0698061820128784
23.937508,13.3595519364198,0.0696065651829747
23.9399,13.365563926232657,0.0694037980600786
23.94228,13.381027341270158,0.069183030826599
23.94468,13.393138181120884,0.0689797604651968
23.947068,13.407390891344887,0.0687680328985934
23.949448,13.418850104889554,0.0685613613752843
23.951844,13.427515821754888,0.068359200909981
23.954232,13.432968733060305,0.0681719996396143
23.956616,13.433486277313111,0.0679985387860451
23.959012,13.435074756752552,0.0678202049065134
23.9614,13.443740473617886,0.0676194307938517
23.96378,13.455618996043134,0.0674050627479622
23.966176,13.471501719961214,0.0671798028236567
23.968568,13.48645327831952,0.0669562796543225
23.970948,13.499961814438846,0.0667265295701204
23.973344,13.512818724252114,0.066491546504055
23.975732,13.525303547013046,0.0662451220879753
23.978116,13.54193234089367,0.0659845508463072
23.980512,13.551903206228989,0.0657358503492685
23.982904,13.565226646751082,0.0654713424233442
23.985284,13.58418430246009,0.06517977957668
23.987684,13.601419396676398,0.0648874438100241
23.990072,13.61185679272054,0.0646106166734232
23.992452,13.627648864697877,0.0643124989494618
23.994848,13.63571207294326,0.0640296799117909
23.997236,13.644706446748422,0.0637460543075559
23.99962,13.655702921300003,0.0634571783822074
24.002016,13.667398243985886,0.063153443013936
24.004404,13.679093566671764,0.0628491906558162
24.006788,13.694001694917564,0.0625331800268444
24.009184,13.703462599431557,0.0622207044008818
24.011572,13.711992338385764,0.0619099508071262
24.013952,13.714515775100724,0.0616147121698105
24.016352,13.71890154293524,0.0613179885092217
24.01874,13.7243582459564,0.0610179872544017
24.02112,13.733539611216669,0.0607149299064353
24.02352,13.741789810917156,0.0604126080000936
24.025908,13.744173478005258,0.0601214920954349
24.028292,13.748978554720356,0.0598153572786062
24.030692,13.74870849475598,0.0595227509936095
24.03308,13.743223528485274,0.0592473468647583
24.035464,13.744024403707538,0.0589526290414894
24.03786,13.7472466885568,0.0586440523758405
24.040244,13.747535707099866,0.0583412876348331
24.042628,13.7546224238151,0.058027193248194
24.045024,13.762500536463254,0.0577161392237064
24.047416,13.772520519484685,0.057398705207384
24.049796,13.77946746657306,0.0570896542918201
24.052196,13.789766988848212,0.0567668858413489
24.054584,13.797273014444029,0.0564467155446529
24.056964,13.808224163025235,0.0561304532636428
24.059364,13.817173210860028,0.0558183626499138
24.061752,13.82733296350832,0.055499015866467
24.064136,13.835630385037051,0.0551812165051802
24.066536,13.839644065819233,0.0548775244501421
24.068924,13.840724480295217,0.0545787935431889
24.071308,13.843667225890757,0.0542791052019485
24.073704,13.853687208912186,0.053964569482983
24.076096,13.868083480478788,0.0536547896401436
24.078476,13.886903262418803,0.0533287163881381
24.080876,13.902929547679484,0.0530032152992861
24.083264,13.911459286633695,0.0527020984681079
24.085648,13.91556551521449,0.0524169235456744
24.088044,13.919531974168432,0.0521347053637063
