Time,Force,Position
24.128236,4.266320488014106,0.2231899229995158
24.130632,4.274421438798391,0.2228997521189329
24.13302,4.280148201783922,0.2226685638726356
24.135416,4.285270560291639,0.2223666436739732
24.137812,4.292582011000874,0.2218841314490366
24.1402,4.306366294658185,0.2210082180438616
24.14258,4.316053829024044,0.2202693943500699
24.144984,4.322808097083708,0.2196663163663738
24.147372,4.327932351449291,0.2191832622944302
24.149752,4.329796578426717,0.2189243998049848
24.152148,4.33720057693457,0.2185172534210084
24.154536,4.352006678092406,0.2178770341589979
24.15692,4.372260002982052,0.2170501374298073
24.159316,4.394143341565776,0.2161014340652629
24.161704,4.408717125298136,0.2154278113327738
24.164084,4.417471598246348,0.2149359917262415
24.166484,4.425481897089885,0.2143958803912569
24.168872,4.43032661220175,0.2139482390832696
24.171252,4.4373131976868905,0.2134066714767692
24.173652,4.440016042425475,0.2130688383616308
24.17604,4.445232844589678,0.212662990330858
24.17842,4.450542194552496,0.212312506327937
24.180816,4.462602020859241,0.211767348549262
24.183204,4.483414424256327,0.2109470035947838
24.185584,4.5040870580265535,0.2101387624298945
24.187984,4.519824324744168,0.2095299317001103
24.190372,4.534398108476527,0.2089118807291897
24.192752,4.553535172209161,0.208093342013874
24.195148,4.572951775195516,0.207256077275802
24.197536,4.597303745234481,0.206244671033199
24.19992,4.621236406392866,0.2052941897893739
24.202316,4.643678823484032,0.2044296580983585
24.204704,4.662069817254121,0.2037923751728697
24.207088,4.683486625129022,0.2031054925743945
24.209484,4.712212987855288,0.2021893774939
24.211872,4.746805883193946,0.201073027341551
24.214252,4.781398778532605,0.1999530551483112
24.216656,4.815340047565205,0.1988412801031641
24.219044,4.8442534017465775,0.197862531619515
24.221428,4.874936539248888,0.1967852568476106
24.223824,4.902686410445004,0.1958263396137471
24.226212,4.928573950521563,0.1949299933773662
24.228592,4.952831476904043,0.1941399351643875
24.230992,4.973084801793689,0.1934986908442894
24.23338,4.99613162336267,0.1927801067631995
24.23576,5.022251480864705,0.1919547397565505
24.23816,5.05051320874002,0.191048711341066
24.240548,5.071465381763965,0.1903589689976618
24.242928,5.091114302175797,0.1896802616721319
24.245324,5.106526703669319,0.1891088819464898
24.247712,5.118354212550586,0.18863216141036
24.250096,5.135676166991906,0.1879632394460664
24.252492,5.151694868821108,0.1872971229719892
24.25488,5.167853340277172,0.1866289037198677
24.257264,5.182149480613679,0.1860203993180182
24.25966,5.190439318710936,0.1855968480165988
24.262048,5.200591487927748,0.18512546315643
24.264432,5.211302735652003,0.184610159644814
24.266836,5.223364457816616,0.1840332818937678
24.269224,5.235705719234952,0.1834424257800881
24.271608,5.24646418878745,0.1828767190523969
24.274004,5.259644067966945,0.1822218177330761
24.276392,5.2719400034149055,0.181538988139675
24.278772,5.288659449236279,0.1807168750787961
24.281172,5.302445628751458,0.179978738435151
24.28356,5.316092038639778,0.179257769888432
24.28594,5.331600779647652,0.1784994579946732
24.288336,5.350042786961723,0.1776605764096754
24.371964,4.764011691395261,0.1769146284598099
24.37436,4.75637916717767,0.1768423543965122
24.376748,4.752051996318611,0.1767114342941153
24.379132,4.749167847698528,0.1765689994700505
24.381528,4.752801857996894,0.1762636988119934
24.383916,4.759741221653792,0.1759008836954122
24.386296,4.769194542736303,0.1754912989465814
24.3887,4.782092986804207,0.1750138465229765
24.391088,4.797365618670865,0.1745085183336406
24.393472,4.8203671142694695,0.1738104423112766
24.395864,4.850817934346302,0.1729342503489137
24.398252,4.894584611513752,0.1717317446611514
24.400632,4.945940382786288,0.1703637849481297
24.403032,4.999158485178382,0.1689610654110011
24.405416,5.058103350556007,0.1674261574872617
24.4078,5.117839611866549,0.1658982190323008
24.410196,5.176784477244174,0.1644115470471914
24.412584,5.23372724187538,0.1629930513346583
24.414968,5.293882812066503,0.1615115182682316
24.417364,5.35953282781768,0.1598983300646924
24.419752,5.422808655770101,0.1583570956598097
24.422132,5.482080282229688,0.1569363848763159
24.424528,5.5405605127563575,0.1555507250537921
24.426916,5.5993202825367465,0.1541473503660945
24.429296,5.6563574908244405,0.1527920735782837
24.431696,5.713022612059795,0.1514295832815147
24.43408,5.769036106989095,0.1500717666321827
24.436464,5.823327040425697,0.1487516163729606
24.438864,5.872170750130491,0.1475290380381974
24.441252,5.912074891289838,0.1465170099652507
24.443632,5.947323204650296,0.1456004358228053
24.446028,5.973911488719024,0.1448719221251343
24.448416,5.993702074615584,0.1442865737353768
24.4508,6.010978703086529,0.1437325459181497
24.453204,6.024670438945223,0.1432383577281395
24.455592,6.036919152564939,0.1427506036080401
24.457972,6.043580872825987,0.1423547956529999
24.460372,6.05238446346031,0.141912313367556
24.46276,6.057044082974941,0.1415621820812151
24.465136,6.056209256929519,0.141343705931987
24.46754,6.052953021257098,0.1411908836980523
24.469928,6.0511870296518975,0.1409880575836646
24.472308,6.04755870692714,0.1408143290656235
24.474712,6.045792715321939,0.1406127451471526
24.4771,6.044026723716738,0.1404117771422929
24.47948,6.040258631365119,0.1402473683788097
24.481876,6.0386324093867785,0.1400384539781572
24.48426,6.041150158528131,0.1397514193106257
24.486644,6.049534440281875,0.1393675549433405
24.48904,6.062202462782173,0.1388950319764103
24.491428,6.079154226029024,0.1383390303522266
24.493808,6.097316694089374,0.1377529230030257
24.496212,6.114687766216805,0.1371688276373225
24.498596,6.133921169463792,0.1365597873792939
24.500976,6.152363176777862,0.1359560352741026
24.503372,6.167871917785735,0.1353985869709632
24.505756,6.188176256219363,0.1347643947391928
24.508152,6.204616162787017,0.134193691275859
24.510548,6.219473277488834,0.1336310771238752
24.512932,6.230605729951539,0.1331170592178536
24.515312,6.242157491294824,0.1325778061013135
24.51772,6.251567382264832,0.1320839490136743
24.520104,6.257392380622585,0.1316317555972795
24.522484,6.26270552230114,0.131170417777607
24.52488,6.26615633286014,0.1307356697702357
24.527268,6.270957617859497,0.1302625603577113
24.529648,6.27282563655266,0.1298381733650494
24.532052,6.26947874893949,0.1295129451831667
24.534436,6.261476033527429,0.1292500821950779
24.536816,6.25119167811523,0.1290368086325623
24.539224,6.237834286769979,0.1288760138332291
24.541612,6.224197356171004,0.1287313270995625
24.543988,6.214285087811144,0.1285383309709867
24.546396,6.20157932277195,0.1283805906860103
24.54878,6.1878026225461165,0.1282424860454536
24.55116,6.175608714186119,0.1280970167600768
24.553564,6.166348072132315,0.1279069655431942
24.555952,6.160020696384707,0.1276729381363973
24.558332,6.157278213249352,0.1274004323468968
24.560728,6.160542032353248,0.1270323232023484
24.563116,6.160732815524089,0.1267147168936924
24.565496,6.159852663508289,0.1264160354204943
24.5679,6.164419735224302,0.1260544485163715
24.570284,6.164703066193762,0.1257730312173119
24.572664,6.16512616679008,0.1254826997043049
24.575068,6.164850419252098,0.1252345893063713
24.577456,6.164434902087256,0.1249943865000909
24.579836,6.1632279889894965,0.1247565714486723
24.582236,6.1638834070112924,0.1244948900019076
24.58462,6.166820465033226,0.1241850595596595
24.587,6.167475883055023,0.1239231071642351
24.589396,6.16962154514404,0.1236168902587475
24.591784,6.16911348018058,0.1233375689576065
24.594164,6.171678451150175,0.1230073954427422
24.59656,6.179318558799244,0.1225974612648607
24.598948,6.188448910515532,0.1221431015580003
24.601328,6.19050202480593,0.1218013836040372
24.603732,6.19176374316341,0.1214636752887157
24.60612,6.188369633721998,0.1211804799934105
24.6085,6.182321797228112,0.1209219705382207
24.610904,6.179626535921003,0.1205972123039878
24.613292,6.178421518681112,0.1202275893778821
24.615672,6.174562774388745,0.1198827537536695
24.618068,6.173916835656295,0.1194798140773205
24.620456,6.175133228043401,0.1190560784481544
24.62284,6.17569799412445,0.1186261252680288
24.625244,6.178264860951916,0.1181673440214812
24.627628,6.180691958152523,0.1177142690772928
24.630008,6.182048120166489,0.1172800046155291
24.632412,6.181402181434038,0.1168757954951933
24.6348,6.183317421955447,0.1164086659920081
24.63718,6.179226360237603,0.1160273973472298
24.639576,6.17527506814662,0.1156370687844581
24.641964,6.171184006428778,0.1152562473610606
24.644344,6.161738268777742,0.1149679627075636
24.64674,6.151221595940068,0.1146972687070199
24.649124,6.14312633272939,0.1143721042581833
24.651508,6.131538724705077,0.1141176723594187
24.653904,6.121953217427183,0.1138331036190005
24.656292,6.112507479776145,0.113539121844427
24.658672,6.102642433244529,0.1132694625711343
24.661068,6.094220408951889,0.1130039494958293
24.663456,6.087660715778806,0.1127182751400531
24.665836,6.079750548165363,0.1124666245611892
24.668232,6.066905013499308,0.1122800147027786
24.67062,6.053128313273475,0.1121025912193013
24.673012,6.036278577114587,0.111970797829475
24.675408,6.022641646515614,0.1117837004311723
24.677796,6.010075651103279,0.111577748425747
24.680176,5.996298950877447,0.1113973705784585
24.68258,5.981963172144172,0.111249135274874
24.684968,5.971212286023152,0.1110691518770266
24.687352,5.961392565461909,0.110878390669155
24.689748,5.948639578594472,0.1107246492522443
24.692132,5.936305900607616,0.1105452626126462
24.694516,5.924903388180537,0.110355228418069
24.696912,5.911079466126461,0.1102175860597557
24.6993,5.899025327393325,0.1100186221204146
24.701684,5.889764685339522,0.1097895871562205
24.70408,5.876732159218364,0.1096484737381625
24.706468,5.860626597164151,0.1095540716057929
24.708848,5.841587768803742,0.1094976254978834
24.711252,5.820407070070057,0.109477007542078
24.71364,5.802159637642567,0.109417135774019
24.71602,5.788847572267688,0.109290531630751
24.71842,5.7792601691319225,0.109124096958763
24.720808,5.77474790267563,0.1088834580366635
24.723188,5.768885161778978,0.1086779573097847
24.725584,5.764744982375022,0.1084622553645804
24.727972,5.761535968530844,0.1082362134207896
24.730356,5.75725601950003,0.1080278107284043
24.732752,5.757771667894966,0.107764917141371
24.73514,5.761173360767855,0.1075167504238259
24.73752,5.768159946252996,0.1072404362437129
24.73992,5.778451885096669,0.1069528558456998
24.742308,5.793120112485514,0.1066407366244946
24.744688,5.815656973233167,0.1062353332927829
24.747084,5.843873375138106,0.105821714290875
24.749472,5.871670468162463,0.1054378019506508
24.751852,5.910409230478685,0.1049231341344292
24.754256,5.957808022086632,0.1043211271138634
24.75664,6.00972287186661,0.103686844452509
24.759024,6.062568887206366,0.1030439840626116
24.761428,6.116485837732762,0.1023974385857055
24.763816,6.174779076804327,0.1017408473875816
24.766196,6.236145351808948,0.1010622155507257
24.768596,6.299094418679406,0.1004025585358185
24.770984,6.364185355923141,0.0997195788495425
24.773364,6.431278393913292,0.0990292031347221
24.77576,6.503027259702335,0.0983092068693327
24.778148,6.5778491614244325,0.0975561629748546
24.780532,6.6485270920268364,0.0968626774840497
24.782928,6.714968503710931,0.0961871850211831
24.785316,6.781409915395024,0.0955200442187356
24.787696,6.8490620318926165,0.0948414055641533
24.7901,6.911918550964457,0.0942127574264242
24.792488,6.97370413484966,0.0936147493040179
24.794868,7.032184365376329,0.0930306013005106
24.797268,7.091875300716498,0.0924344002605146
24.799656,7.148632969750472,0.0918809662540765
24.802036,7.198732710239135,0.0913835496709205
24.804432,7.2504624644218785,0.0908576050454983
24.80682,7.305125484910818,0.0903130423474165
24.8092,7.35736709577276,0.0898114414034828
24.811604,7.4030905477162525,0.0893546081083037
24.813992,7.446672129286469,0.0889312993784391
24.816376,7.481453911938099,0.0885757380572175
24.818772,7.514885220149371,0.0882474201560203
24.82116,7.545243492427587,0.0879513904719939
24.82354,7.575229677653466,0.0876414278980101
24.825936,7.6082888988124,0.0873106333627789
24.828324,7.644049068852053,0.0869364015335225
24.830708,7.684884375571176,0.0865243431191942
24.833112,7.726138991170882,0.0860992211528264
24.8355,7.765671045277891,0.085682188409517
24.83788,7.808555674571674,0.0852317191909672
24.840276,7.847715641626346,0.0848035662121751
24.842664,7.888877709427434,0.0843656581939195
24.845044,7.925383949429631,0.083951376940239
24.847444,7.958305296819573,0.0835524708298319
24.849828,7.994439449769434,0.0831260405320916
24.852212,8.0252189267861,0.0827523234349148
24.854604,8.054415611936928,0.0823792414599567
24.856992,8.087384181155114,0.0819591656066828
24.859372,8.122494620746577,0.0815212631670011
24.861776,8.15294923253915,0.0811045151468164
24.864164,8.189689685824693,0.0806361793867963
24.866544,8.227920383177455,0.0801450949417351
24.868944,8.263497353477742,0.0796600615895233
24.871328,8.2938594174717,0.0792186585847204
24.873712,8.321707524040038,0.0787842307662749
24.876108,8.34727399060824,0.0783763226476274
24.878496,8.366462067884857,0.0779897670854169
24.880876,8.381925482922357,0.0776182713727113
24.883272,8.394735170907385,0.077252029051176
24.88566,8.401818095906881,0.076911948097016
