Time,Force,Position
24.071288,8.005273356890404,0.1673763606782364
24.073676,8.030785018198886,0.1671597298728759
24.07606,8.074640451449214,0.1667112793454169
24.07846,8.127016144364408,0.1661384379602463
24.080844,8.179950915787044,0.1655233262256832
24.083228,8.232281282731865,0.1648717874720127
24.085624,8.28321584926595,0.1641874813222344
24.088016,8.341879279531986,0.1633974980165329
24.090396,8.40571039427611,0.1625633546528407
24.092796,8.47619943756554,0.1616480874372238
24.095184,8.54813150309395,0.1607407510821317
24.097564,8.626581727540804,0.1597485901112339
24.099964,8.7174166435185,0.158584423062113
24.102352,8.805690380242336,0.1574759906205647
24.104732,8.890239454727059,0.1564234448235313
24.107132,8.975906686226667,0.1553291483515619
24.10952,9.053659958397091,0.1543088152595534
24.111904,9.12657230717139,0.1533210212542152
24.1143,9.189521374041847,0.1524684356834094
24.116688,9.251818814606246,0.1516182668629326
24.119072,9.305735765132642,0.1508820126416288
24.121468,9.34712825450134,0.150318034429562
24.123856,9.382606989429402,0.1498669644988982
24.12624,9.420459912156218,0.1494077318571617
24.12864,9.463248201935649,0.1488824859571434
24.131028,9.511111628394548,0.1482958519074028
24.133408,9.564097413361164,0.1476173480041869
24.135808,9.608470390864296,0.1470161944076633
24.138196,9.6502368631432,0.146418220390052
24.140576,9.68748727725007,0.1458712573275461
24.142972,9.721664655423886,0.1453670431925969
24.145364,9.752489458410928,0.1449157302871288
24.147744,9.775817715091495,0.1445715665046643
24.15014,9.80301040363804,0.144184630635334
24.152532,9.8339277544237,0.143762549828783
24.154912,9.859769968529886,0.143403988416206
24.157308,9.886403578568986,0.1430434190671058
24.159696,9.904516928943226,0.1427709969298762
24.16208,9.921978653011404,0.1424975837319351
24.16448,9.94372411782614,0.142169645631624
24.166868,9.96733191376043,0.1418256307837013
24.169248,9.990148313761802,0.1414843498880408
24.171644,10.013104483390036,0.1411377892007672
24.174032,10.03349947376441,0.1408379709648545
24.176416,10.057199817497317,0.1405217127293595
24.178816,10.072751988617698,0.1403033803518116
24.181204,10.07987644787183,0.1401926076772463
24.183584,10.0892825471261,0.1400487001033057
24.185984,10.08816628596909,0.1400099515666686
24.188372,10.0856070025731,0.139972373292973
24.190756,10.085608898430973,0.139891100413698
24.193152,10.09096547022203,0.1397414674651816
24.19554,10.101536948319426,0.1395288377982473
24.197924,10.114901923096156,0.1392932077885305
24.200324,10.129337833059523,0.1390466943873085
24.202712,10.149780045262142,0.1387364542057444
24.205092,10.166497595225648,0.1384584994743407
24.207488,10.188569821122346,0.1381130326626412
24.209876,10.20733669366051,0.1377840604078596
24.21226,10.21893378097417,0.1375117444626654
24.214656,10.228156680489072,0.1372490831406977
24.217044,10.241383781496811,0.1369448760853065
24.219428,10.257544148810744,0.1366131524714888
24.221824,10.274123825005262,0.1362663593885387
24.224216,10.286839069333803,0.1359576774729397
24.226596,10.304349911088092,0.1356038583555305
24.228992,10.328798220641414,0.1351797346699027
24.231384,10.35031326388854,0.134784659811404
24.233764,10.380907645307971,0.1342903469585347
24.23616,10.412061105234844,0.1337781219482625
24.238548,10.44149200366902,0.1332802401199775
24.240928,10.467058470237223,0.1328231233980984
24.243324,10.490343296805293,0.1323992568635721
24.245712,10.509903461134243,0.1320085569792603
24.248092,10.525319654343502,0.131664538419624
24.250492,10.535660710873287,0.1313735623922456
24.25288,10.550145738522769,0.1310381539647102
24.255264,10.564351226918529,0.1307143589009383
24.25766,10.582281377553402,0.1303613014119739
24.260048,10.602213628934694,0.1299887654092578
24.262428,10.621214714756205,0.129623607575803
24.264832,10.63756207352524,0.1292771595051272
24.26722,10.652047101174722,0.1289471142316014
24.2696,10.66611281994362,0.1286321384272082
24.272,10.685253675391992,0.1282691279557549
24.274388,10.701461264534167,0.1279323291933474
24.276772,10.713013025877451,0.1276317393556227
24.279168,10.730571089459987,0.127276423414027
24.281556,10.74412495154969,0.1269590872615035
24.283936,10.753255303265975,0.1266932932505599
24.286336,10.75838145348943,0.1264644445293707
24.288724,10.761365733339607,0.1262591354008957
24.291104,10.764629552443504,0.1260446276679545
24.2935,10.767613832293684,0.1258399540936215
24.295888,10.77031857289014,0.1256446459880748
24.298268,10.77553727091221,0.1254384272771047
24.300668,10.778474328934143,0.1252606455309056
24.303052,10.780899530276878,0.1250756472646312
24.305436,10.783744040500196,0.1248769260819996
24.307836,10.785238076283152,0.1246992423908039
24.310224,10.78566117687947,0.1245326349271614
24.312608,10.78552519896835,0.1243852862328983
24.315004,10.784178516243728,0.1242543310915246
24.317392,10.785113473519244,0.1240960709419551
24.319776,10.777760488555376,0.1240192176322853
24.322176,10.77320100027084,0.1239225355854945
24.324563999999995,10.76929313829236,0.1238286319659461
24.326948,10.75672524702216,0.1238031226853897
24.329344,10.750303427618062,0.1237191327503947
24.331736,10.744952543400608,0.1236236359385231
24.33412,10.744257486982043,0.1234953737194323
24.336516,10.74584407056362,0.1233397584534915
24.338904,10.748501589331834,0.1231734840119225
24.341284,10.752230043286689,0.1229962758253197
24.343684,10.758240137241678,0.1227920867363216
24.346072,10.761876043397912,0.1225928623701071
24.348452,10.764580783994369,0.1223996595458383
24.350852,10.765515741269883,0.1222414552993067
24.35324,10.762678814478043,0.1221357294281156
24.355624,10.757700017312928,0.1220521486423783
24.358024,10.756585652013785,0.1219380362307915
24.360412,10.757752926714778,0.121797026066894
24.362796,10.760922302162188,0.121638790635308
24.365192,10.761670267982602,0.121512576812093
24.36758,10.769495471228906,0.1213228908130006
24.36996,10.777460444102068,0.1211291919347498
24.37236,10.78649635216187,0.1209245653638643
24.374748,10.80018808802056,0.1206876037017008
24.377128,10.8083853783192,0.120511621811484
24.379524,10.820307330856956,0.1203107805746785
24.381912,10.833160448954487,0.1201051132076713
24.384296,10.84559425817144,0.1199142184824589
24.386692,10.855606657761392,0.1197548335349053
24.38908,10.864548122164708,0.119606575248887
24.39146,10.872139112127666,0.1194786707537601
24.39386,10.882383829143096,0.1193373509585272
24.396248,10.8964929780245,0.1191675816594088
24.398628,10.911812831719404,0.1189824345590856
24.401024,10.93234759172064,0.118749087452454
24.403416,10.959959589147765,0.11845575934324
24.405796,10.986360881761389,0.1181791296346375
24.408196,11.011551469561518,0.1179190394818733
24.410584,11.037021596615364,0.1176517580763104
24.412963999999995,11.066123838109704,0.1173413016404215
24.415364,11.092153043670995,0.1170591033881664
24.417752,11.118182249232282,0.1167784904694268
24.420136,11.140858879606794,0.1165324154515268
24.422532,11.162185035540949,0.1163057278547461
24.42492,11.182580025915325,0.1160839009186897
24.427299999999995,11.2029750162897,0.1158634575805995
24.4297,11.222718380358014,0.1156415348103829
24.432088,11.240459643679914,0.1154353121897006
24.434472,11.257689050322618,0.1152210671944478
24.436868,11.273987291405543,0.1150124061265005
24.439256,11.288982279876352,0.1147968693776246
24.44164,11.303325642041102,0.1145787329976151
24.444036,11.31487550752652,0.1143781111138723
24.446424,11.324283502638655,0.1141973575746696
24.448808,11.329547526631105,0.1140528628517956
24.451204,11.329736413944076,0.1139499035276996
24.453596,11.331415545324267,0.113823993389285
24.45598,11.331931193719202,0.1136868839986691
24.458376,11.32457820875533,0.1136065183407849
24.46076,11.312150087111988,0.1135665491547158
24.463144,11.299210108789447,0.1135184768029377
24.46554,11.283336864160711,0.1134908684595714
24.467928,11.27188712990539,0.1134192994034162
24.470308,11.264860906023484,0.1133039020823477
24.472704,11.26183888363441,0.1131581609418313
24.475092,11.259236170125916,0.1129996491221869
24.477472,11.25155831993795,0.1128807898387626
24.479868,11.245650253070924,0.1127300589905012
24.482256,11.24481732288337,0.1125402260983637
24.48464,11.246126263069094,0.1123312594758318
24.487036,11.248878225493794,0.1121248159400936
24.489424,11.251210879037911,0.1119316992700018
24.491804,11.251913518887951,0.1117652950111128
24.4942,11.25461825948441,0.1115837677320746
24.496588,11.258533704894363,0.1113881046299701
24.498968,11.265522186237376,0.1111682557045713
24.501368,11.268226926833831,0.1109869918664917
24.503756,11.269161884109348,0.1108369868862831
24.506136,11.27903640993031,0.1106220972387461
24.508531999999995,11.28956256205733,0.11041027301495
24.510924,11.302602671609964,0.1101922919294752
24.513304,11.317365342655297,0.1099680648337526
24.515699999999995,11.333571035939604,0.1097481500664661
24.518088,11.341069478103943,0.109608723009961
24.520472,11.346845358775584,0.1094756852791201
24.522867999999995,11.348477268327532,0.1093763845826805
24.525256,11.353182213812538,0.109252720056604
24.52764,11.35946995116338,0.1091281826598801
24.530036,11.359751386274969,0.1090473781446915
24.532424,11.359101655826777,0.1089716937837815
24.534808,11.35952286056523,0.1088867836239931
24.537204,11.363296640490454,0.1087701244821873
24.539592,11.37456696672215,0.1085895681281178
24.541988,11.388398472207705,0.1083787163355196
24.544384,11.404511617693393,0.108146439863958
24.546772,11.419181740940108,0.1079120143281949
24.549152,11.437204439373598,0.1076463871719659
24.551548,11.459790417807364,0.1073366769784271
24.553936,11.478511964375151,0.1070514995000592
24.55632,11.497792589450388,0.1067491405873277
24.558716,11.513488321913364,0.1064617519112406
24.561104,11.53146569437648,0.1061534642652866
24.563483999999995,11.545858174227345,0.1058603315405077
24.56588,11.568957905198175,0.1054917337479182
24.568268,11.592197405795863,0.1051198183770799
24.570651999999995,11.618929251207192,0.1047136120743501
24.573048,11.644078304752684,0.1043081249568304
24.575436,11.66629409199198,0.1039215923335988
24.57782,11.688509879231272,0.1035339762935913
24.580216,11.713658932776765,0.1031307297896667
24.582604,11.739227295202832,0.1027167395018425
24.584984,11.760931225762931,0.1023267007612363
24.587384,11.777048162964356,0.1019655261315656
24.589772,11.78902112904609,0.1016348725413122
24.592156,11.797921059194769,0.1013262165410934
24.594552,11.807891924530088,0.1010102581395363
24.59694,11.820144429865543,0.1006756825625849
24.599324,11.831465769641218,0.1003469323991058
24.60172,11.843718274976672,0.1000142695017746
24.604108,11.859835212178105,0.0996627509578819
24.606488,11.87795425012595,0.0992991516748608
24.608888,11.894490496207958,0.0989371823603098
24.611276,11.913587921543822,0.0985481163120468
24.613656,11.927098353521025,0.0981835960949221
24.616056,11.9398173895653,0.0978194161129207
24.618444,11.950534324863163,0.0974678437797091
24.620824,11.965535000907582,0.0970860726416639
24.62322,11.983096856205854,0.0966777430003451
24.625608,12.005873617810458,0.0962360834679392
24.627992,12.024134321243036,0.0958105260170556
24.630388,12.038530592809636,0.0954038454133825
24.632776,12.052787094749377,0.0950010589936768
24.635172,12.06704359668912,0.0945984986171201
24.637568,12.083581738629,0.0941769890147594
24.639956,12.09853708870304,0.093754124449385
24.64234,12.109208698030526,0.0933615007773343
24.644736,12.115596566611462,0.0930002933223391
24.647124,12.118911399259344,0.0926577261642719
24.649504,12.124647641534215,0.0922935941139933
24.6519,12.12786992638348,0.0919335570593508
24.654288,12.1324426856731,0.0915593541817864
24.656672,12.13594450977608,0.091192708632309
24.659068,12.139306564252204,0.0908311925430393
24.661456,12.148395381713856,0.0904468534312143
24.66384,12.158275595108426,0.0900634587290971
24.666236,12.16587416850286,0.0896973221948361
24.668624,12.1698406274568,0.0893647425776025
24.671008,12.173527547157017,0.0890409362508382
24.673404,12.171487703871705,0.0887400994517462
24.675792,12.172381126892583,0.0884263255891777
24.678176,12.179420621779578,0.088079626924756
24.680576,12.187810591106924,0.0877188188759833
24.682964,12.198202661180694,0.0873490106537521
24.685344,12.20831519200074,0.0869874855688965
24.687744,12.223363089873398,0.086604426371187
24.690132,12.24390543330611,0.0861849251912698
24.692516,12.265006855246265,0.0857507637650734
24.694912,12.29025224830611,0.0852949994658945
24.697296,12.313495540619543,0.0848510287674741
24.69968,12.335667897746337,0.0844147200595932
24.702076,12.355558614872988,0.0839962796305794
24.704468,12.374657936066724,0.0835769231387496
24.706848,12.391894926140903,0.0831641435179163
24.709244,12.406478189162607,0.0827578093863847
24.711636,12.420689365131976,0.0823400680866979
24.714016,12.441605691474898,0.0818788074236166
24.716412,12.465362736325394,0.0813881484637107
24.718804,12.486605823750276,0.0808986978201062
24.721184,12.512132651921712,0.08038570084825
24.723583999999995,12.53207248673448,0.0798870915042804
24.725972,12.548147889681273,0.0794041114671438
24.728352,12.564363062254923,0.0789188192144168
24.730751999999995,12.580066378149382,0.0784268930527077
24.73314,12.599401808484334,0.0779093332644319
24.735524,12.614872806953311,0.0774055784786976
24.737919999999995,12.626339603929456,0.0769189417005859
24.740312,12.637666631278742,0.0764362287654896
24.742692,12.645548535642634,0.0759559156453113
24.745096,12.648634842580776,0.0754884309646789
24.747484,12.652652315078694,0.0750192976014351
24.749868,12.658160031643831,0.0745344175261781
24.752264,12.666601014515164,0.0740406517691517
24.754652,12.676252702199996,0.0735386278575042
24.757036,12.682831353951771,0.0730491888892879
24.759432,12.690061632009607,0.0725655616178196
24.76182,12.689935133387833,0.0721164145345616
24.764199999999995,12.68645605957928,0.0716869785213461
24.766596,12.682557676890143,0.0712672154183022
24.768984,12.673164848640958,0.0708766575069995
24.771367999999995,12.667217143377163,0.0704847310845849
24.773764,12.657916862926594,0.0701108514993329
24.776152,12.648476812849166,0.0697406796057641
24.778535999999995,12.63526487870438,0.0693993648132484
24.780932,12.61534779418604,0.0690957147021483
24.78332,12.599295141533675,0.0687819851470732
24.785704,12.582962949627593,0.0684742861939848
24.7881,12.56528028328115,0.068177874884536
24.790488,12.551834135853014,0.0678843567848613
24.792872,12.546908248089748,0.067573800436211
24.795268,12.540771655512982,0.0672716173946364
24.797656,12.5319341140555,0.0669928161466852
24.800036,12.521606328530796,0.0667294944527712
24.802432,12.50736688931188,0.0664974346277192
24.80482,12.495781177145432,0.0662641380915914
24.807204,12.48256545128491,0.0660492628413703
24.8096,12.474936718783054,0.0658259915737427
24.811988,12.470892878893451,0.0656009572515534
24.814368,12.470713470869825,0.0653674568558225
24.816768,12.47518989064509,0.0651271979110581
24.819156,12.483390972659468,0.0648825954245371
24.821536,12.497318817659377,0.0646270821721125
24.823936,12.509476879338347,0.0643935774566053
24.826324,12.526150999189346,0.0641573895896375
24.828704,12.544827219786765,0.0639149244236114
24.8311,12.559731556316825,0.0637008025123088
24.833488,12.579012181392056,0.0634881988647701
24.835872,12.598013267213569,0.0632820600444052
24.838268,12.61072851154211,0.0631003874521978
24.840656,12.61608697919104,0.062947683732494
24.843036,12.62209707314603,0.0628007603353672
24.845436,12.629969498220577,0.0626515036854657
24.847824,12.63784192329512,0.0625024748252806
24.850204,12.64892715392958,0.0623396478586474
24.852604,12.6606640108701,0.0621829852264135
24.854992,12.675753442997395,0.0620099214739875
24.857376,12.689911709564916,0.0618387963005561
24.859772,12.699926005012736,0.0616822270323338
24.86216,12.704725394154227,0.0615444005261767
24.864544,12.709524783295716,0.0614069524398837
24.86694,12.712461841317651,0.0612720752880605
24.869328,12.716190295272504,0.0611402601497641
24.871711999999995,12.720617597361656,0.0609916486669558
24.874112,12.72094815015936,0.060834307346143
24.876496,12.726074300382813,0.060669632691892
24.878879999999995,12.730688593927066,0.0604955685674423
24.881276,12.736001735605626,0.060305992841489
24.883668,12.746669553217377,0.0600960502496345
24.886047999999995,12.7619006508294,0.0598629188381471
24.888448,12.77955315806842,0.0596144141813084
24.890836,12.798556139747802,0.0593558769054441
24.89322,12.818769826240684,0.0590906040871374
24.895616,12.83898351273356,0.058825815276287
24.898008,12.861478839226576,0.0585507865248383
24.900392,12.883322539413534,0.0582706755597734
24.902788,12.902093203667436,0.0580001649083483
24.905176,12.92072409829448,0.0577338589940533
24.90756,12.9427075681083,0.0574527074533934
24.909956,12.96776407385518,0.057162682641728
24.912348,12.993100118855772,0.0568673477208664
24.914728,13.015642667177037,0.0565744806934505
24.917128,13.02952518620657,0.0562935172563057
24.91952,13.042057230795743,0.0560227679572075
24.9219,13.058034398370312,0.055756208576913
24.924299999999995,13.064420371093377,0.0555020466357056
24.926688,13.074950314936135,0.0552362729286152
24.929072,13.079194417285922,0.0549904618263734
24.931467999999995,13.078363382956235,0.054757456363239
24.93386,13.074319543066636,0.0545356693220418
24.936244,13.073069199856372,0.0543127180567705
24.93864,13.06860605108619,0.0541007936655779
24.941032,13.059998931196317,0.0539000870046512
24.943416,13.051531580933304,0.0536961675705855
24.945812,13.038780489923736,0.0535067500301436
24.948204,13.028031499660583,0.0533135140068167
24.950584,13.020355545330489,0.0531128671493029
24.95298,13.00881515913442,0.0529165934948813
24.955372,12.998205938498126,0.0527203210129591
24.957752,12.990809523421747,0.0525139728350915
24.960152,12.981131468345238,0.0523177350550242
24.96254,12.974758766627255,0.0521297999887735
24.96492,12.976114928641222,0.0519327661974714
24.96732,12.980404356961383,0.0517317325103231
24.969708,12.985624950841329,0.0515310608257405
24.972088,13.00029696994591,0.0513246276831372
24.974488,13.012268040169776,0.0511381754599384
24.976876,13.025030506326562,0.0509541202402353
24.97926,13.039515533976042,0.0507727671072764
24.981656,13.052510317558305,0.0506037418309316
24.984044,13.063503000394146,0.0504388626147662
24.986428,13.076078475095828,0.0502797608258502
24.988824,13.094800021663616,0.0501072265252856
24.991212,13.112031324164189,0.0499476161263844
24.993596,13.131916353717234,0.0497907185340253
24.995996,13.145236002523587,0.0496568547709535
24.998384,13.151198874650335,0.049542909781322
25.000764000000004,13.159955243456416,0.0494283990368601
