Time,Force,Position
23.221464,4.853060470129743,0.1437242153733181
23.228632,4.857669076100391,0.1436945372584007
23.231016,4.866980731698174,0.1435195395951033
23.233412,4.880668675841128,0.1432777124351293
23.2358,4.890864275170447,0.1431434095304717
23.238184,4.901851270432684,0.1430089468797477
23.24058,4.9149801360681975,0.1428203672922484
23.242968,4.934115303942962,0.1424950129477887
23.245352,4.95604396849706,0.142115860794966
23.247748,4.977181237118241,0.1417401134446582
23.250136,4.998318505739421,0.1413643660943505
23.25252,5.017313903987326,0.1410482101850775
23.254916,5.038171633354787,0.1406922924071549
23.257304,5.06289379458822,0.1402545090045659
23.259688,5.085753624702097,0.1398517013101458
23.262092000000003,5.107961828509917,0.1394462553723877
23.297944,5.105355323285687,0.1393867750914962
23.300332,5.103400444367512,0.1393732291810393
23.30272,5.105170227688452,0.1392963052788274
23.305116,5.109314198808146,0.1392039905000009
23.307504,5.113038861047259,0.1391411740213866
23.309888,5.118206545525349,0.139077744614733
23.312284,5.126726805190215,0.1389276018093373
23.314672,5.136038460787997,0.138772285569134
23.31706,5.152939210490869,0.138476360963201
23.319456,5.172493687246213,0.1381468562985991
23.32184,5.193351416613673,0.1378296577351917
23.324228,5.215652168220109,0.1375167762719991
23.326624,5.242748517252298,0.1371149750802204
23.329012,5.270356722963683,0.1367298324709764
23.3314,5.297545619794489,0.1363712139423925
23.333796,5.332603149984101,0.1358438592429096
23.336184,5.368731615360352,0.1352915194985939
23.338572,5.398853778497354,0.1348679915032184
23.340968,5.428044776074575,0.1344618620530294
23.343352,5.454442276972463,0.1341071596678856
23.34574,5.475764641190877,0.1338638340808403
23.348136,5.493222573543319,0.1336937121888741
23.350524,5.506955843656647,0.1335854543668682
23.352908,5.51910632190414,0.1334906282335638
23.355308,5.533817979405489,0.1333173484636297
23.357696,5.547086614667864,0.1331454724338597
23.36008,5.56407991216935,0.1329228161356825
23.362476,5.585356950417391,0.132612293139071
23.364864,5.606122131986235,0.1322902365187646
23.367252,5.622231485756187,0.1320380767876542
23.369656,5.640622479526277,0.1317364445432744
23.372048,5.658222077363448,0.1314431963763987
23.374444,5.677032380014118,0.1311239140162442
23.37684,5.697844783411204,0.1307732287675498
23.379228,5.723732323487762,0.1303343790314081
23.381628,5.752692899497376,0.1298472997328746
23.384024,5.784726511440046,0.129313488637761
23.386408,5.823045964875687,0.1286656368390758
23.388804,5.862296583871106,0.1280072553549119
23.391204,5.901686972493384,0.1273408862722978
23.393592,5.943219231488941,0.1266324210305326
23.395988000000003,5.987684756790692,0.1258810698433772
23.398384,6.036014713958417,0.1250770269502116
23.400772,6.082482340006585,0.1243034722504048
23.403168,6.133605793853645,0.1234887181046301
23.405572,6.18752274438004,0.1226472215383797
23.407956,6.233850600801348,0.1219181425197955
23.410356,6.274172154983405,0.1212916456273957
23.412756,6.317846284352237,0.1206116168937942
23.415144,6.369528816706739,0.1198220704356236
23.417544,6.4142738812622095,0.1191354834584717
23.41994,6.458367319511624,0.1184501511340241
23.422336,6.500318887387761,0.1178101055447546
23.424732,6.54161882895784,0.117173849911576
23.427124,6.580544582729164,0.1165553277724227
23.42952,6.615745674261375,0.1159846478428557
23.43192,6.64922420430089,0.1154362040608467
23.434304,6.678698532847572,0.1149477917505162
23.4367,6.710734040648111,0.1144097447948738
23.439096,6.745702814754846,0.1138415937689199
23.441484000000003,6.779740423301802,0.1132848685103833
23.443868,6.809913599982784,0.1127725996377788
23.446264,6.837433049611292,0.1122845705111843
23.448652,6.868305074426576,0.111746053870198
23.451036,6.891588005136772,0.1112904140411222
23.453432,6.911565582488436,0.1108509352888142
23.45582,6.932474325399877,0.1104008748636532
23.458204,6.956595873871234,0.1099051062275835
23.4606,6.976293911969178,0.1094846592840337
23.462988,6.991196352641369,0.1091197865724796
23.465372,7.010242764433254,0.1086996262803342
23.467768,7.025704283612886,0.1083049960175492
23.470156,7.042795816486597,0.1078702449102308
23.47254,7.055231521561419,0.1074760454718625
23.474936,7.06631675219588,0.1071126217820127
23.477328,7.077401982830341,0.1067499332565399
23.479708,7.082201371971831,0.1064691499255185
23.482108,7.088071696299959,0.1061741889479145
23.484496,7.090449675814452,0.105939392301101
23.48688,7.09110509383625,0.105714639490087
23.489276,7.093622842977603,0.1054754368669468
23.491668,7.103357599171704,0.10515105709467
23.494048,7.113232124992667,0.1048206233546923
23.496448,7.118683140440214,0.1045553838906458
23.498832,7.126276026261039,0.1042614790836546
23.501216,7.1363828695074805,0.1039606323491472
23.503612,7.147560647940559,0.1036457250058885
23.506,7.156596556000359,0.1033603634529474
23.50838,7.165772233687021,0.1030683865520255
23.51078,7.170664170627128,0.1028314892030111
23.513168,7.176627042753874,0.1025823308460173
23.515548000000003,7.186826433798932,0.1023180576940454
23.517948,7.192462544843714,0.1021227023850939
23.520332,7.200892152567832,0.1019057316306263
23.522716000000003,7.211463630665226,0.1016626597872301
23.525112,7.22189533913576,0.1014267243388208
23.527504,7.240614989845682,0.1010956543347188
23.529884000000003,7.259194870928744,0.1007731734058162
23.532284,7.280056392011943,0.1004190544670946
23.534672,7.299427669027922,0.1000993741144722
23.537056,7.317076384551206,0.0997883343446246
23.539452,7.326716697088823,0.0995586179386598
23.54184,7.335146304812939,0.0993487216922305
23.544224,7.343855451790779,0.099125216883855
23.546624,7.353355994701533,0.0989027313755216
23.549012,7.359923271306093,0.0987068946713093
23.551392,7.368492648657071,0.098492889309508
23.553792,7.378132961194686,0.0982667539309228
23.55618,7.3901946833593,0.098003789434737
23.55856,7.40546921108383,0.0977013557699587
23.56096,7.417950242129024,0.0974192318558934
23.563348,7.429128020562102,0.0971252392372503
23.565732,7.445800244555233,0.0967633316215123
23.568128,7.464474569294781,0.0963852028970646
23.570516,7.480215627728135,0.0960331195915193
23.5729,7.496096455788348,0.0956752784534579
23.5753,7.508252621609448,0.0953445312125196
23.577688,7.523761362617324,0.0949752186825071
23.580072,7.536197067692145,0.0946366119559836
23.582472,7.54639835459507,0.0942887947989938
23.58486,7.557810346311495,0.0939243310081356
23.58724,7.574157705080531,0.0935196594563145
23.589636,7.590505063849569,0.0931141702707678
23.592024,7.607783588178382,0.0927033309724086
23.594408,7.626133047693836,0.09228377314832
23.596804,7.647695312769207,0.0918311340839938
23.599192,7.668186642657936,0.0913933862528829
23.601572,7.686815641427112,0.0909672531167444
23.603968,7.70302323056929,0.0905786576564867
23.606356,7.721232920457883,0.0901757923831073
23.60874,7.745169373332006,0.0897403832354097
23.611136,7.770688618071965,0.0893099008907619
23.613524,7.793926222811787,0.0889116817967987
23.615908,7.815301496432053,0.0885258209245688
23.618304,7.840680971545154,0.0881116735316802
23.620692,7.868993712964449,0.0876808022748138
23.623076,7.898889246249578,0.0872554038164339
23.625476,7.9226387076685985,0.0868836807478004
23.627864,7.951603075393951,0.0864695777087186
23.630244,7.9864339757316944,0.0860196088859351
23.63264,8.0201939408828,0.0855827616013602
23.635032,8.055024841220543,0.0851415546519987
23.637412,8.095070647864619,0.0846606324600428
23.639812,8.140051821561304,0.0841537246170467
23.642196,8.182239498578658,0.0836622167274289
23.64458,8.22507880190207,0.0831838389470722
23.64698,8.26791810522548,0.0827084143994078
23.649368000000003,8.313970214108805,0.0822080595229172
23.651752,8.361233027805628,0.0816951644195475
23.654148,8.40449164000962,0.0812101702960563
23.65654,8.443885820347639,0.080752429588334
23.65892,8.483559539939376,0.0802885671883605
23.661316,8.522302093971337,0.0798303145244582
23.663708,8.564769310242408,0.0793624730303735
23.666088,8.606165591326842,0.0789091998155653
23.668488,8.645559771664862,0.0784722524955553
23.670876,8.681229289763767,0.0780500122820337
23.673256,8.720111613422587,0.0776028052538475
23.675656,8.75699183633499,0.0771738209994708
23.678044,8.792661354433891,0.0767635848513385
23.680424,8.82725993734616,0.0763624569260082
23.682824,8.858645714698508,0.0759889396593511
23.685212,8.88896055686422,0.0756291393089177
23.687592,8.915550736790818,0.0752855747465803
23.69,8.946936514143168,0.0749255993319421
23.692384,8.974877168510126,0.074569143368706
23.694768,9.003237131757665,0.0742001953966066
23.697164,9.02745312388551,0.0738583484720435
23.699552,9.051157259334158,0.0735064570258162
23.701936,9.081287005902634,0.0731119539473798
23.704332,9.103687888739165,0.0727460186326117
23.70672,9.124366210082998,0.0723827286049605
23.7091,9.142390804374356,0.0720216264885014
23.7115,9.156178879747404,0.0716607762214409
23.713888,9.16745299769484,0.0712988443566126
23.716268,9.180496898963211,0.0709079519265532
23.718668,9.195962209858584,0.0704933080450452
23.721056,9.207842628141703,0.0700832747638036
23.723436,9.212133952319734,0.069695071207504
23.725832,9.215913419818566,0.0692965837452689
23.728224,9.223185232131035,0.0688689282759649
23.730604,9.227431230338691,0.0684246171260862
23.733004,9.2251590696279,0.0679950085901521
23.735392,9.21823108111822,0.0675746732963975
23.737772,9.203062372197394,0.067167214799389
23.740172,9.18603133215701,0.0667619798274654
