Time,Force,Position
23.564088,3.435131907626182,0.1890680304110593
23.566476,3.447095394418571,0.1888848042797702
23.56886,3.4648781919951066,0.188556885801677
23.571256,3.487409365169152,0.1881422845971959
23.573644,3.5180414891274805,0.1874695991191163
23.576028,3.5597550520045327,0.1863724631736507
23.578424,3.603283724172898,0.1852920837085022
23.580816,3.649838210446075,0.1841637015743171
23.583196,3.7097085538098695,0.1826058672577669
23.585596,3.776469143144449,0.1808861085950859
23.587984,3.850399517703536,0.1789351920604084
23.590368,3.935503878979962,0.1766571274537121
23.592764,4.022982428055142,0.1744326870955633
23.595152,4.122705899034302,0.1718788403175962
23.597536,4.2222896003866,0.1694365957030179
23.599932,4.322013071365759,0.1671247723658602
23.60232,4.424110730143672,0.1648955279074708
23.604704,4.5307244470936165,0.162616944193866
23.6071,4.642273531096174,0.1603350907143376
23.609488,4.763274040323373,0.1579170578298642
23.611872,4.8877668943642085,0.1554988885752544
23.614268,5.0043911150462375,0.1534016242324418
23.61666,5.123017436474684,0.1513210775624401
23.61904,5.241783527529992,0.1492975495711552
23.62144,5.36590429451849,0.1472318336109795
23.623828,5.485741320760433,0.145371314787861
23.626212,5.6074878999501765,0.1434494905120035
23.628608,5.736731025446391,0.1414154985487949
23.630996,5.858105517583796,0.1396303610968469
23.633376,5.975383260429752,0.1379268009143016
23.635776,6.092009376969653,0.1362565166107528
23.638164,6.19932383791177,0.1347805857318008
23.640544,6.300259909562299,0.1334188261729618
23.642944,6.387508037069874,0.1322829622584141
23.645332,6.4686573145395805,0.1312227869790257
23.647716,6.543428202717699,0.1302702135487036
23.650124,6.61237978011167,0.1293915750046772
23.652512,6.678305543400829,0.1285462126540188
23.654892,6.732126154412869,0.1278826346386965
23.657292,6.775564174640488,0.1273813842811356
23.65968,6.8099228566958026,0.1270365526294429
23.662064,6.842838516512139,0.1266918854437553
23.66446,6.872448822969944,0.1263774723106182
23.666848,6.897403301628856,0.126122962730024
23.669232,6.907831218383654,0.1260708297567931
23.683572,6.936738884991425,0.1260500151730316
23.685972,6.94293028282791,0.1260351377965746
23.68836,6.953265651784088,0.1259588381377215
23.690744,6.97305244596491,0.1257766024243209
23.69314,6.999916477571622,0.1254986323820178
23.695532,7.028130983618691,0.1251903274641076
23.69792,7.05699711597182,0.1248889279114598
23.700328,7.084932082765169,0.1246016832080998
23.702716,7.119385208476967,0.1242480513800173
23.705104,7.1559802045620415,0.1238629815327713
23.707504,7.198861042140088,0.1233892451253946
23.709892,7.243743980464551,0.1228924046565338
23.71228,7.285693652482818,0.1224325390636234
23.71468,7.330204503754943,0.1219217869016627
23.717068,7.384865628386011,0.1212751594437179
23.719456,7.429376479658138,0.1207678556150609
23.721856,7.468300337571593,0.1203183523024641
23.724248,7.517514238470853,0.1197272545038759
23.726648,7.561420685265164,0.1191803996340978
23.729056,7.604535736126556,0.1186423838226121
23.731448,7.647930326241669,0.1180964736006037
23.733844,7.687460484490809,0.1175980515619275
23.736236,7.724988541993531,0.1171294368385598
23.738624,7.754136109458248,0.116742384507911
23.741028,7.776485978750798,0.1164318570956544
23.743424,7.797904682483568,0.1161313944968656
23.745812,7.818020133604223,0.1158230402252134
23.748208,7.8372044191651,0.1155252077283842
23.750608,7.855876848046779,0.1152206346129312
23.752992,7.870824614689345,0.1149489194689144
23.755388,7.879393992040322,0.114729056164133
23.757792,7.886240807898602,0.1145196720727408
23.76018,7.898582069316936,0.114234513856415
23.762584,7.909992165175493,0.1139593371183906
23.764976,7.917677598794935,0.1137177861371429
23.767364,7.929646773160931,0.1134191426293942
23.76976,7.944968522713704,0.1130726093076436
23.772152,7.950699077414972,0.1128151278660766
23.774548,7.961504768795712,0.1125021095427892
23.776948,7.970587898683757,0.1121991098467203
23.779336,7.977808697452246,0.1119122412385587
23.781732,7.982795078048839,0.1116218732339757
23.784128,7.986058897152737,0.1113402924985978
23.786516,7.993466687376328,0.1110102317862199
23.788912,8.002085182413419,0.1106593948428917
23.791308,8.009492972637009,0.1103282100355227
23.793696,8.01704053248746,0.1099916043263483
23.79608,8.021934365285437,0.1096705929100706
23.798476,8.02203260065766,0.1093929347404884
23.800864,8.023201771216524,0.1091009396549576
23.803244,8.026233272894943,0.1087940888197229
23.80564,8.029544313827085,0.10847525266674
23.808032,8.025638347706474,0.108238285004092
23.810428,8.019730280839447,0.1080217260387327
23.812824,8.010097551733306,0.1078329675833963
23.815212,8.000744361880884,0.1076315957295353
23.817592,7.992042798334522,0.107435836263302
23.819988,7.990278702587191,0.1071725426909076
23.822376,7.987583441280078,0.1069177316821993
23.824756,7.985027949599829,0.1066569515446243
23.827152,7.983683162733074,0.1063778020345095
23.82954,7.984852333291936,0.1060901016415497
23.83192,7.987232208664299,0.1057836246334576
23.834316,7.989472314409799,0.1054844339332044
23.836704,7.996508017581052,0.1051485463965336
23.8391,8.004102799259746,0.1047881563599078
23.841496,8.011278272057856,0.1044463715633977
23.843884,8.020455845602386,0.1040854347438143
23.846264,8.03149575026647,0.1037112403301101
23.848664,8.045748460490474,0.1033015907115966
23.851052,8.059581861833893,0.1029104440915113
23.853432,8.07527759429687,0.1025093121804234
23.855828,8.095908693812461,0.102065360035958
23.858216,8.120683764447746,0.1015819668183459
23.860592,8.150906058814842,0.1010691576014668
23.863,8.180429505047636,0.1005868831579854
23.865384,8.207019684974233,0.1001303134301422
23.867768,8.234401260833748,0.0996790888899434
23.870164,8.257499095946711,0.099275875889375
23.872552,8.280457161432812,0.0988796541609117
23.874932,8.300202421358996,0.0985189071805155
23.877336,8.323951882778019,0.0981270682744762
23.879724,8.348352970503097,0.0977430909046186
23.882104,8.369681022295119,0.0973879299710272
23.8845,8.387144642221168,0.0970642422607686
23.886888,8.407261989199691,0.0967315219010404
23.889272,8.429660976178353,0.0963728809950733
23.891668,8.45420183353029,0.0959950113891344
23.894056,8.47902223013595,0.0956072183095103
23.89644,8.500490051554833,0.0952596037822128
23.898836,8.523448117040935,0.0948856686765789
23.901224,8.545195477713538,0.0945309306371515
23.903604,8.56093653614689,0.094223236858993
23.906,8.570391753087272,0.0939746405218473
23.908388,8.5762620774154,0.093741734554568
23.910772,8.580968918758273,0.0934907430753512
23.913168,8.587026234541506,0.0932181590657547
23.915556,8.588148183272125,0.092982090566726
23.91794,8.586616404950272,0.0927536841867602
23.920336,8.585224396255278,0.0925198415020394
23.922724,8.589698920172673,0.0922458767951997
23.925104,8.589098307410598,0.0920141871850812
23.927504,8.58849769464852,0.0917831311553512
23.929892,8.595114088939196,0.0914924784736094
23.932272,8.601450943976149,0.0912131108867246
23.934668,8.605785698266684,0.0909496186022292
23.93706,8.608118351810804,0.09070184306207
23.93944,8.607377969421867,0.0904791781733991
23.941836,8.604355947032792,0.0902814376718872
23.944224,8.60640906132319,0.09004593674272
23.94662,8.608322405986728,0.0898166580125759
23.949016,8.607442253970932,0.089600460360847
23.951404,8.613639339381024,0.0893322119789412
23.953788,8.623049230351032,0.0890340348804345
23.956184,8.635252618000376,0.0887238569455337
23.958572,8.651972063821749,0.0883988503329828
23.960956,8.669482905576041,0.0880764234678452
23.963352,8.690206552890249,0.0877257943686969
23.96574,8.717727898376625,0.0873342737829689
23.96812,8.744178308676364,0.0869528817568226
23.97052,8.762899855244155,0.0866163736649069
23.972908,8.780690236252168,0.0862830320581479
23.975292,8.793824789461288,0.0859698985156331
23.977688,8.795458594871107,0.0857505405026708
23.980076,8.796440773974867,0.0855245865863696
23.98246,8.799564823451906,0.0852805903888311
23.984856,8.801478168115445,0.0850512417029461
23.987244,8.803903369458178,0.0848336696845102
23.989624,8.808190901920472,0.0846075870705981
23.99202,8.804749570650817,0.0844246695412526
23.994408,8.799306138634748,0.0842550711034075
23.996788,8.794654102551593,0.0840863073155025
23.999184,8.787068800162245,0.0839350696475037
24.001572,8.77734162739962,0.0838019029681775
24.003956,8.763889792397883,0.0836840157807971
24.006352,8.74657352553017,0.083586526771893
24.00874,8.728186323475821,0.0834976616760027
24.011124,8.710450747727526,0.0834149805471622
24.01352,8.692575402352373,0.0833370806220567
24.015908,8.675631222537,0.0832551501345122
24.018292,8.664693344960874,0.0831353681495775
24.020688,8.656968272944665,0.0829888773900028
24.023076,8.656180668727487,0.0828015091146655
24.025456,8.66610241637669,0.0825262302685569
24.027856,8.673882293652621,0.0822676092517265
24.030244,8.678728904622353,0.0820256874537478
24.032628,8.682644350032307,0.0817866101537243
24.035024,8.687910269882622,0.0815288976345393
24.037412,8.694666433800155,0.0812477368578959
24.039796,8.704076324770163,0.0809599210482313
24.042192,8.710552949433975,0.0806864461440431
24.04458,8.718240278911287,0.0803990370897237
24.046964,8.723785738015323,0.0801287517904082
24.04936,8.732544002679273,0.0798324664857371
24.051752,8.74302482883592,0.0795343173923308
24.054132,8.755787294992702,0.0792144652193875
24.056528,8.767758365216569,0.0788930243777199
24.058916,8.775353146895263,0.0785782611312216
24.0613,8.77726838741667,0.078255212318485
24.063696,8.772572921221013,0.0779248391037284
24.066084,8.755400215695898,0.0776161969489245
24.068468,8.72696097565483,0.077314226403808
24.070864,8.679386567738996,0.077059958013278
