Time,Force,Position
23.235076,9.205748346220552,0.1625939596215959
23.237456,9.221761360476147,0.1625460682612132
23.239856,9.24466462070253,0.1624347102076117
23.242244,9.276879536526696,0.1622113118236698
23.244624,9.3120749404853,0.1619134190345571
23.247024,9.348156184033304,0.1615436473747298
23.249412,9.381678144185324,0.1611415685686755
23.251796,9.412733368739971,0.1607316326695161
23.254196,9.447141168481398,0.1602696299488203
23.256584,9.487508048633831,0.1597647772804004
23.258968,9.530062125129914,0.159289184001663
23.261364,9.582951570582177,0.1587277886201503
23.263752,9.637144268646551,0.1581757231974853
23.266132,9.702138866375927,0.1574830932433366
23.268528,9.76853116037391,0.1567298280186658
23.270916,9.840325352133323,0.1558556444808438
23.2733,9.89885090863037,0.1551227707926173
23.275696,9.950393671358007,0.154432076394575
23.278084,9.992392461062389,0.1538351319225383
23.280464,10.028571939982625,0.1532897807149154
23.282864,10.067172828529852,0.1527119880746613
23.285252,10.104795329689065,0.1521788419112302
23.287632,10.143441544206668,0.1516604373959919
23.290032,10.18273938503033,0.1511459396413646
23.29242,10.224039326600408,0.1506071949320113
23.2948,10.266829512237704,0.150037317330433
23.297196,10.304172474143192,0.1495171912558637
23.299584,10.339979866011088,0.1489774013726906
23.301968,10.367965846348415,0.1485036362157077
23.304368,10.38612831440877,0.1481212335738031
23.306756,10.403127299483868,0.147734830513831
23.30914,10.415702774185544,0.1474161226911194
23.311536,10.427439631126068,0.147130667867221
23.313924,10.435823912879808,0.146894450910101
23.316308,10.442158872058892,0.1467082772882187
23.318704,10.448493831237975,0.146522461320522
23.321092,10.457389969670915,0.1462921195505701
23.323472,10.469126826611436,0.1460083855832273
23.325872,10.478769035006922,0.1457241660932757
23.328256,10.48724776041715,0.1454326989763723
23.33064,10.486135290975875,0.1452398117306293
23.333036,10.485861439295762,0.1450168711203732
23.335424,10.4915938898549,0.1447291006152073
23.337804,10.496395174854255,0.1444501138154488
23.3402,10.501708316532817,0.1441784771562007
23.342592,10.507161227838234,0.1439020934615908
23.344972,10.51876021100976,0.1435547544988042
23.347368,10.529428028621512,0.1432155627643122
23.349756,10.543216103994562,0.142813553056753
23.352136,10.559705128248329,0.1423644512538619
23.354536,10.570886698397144,0.141956027685713
23.356924,10.581044555187566,0.14153548800555
23.359304,10.58920031123157,0.1411364957655932
23.361704,10.59987002470119,0.140724402713934
23.364088,10.616126731529478,0.1402633161319194
23.366472,10.63103296391741,0.1398254822939055
23.368868,10.64472849149184,0.1394056820143886
23.371256,10.653488652013658,0.1390369892991125
23.373636,10.665741157349114,0.1386191671767103
23.376036,10.675200166005236,0.1382255827771942
23.378424,10.688291289101851,0.137776395706274
23.380804,10.695236340332356,0.1373960458771029
23.3832,10.69231065745764,0.1371166177968102
23.385588,10.690548457568177,0.1368466645704152
23.387988,10.69064858879827,0.1365616814163481
23.390384,10.69070149820012,0.1363040551745027
23.392776,10.687262062788337,0.1360948616981674
23.395156,10.686476354429026,0.1358673866397478
23.397556,10.684991797935414,0.1356651180025774
23.399944,10.681505140695387,0.1354832503022448
23.402328,10.680020584201776,0.1352808847276157
23.404724,10.677185553267805,0.1351012884905491
23.407112,10.676492392707113,0.1348965955145096
23.409496,10.671515491399864,0.1347421305431098
23.411892,10.666398820465757,0.1345929816679623
23.414284,10.6636563373304,0.1344360443373347
23.416664,10.663567581247522,0.1342615705557362
23.419064,10.663059516284063,0.1341011639554764
23.421452,10.661340746507108,0.1339584057818696
23.423836,10.660133833409349,0.1338227104100376
23.426232,10.661580647364062,0.1336701468746998
23.42862,10.666100497251833,0.1334850421599025
23.431004,10.675927801244551,0.1332646962366886
23.4334,10.68682604042391,0.1330328567470178
23.435788,10.694371704416492,0.1328434419568953
23.438168,10.703639929901769,0.1326447266644681
23.440568,10.718634918372576,0.132398122260426
23.442956,10.733629906843388,0.1321529429267225
23.44534,10.746622794567775,0.1319269834555981
23.447736,10.760407078225088,0.1316988357174084
23.450124,10.77312042669576,0.1314829400157095
23.452504,10.78597354479329,0.1312624304836281
23.4549,10.79961805882374,0.1310407154690149
23.457292,10.816335608787243,0.1307875448679249
23.459672,10.832121993190972,0.1305428832071504
23.462068,10.850050247967976,0.130276192184023
23.46446,10.871051538678037,0.1299817569340401
23.46684,10.896336570134649,0.1296404860102612
23.46924,10.920550666404624,0.1293115305923187
23.471628,10.9454636108089,0.1289585397169677
23.474008,10.965580957787424,0.1286458935016882
23.476408,10.987048779206308,0.1283134398595463
23.478796,11.008144513572852,0.1279703215054176
23.481176,11.02737791681984,0.1276418004788066
23.483576,11.049684355999885,0.1272843106108826
23.485964,11.070547772940952,0.1269273719744298
23.488348,11.08675536208313,0.1266056246670033
23.490744,11.099889915292252,0.1263133333781751
23.493136,11.118099605180848,0.1259752120284191
23.495516,11.135797438390242,0.1256300756886622
23.497916,11.15270387566672,0.1252862198433909
23.500304,11.165745881077225,0.1249721382714204
23.502688,11.176134159435252,0.1246736458674609
23.505088,11.188664308166558,0.1243544427956139
23.507476,11.200123521711228,0.1240469656997558
23.50986,11.209720404136338,0.1237540707815647
23.512256,11.21251958838928,0.1235156614304813
23.51464,11.216110168575142,0.12327658310051
23.517024,11.21998028801472,0.1230282572797322
23.51942,11.227575069693414,0.1227561229920495
23.521808,11.238382656932025,0.1224520071312585
23.524188,11.246489295289916,0.1221878382112652
23.526584,11.254456164020947,0.1219290610736531
23.528972,11.262842341632563,0.1216569999081659
23.531352,11.27458109443095,0.1213514421822186
23.533752,11.28659938648306,0.1210375828153254
23.53614,11.29996815297553,0.1207048228357111
23.53852,11.316409955401054,0.120345634715361
23.54092,11.328987325960602,0.1200159888341174
23.543308,11.344218423572626,0.1196745607799207
23.545688,11.362243017863983,0.1193160621226729
23.548084,11.387344849581233,0.1188997571241807
23.550472,11.414309012418038,0.1184725477770606
23.552856,11.439271074508426,0.1180638413353904
23.555252,11.464652445479397,0.1176426265000404
23.55764,11.48831125495767,0.1172293226416333
23.56002,11.51369262592864,0.1168080270170882
23.562416,11.535628873914217,0.1164018477001592
23.564804,11.559287683392489,0.1159901236606436
23.567188,11.57773158656443,0.1156248974177968
23.569584,11.592822914549592,0.1152940411725158
23.571976,11.611406587348393,0.1149254706001131
23.57436,11.629198864214276,0.1145589603534874
23.576756,11.647642767386216,0.1141967764228315
23.579144,11.659009433132267,0.1138915319840314
23.581528,11.670236329251455,0.1135913224045941
23.583924,11.680252520557149,0.1133055274646883
23.586312,11.688685919997004,0.1130223439782209
23.588696,11.69805048499664,0.1127341883839821
23.591092,11.704761322943796,0.1124581912709977
23.59348,11.710540995331176,0.1121879411190702
23.59586,11.714970193278196,0.111937095188709
23.598256,11.722751966411998,0.1116557809865813
23.600644,11.730161652493456,0.1113633396748525
23.603024,11.73878204338842,0.1110584498832939
23.605424,11.747542203910236,0.1107494121089736
23.607812,11.757792608499274,0.110418984736381
23.610192,11.769346265700428,0.110095586396742
23.612588,11.780899922901582,0.1097734232289552
23.614976,11.796737320849289,0.1094158457323132
23.61736,11.813645653983638,0.1090485311268233
23.619756,11.827620720811789,0.108700799558767
23.622148,11.839873226147244,0.1083584015313724
23.624528,11.850682709243724,0.1080135764107397
23.626924,11.861631961967063,0.1076637127216382
23.629312,11.871510279503765,0.1073229873639289
23.631696,11.880317661853828,0.1069907605330328
23.634092,11.88856596569645,0.1066751974943321
23.63648,11.895603564725574,0.1063727849948776
23.638864,11.903944416366814,0.1060780644943308
23.64126,11.912425037634913,0.1057796353506766
23.643648,11.917460535917616,0.1054917589665045
23.646028,11.91770043677457,0.1052320736497571
23.648428,11.913796366511828,0.1050024376385956
23.650816,11.90653972106231,0.1048028335084812
23.653196,11.900074471545713,0.1046027180567666
23.655592,11.895192013894947,0.1044022149914154
23.657984,11.890589095497909,0.1041935440404919
23.660364,11.883844306727587,0.1040019158186639
23.662764,11.87216415090466,0.1038402141263987
23.665152,11.863696800641646,0.1036531739867289
23.667532,11.858442255938543,0.103441067682664
23.669932,11.85812307828806,0.1031997669715193
23.67232,11.857803900637572,0.1029583638775284
23.6747,11.85976636298722,0.1026962323767222
23.6771,11.861868594963733,0.102429883685263
23.679488,11.867835258806217,0.1021430341561305
23.681868,11.876735188954893,0.1018401857428466
23.684264,11.882981392051096,0.1015447861584523
23.686656,11.887924342535184,0.1012418222037984
23.689036,11.892867293019272,0.1009392758680279
23.691432,11.901534905742476,0.1006207830091467
23.693824,11.9068499432789,0.1003297859056905
23.696204,11.917891743800858,0.1000100825057954
23.698604,11.929864709882592,0.0996857192851443
23.700992,11.942629071897244,0.0993621835090377
23.703372,11.95218062835198,0.0990635732847933
23.705768,11.959590314433443,0.0987809660311348
23.70816,11.967279539768622,0.0984901389497485
23.71054,11.979764362529554,0.0981754424642349
23.71294,11.991457789357568,0.0978624027362728
23.715328,11.997936309879252,0.0975853253380721
23.717712,11.99812898890796,0.097351992567912
23.720108,12.002697956481844,0.0971081769666139
23.722496,12.00456597517501,0.0968958073949332
23.72488,12.00801678573401,0.0966839588075514
23.727276,12.009465495546593,0.0964842348537117
23.729664,12.005047672746787,0.0963148894826756
23.732048,12.00635661293251,0.0961188076316862
23.734444,12.008177409797431,0.0959309230437884
23.736832,12.010649832968408,0.0957475601313342
23.739216,12.011120155392971,0.0955760081112625
23.741612,12.015594679310372,0.0953813343452799
23.744,12.01792733285449,0.0952024153604009
23.746384,12.024543727145163,0.0949938188764492
23.748784,12.028226855129642,0.0948000204294237
23.751172,12.033400227181335,0.0945869687411329
23.753556,12.039364995165952,0.0943738374644597
23.755952,12.045981389456625,0.0941650706938928
23.75834,12.0496645174411,0.0939713878606758
23.760724,12.049715530985084,0.0938118861627903
23.76312,12.05349120676818,0.0936380744042353
23.765512,12.062202249603883,0.0934387627918485
23.767896,12.061182327961228,0.0932863024934251
23.770292,12.06337521187849,0.0931114205978714
23.77268,12.063705764676191,0.0929436644025337
23.775064,12.061894447100617,0.092790593531811
23.77746,12.06823130213757,0.0925901484598859
23.779852,12.070424186054826,0.0924155324160781
23.782232,12.068892407732973,0.0922543438021963
23.784632,12.0665692334782,0.0920928734732425
23.787024,12.062383728103873,0.0919381091191301
23.789408,12.06020032347596,0.0917728771510816
23.791804,12.056154587728487,0.0916142503689729
23.794192,12.048756276794242,0.0914816416618346
23.796576,12.045362167352833,0.0913278605880511
23.798976,12.0416885186577,0.0911818952268549
23.801364,12.042298610709125,0.0910075724790701
23.803748,12.042257076454488,0.0908287789462934
23.806144,12.04193600294613,0.0906575313019788
23.808536,12.044036339064776,0.0904640890974434
23.81092,12.050420415929969,0.090243607085632
23.813316,12.05294006092919,0.0900399399022348
23.815708,12.06211763447372,0.0898091738140157
23.818092,12.070364042458472,0.0895821278506761
23.820492,12.07674811932367,0.0893608859613483
23.82288,12.08699662805484,0.0891232044473721
23.825272,12.0910990649199,0.088920649894684
23.82768,12.10041640809129,0.0886875516247896
23.830072,12.115460514248213,0.0884318089002409
23.832456,12.127571354098938,0.0881889253397898
23.83486,12.140333820255725,0.0879502362130513
23.837248,12.15109418566609,0.0877224495556929
23.839632,12.16692968775593,0.0874685448354752
23.84204,12.18276518984577,0.0872149564156287
23.844424,12.193525555256134,0.086988131892396
23.846812,12.200141949546804,0.0867843148646974
23.849216,12.201683207158007,0.0866074731053512
23.851604,12.208811458127878,0.0864136203518684
23.854,12.216359017978323,0.0862082485920858
23.856404,12.222556103388415,0.0860172873122337
23.858792,12.217671749879786,0.0858814047972608
23.861188,12.215860432304211,0.0857291040839182
23.863584,12.21474796286294,0.0855581835681616
23.865972,12.214706428608304,0.0853808746875089
23.868368,12.221742131779555,0.0851690291940874
23.870768,12.226263877525197,0.0849585235574974
23.873152,12.23264795439039,0.0847422345584667
23.875548,12.233025729016337,0.0845541647212094
23.877944,12.230610006962948,0.0843746236702537
23.88034,12.230987781588894,0.0841864923229224
23.882736,12.234578361774751,0.0839791913444346
23.885136,12.23523567565442,0.0837834981958545
23.887524,12.23389088878767,0.0835977159135782
23.88992,12.228821439681804,0.0834221887154128
23.892324,12.228547588001693,0.083229415071143
23.894712,12.234419808187688,0.083005404248786
23.897112,12.24322529467988,0.082769687242321
23.899504,12.24337075188035,0.082565739879101
23.9019,12.244447374640597,0.0823592066313897
23.9043,12.245943306281422,0.0821412944659647
23.906688,12.25437670572128,0.0818930178359206
23.909084,12.25973706922808,0.0816601759053925
23.911484,12.262676023107884,0.0814477902395738
23.913868,12.26333333698755,0.0812519006023363
23.916264,12.260917614934158,0.0810719672428103
23.91866,12.25649979213435,0.0809003315130449
23.921048,12.252361508588264,0.0807213155203762
23.923444,12.251156491348372,0.0805307818615055
23.92584,12.251953574854898,0.0803317360116953
23.928228,12.253309736868866,0.0801180860286557
23.930608,12.252012171830362,0.0799083937768954
23.933008,12.255510204217606,0.0796829658593948
23.935392,12.254724495858294,0.0794816676865734
23.937772,12.259013924178458,0.0792570603288036
23.94018,12.263071035073144,0.0790172840269949
23.942568,12.265405584475127,0.0787791940621682
23.944948,12.26708850757106,0.0785365301238991
23.947344,12.271564927346324,0.0782861995522016
23.949732,12.275622038241009,0.0780470680036469
23.952112,12.28047054506861,0.0778094283024111
23.954508,12.284248116709572,0.0775780736168788
23.956896,12.29216965947023,0.0773271740780904
23.959276,12.300510511111469,0.0770652858459254
23.961672,12.30941044126015,0.0767887013435862
23.96406,12.316028731408691,0.0765276925134388
23.96644,12.325440518236569,0.0762598481019272
23.968836,12.334712535437584,0.0759960551876997
23.971224,12.346126423011878,0.0757216536918027
23.973608,12.356748914653256,0.0754465259124566
23.976012,12.36802303260069,0.0751774075008783
23.978396,12.377946676107763,0.0749209496760638
23.98078,12.386147758122142,0.0746657454237895
23.983176,12.39998305532344,0.0743755187317736
23.985564,12.414749518084507,0.0740847728381455
23.987948,12.42695480159172,0.0738164480443049
23.990344,12.43995148103185,0.0735505848633031
23.992732,12.456533053084234,0.0732822534375535
23.995112,12.479400466629588,0.0729868442552547
23.997512,12.50282695868238,0.0726779202514478
23.999896,12.53146835704151,0.0723483737886357
24.002276,12.5597376683483,0.0720072344629838
24.004676,12.584933943722032,0.0716795066407295
24.007064,12.613575342081155,0.0713532845021196
24.00946,12.641937201186565,0.0710343797948172
24.011856,12.668576498799272,0.0707146286020487
24.014244,12.697217897158398,0.0703893566650748
24.016628,12.72814093551766,0.0700519813289611
24.019024,12.757853269063425,0.0697249460622599
24.021412,12.788217228915247,0.0694044064080754
24.023796,12.818581188767071,0.0690853399690192
24.026192,12.854160054925226,0.0687460678818102
24.02858,12.887736820336965,0.0684136232052332
24.03096,12.917821240935066,0.0681041576209315
24.03336,12.94576379115989,0.0678058666738866
24.035748,12.973846111011577,0.0675042094657492
24.038128,12.998995164557066,0.0672107961992058
24.040524,13.015623958437692,0.0669340945387695
24.042912,13.021450852653311,0.0666868960243836
24.045296,13.028208912428717,0.0664389314315295
24.047692,13.028820900338005,0.0662136285672322
24.050076,13.03115544973999,0.0659893459171017
24.05246,13.035631869515257,0.0657560304442469
24.05486,13.038525497424686,0.0655195526427478
24.057248,13.044631930894028,0.0652698587037191
24.059628,13.056093040296568,0.0649976722222673
24.062028,13.06504019227349,0.0647232289724892
24.064412,13.070122912384438,0.0644573148729883
24.066796,13.070829343950214,0.0641902800353425
24.069192,13.06995298365016,0.0639191463515092
24.07158,13.065212191484123,0.0636555613308443
24.073964,13.0563274281984,0.0634066916831388
24.076364,13.051446866405508,0.0631470300892813
24.078752,13.046054447933418,0.0628781385864265
24.081132,13.037077136849074,0.0626094841935101
24.083528,13.031312631324647,0.0623281761094374
24.085916,13.027550226546635,0.0620412960211748
24.0883,13.026721088074822,0.0617468608063868
24.090696,13.0305477774019,0.0614461515091084
24.093084,13.034374466728975,0.0611463000608923
24.095464,13.037130220869416,0.0608502609167342
24.09786,13.040025744636717,0.0605517926763857
24.100248,13.04413197321751,0.0602470071366717
24.102632,13.043442604372556,0.0599496072561691
24.105028,13.03767809884813,0.0596663425137851
24.107416,13.028840557390646,0.0593924496750146
24.1098,13.025590009291834,0.0591146505200027
24.112196,13.025784584178414,0.0588403897522501
24.114584,13.03449941872986,0.0585566894581261
24.116968,13.04507658440086,0.0582720499170935
24.119364,13.059657951564697,0.0579781717587194
24.121752,13.07838328984823,0.057672954143009
24.124148,13.092452800332868,0.0573716246235784
24.126548,13.11038674268348,0.0570652629159424
24.128936,13.134838843952538,0.0567549035059174
24.131316,13.157288844475184,0.056450386571099
24.133716,13.180018384251548,0.056140386251319
24.136104,13.20647258626702,0.0558288474437498
24.138484,13.234928889028916,0.0555137305352056
24.140884,13.262174486977308,0.055206484489122
24.143272,13.29291242973934,0.0548826141027714
24.145652,13.321368732501233,0.0545701096687569
24.148048,13.34633269044949,0.0542758024256836
24.15044,13.37595247619664,0.0539793329303952
24.15282,13.41129902492932,0.053677834007589
24.155216,13.448228365527834,0.0533826764505514
24.157604,13.476357907207763,0.0531017050152811
24.159984,13.50183372183522,0.0528196186896424
24.162384,13.52009252940993,0.0525567711168785
24.164772,13.538211567357774,0.0522980113471099
24.167152,13.554048965305483,0.052049629119852
24.169552,13.561738190640662,0.0518191941780712
24.17194,13.575945574894291,0.0515873581009056
24.17432,13.58773154952092,0.051369096733633
24.17672,13.59379076116202,0.0511557362394972
24.179108,13.597708102429843,0.0509489519438573
24.181492,13.601206134817089,0.050751606931436
24.183888,13.602981605711635,0.0505521269573202
24.186276,13.603825911046403,0.0503531551337707
24.18866,13.599734849328565,0.0501605157783479
24.191056,13.590940737983583,0.0499896178569874
24.193444,13.58093592182511,0.0498246041837643
24.195828,13.56799783936044,0.0496624802460562
24.198228,13.551846951335852,0.0495097368607956
24.200616,13.529969300325735,0.049360569976683
24.202996,13.506508857449782,0.0492052208559324
24.205392,13.484491436812805,0.04905812519964
