Time,Force,Position
25.728276,7.924238055172339,0.1415984937380249
25.730664,8.00761985495607,0.1407510661083489
25.88836,7.957533385472496,0.1406172349392397
25.890744,7.962281761070005,0.1405945805246158
25.89314,7.97024294222743,0.1405210820835922
25.895532000000003,7.984070655997246,0.1403740359993336
25.897912,8.00320582387201,0.1401813042788571
25.900312,8.026345193239608,0.139935599619054
25.902700000000003,8.053209224846318,0.1396499867335432
25.90508,8.083378609811563,0.1393448479241951
25.90748,8.112337289963307,0.1390598623984347
25.909868000000003,8.141156200488192,0.1387803093149598
25.912252,8.174258851759632,0.1384322967612685
25.914648,8.211785013404484,0.1380094400339719
25.917036000000003,8.246005821690805,0.1376081250806488
25.91942,8.288794111470235,0.1370771817572216
25.921816,8.328649134943468,0.136585305864798
25.924204000000003,8.372368590282676,0.1360504134443899
25.926588,8.41222361375591,0.1355626858814088
25.928988,8.441928363870197,0.1352152143992883
25.931376,8.466418207678155,0.1349427741788668
25.933756,8.494912252978946,0.1346185413427683
25.936156,8.523825607160317,0.1342793315522563
25.938544,8.543427305743903,0.1340394647843964
25.940928,8.558932255036039,0.1338234892410905
25.943324,8.562983678357115,0.1337370854292596
25.945716,8.561867417200103,0.1336904318463343
25.948096,8.563404883095567,0.1336219254694181
25.950496,8.567223988991167,0.1335170021669464
25.952884,8.567458202274514,0.1334430961418301
25.955268000000004,8.573186861117913,0.1332860763708437
25.957664,8.58296694328239,0.1330472623069391
25.960052,8.593445873581167,0.1327796461184033
25.962436000000004,8.603692486454465,0.1324926483364761
25.964832,8.6198528537684,0.1321094136070152
25.967224,8.625118773618713,0.1318210710196048
25.969604,8.633365181603466,0.1314686833809943
25.972004,8.641519041789602,0.1310931588495049
25.974392,8.651954541975874,0.13068227607463
25.976776,8.667744718095339,0.1301964925740779
25.979172,8.689588418282298,0.1296088507961061
25.981564,8.707847225857003,0.1290509822216783
25.983948,8.723592076006096,0.1285093871658435
25.986344000000003,8.743108810222544,0.1278986195437174
25.988736000000003,8.763976018879351,0.1272606515879957
25.99112,8.793410709029263,0.1265042701128159
25.993528,8.821122837686481,0.1257583593026616
25.995912,8.842736116305833,0.1250582189111107
25.998292,8.859553797499432,0.1244100879805693
26.0007,8.881726154626225,0.1236942970123672
26.003084,8.901896411006598,0.1230053302503313
26.005468,8.915501286640279,0.12240630490276
26.007864,8.927755687833603,0.1218354209465648
26.010248,8.937076822720734,0.1212950738755365
26.012632000000004,8.939320720181971,0.1208344127997613
26.015028,8.948362315815379,0.120307522901769
26.017416,8.952468544396176,0.1198312699993471
26.019796,8.949777074804802,0.1194202098597044
26.022192,8.950298410773344,0.1189711998560101
26.02458,8.953892782674943,0.1184908721448763
26.026960000000003,8.953063644203127,0.118069060181157
26.029356,8.955167772037505,0.1176199763819788
26.031744000000003,8.957923526177945,0.1171753112302814
26.034128000000003,8.962262072184215,0.1167286798181633
26.036524,8.969533884496682,0.1162569398273307
26.038912000000003,8.97280149531632,0.1158253398003492
26.041292,8.976208875762817,0.1153868809122007
26.043688000000003,8.978545321022672,0.1149592333896204
26.046076,8.977017334416555,0.1145629929987442
26.108200000000004,8.289135715123653,0.1143641812077323
26.110588,8.285737813966502,0.114346883766385
26.112972,8.28364316542147,0.1143388694164977
26.115368000000004,8.285412948742408,0.1142960869644101
26.117756,8.288485984675463,0.1142624508501684
26.12014,8.300219049900244,0.1141518814807606
26.122536000000004,8.313115598110281,0.1140566255283356
26.124924,8.332530305238766,0.1139113791479722
26.127308,8.356088983486945,0.1137188861736737
26.129704000000004,8.37564346024229,0.1135658569255782
26.132092,8.400133304050247,0.1133630740148265
26.134476,8.419128702298151,0.1132333073250905
26.136872000000004,8.439334805359554,0.1130856002535691
26.13926,8.458889282114898,0.1129329001564484
26.141644,8.486312392229049,0.1127066602709907
26.144044,8.50693780417103,0.1125447834539271
26.146432,8.528634151299652,0.1123715678234745
26.148816000000004,8.549119793614777,0.1122191058384006
26.151212,8.575099881489953,0.1119974697179564
26.1536,8.599217638245571,0.1117892998812529
26.15598,8.630412632427081,0.1115140761351438
26.158376,8.659093669182974,0.1112522691747664
26.160764,8.686331683699892,0.1109865138229689
26.163144000000003,8.715851338216947,0.1106931329007996
26.16554,8.749003107174499,0.1103482406463021
26.167932,8.77656788277338,0.1100453084033928
26.170312000000003,8.803760571319925,0.1097269558401081
26.172712,8.82815976318713,0.1094308887617768
26.175096000000003,8.8532105813604,0.1091414133022166
26.177480000000003,8.887061198452253,0.1087790555599554
26.179876,8.922913916290522,0.1084019113884912
26.182268,8.962538518196148,0.1079669610830126
26.184648000000003,8.9982986882358,0.1075634971017837
26.187048,9.036992124581644,0.1071373706700967
26.189436,9.069819028315102,0.1067642839531605
26.191816000000003,9.100643831302142,0.1064063121589786
26.194212,9.12853536798299,0.106073505613688
26.196600000000004,9.154844112797996,0.1057434933724847
26.19898,9.178871217612867,0.1054444328397841
26.201376000000003,9.206250897614517,0.1051066277220039
26.203760000000003,9.224691009070716,0.1048468577411551
26.20614,9.242851581273198,0.1045998573600916
26.208536,9.264085189408735,0.1043257972555055
26.210924,9.27931249530502,0.1041027653760703
26.213308,9.289464664521836,0.1039251393796364
26.215704,9.299756603365507,0.1037419820056593
26.218088,9.31191087332874,0.1035483205574252
26.220468,9.325136078478607,0.1033448784130998
26.222864,9.335987095829724,0.1031430670645489
26.225252,9.342322055008806,0.1029653536319558
26.227648,9.346934452695193,0.1027944828745577
26.230044,9.35126731112786,0.1026346225840651
26.232428,9.358673205493584,0.1024483774262185
26.234808,9.36328560317997,0.1022786074106932
26.237212,9.368037770493215,0.1021038484244314
26.239600000000003,9.377213448179877,0.1018818595111171
26.24198,9.388251456986096,0.1016494326652376
26.244376000000003,9.399149696165452,0.1014224314324354
26.246764,9.409675848292474,0.1011808237459868
26.249148,9.41633756855352,0.1009656847874902
26.251544000000003,9.423139058441429,0.100744469800049
26.253928,9.426355655717083,0.1005392733872836
26.256308,9.42635944743282,0.1003654428107077
26.258704,9.434231872507366,0.1001353406189764
26.261092,9.44396662870147,0.0998944870914039
26.263488,9.455423946388269,0.0996486844665242
26.265884,9.463947997768871,0.0994240000976156
26.268272000000003,9.465534581350449,0.0992500621540879
26.270652,9.467912560864937,0.0990760958893201
26.273048000000003,9.47001100112571,0.0989125094838512
26.275436,9.467685931013069,0.098794738417255
26.27782,9.464289925713787,0.098687298247592
26.280216000000003,9.459543445974148,0.0986003162002926
26.282604,9.45973233328712,0.098478245033235
26.284988,9.457779350226817,0.0983761711242295
26.287384000000003,9.45633822384571,0.0982846085352695
26.289772,9.454385240785408,0.0981829404371892
26.292152,9.452572027351962,0.0980762446707809
26.294552000000003,9.451130900970856,0.0979849162577322
26.296936,9.45434560238864,0.0978694923447167
26.29932,9.46035380048576,0.0977394887084311
26.301724,9.47022643044885,0.0975854734193126
26.304112000000003,9.48238070041208,0.0974070548719396
26.306492,9.487877041830007,0.0972679591192469
26.308888000000003,9.495375483994344,0.0971149544443654
26.311276,9.504084630972182,0.09694819407982
26.313656,9.51386471313666,0.0967718379932746
26.316064,9.529790867167245,0.0965468166996893
26.318448000000004,9.545577251570972,0.0963271073751371
26.320828,9.559501304855145,0.0961163834190642
26.323232,9.578919803699367,0.0958523845935124
26.32562,9.596336201797174,0.0956021752259386
26.328000000000003,9.610027937655865,0.0953695138435987
26.330404,9.61543173127517,0.0952047101216515
26.332792,9.626841827133726,0.0949974742068339
26.335172,9.634527260753169,0.0948090430006387
26.337572,9.640582680678529,0.0946501729724259
26.339956,9.643425295043976,0.0945198086844611
26.34234,9.645476513476506,0.094389277774969
26.344736,9.64459446560284,0.0942780441001664
26.347124,9.644923122542671,0.0941527086547185
26.349504000000003,9.642970139482369,0.0940515345732343
26.351904,9.639946221235425,0.0939598839461433
26.354292,9.63664276373476,0.0938778130241346
26.356672000000003,9.63147697511454,0.093804796382275
26.359068,9.624029546494183,0.0937554353751884
26.361456,9.618444448993383,0.0936971764585671
26.363836,9.6153733089182,0.0936357015665969
26.366232000000004,9.612162399216151,0.0935790800951808
26.36862,9.615609418059414,0.0934876668404804
26.371004,9.61663502727568,0.0934243861660543
26.373400000000004,9.621664837984778,0.0933345095183809
26.375788,9.63670515242596,0.093178952040173
26.378168,9.656820603546612,0.0929869903295461
26.380564,9.66999858686824,0.0928396266017093
26.382952000000003,9.68503890130942,0.092683601709019
26.385332,9.701010381310384,0.0925229305011935
26.387732,9.724059098737232,0.0923138358111534
26.390120000000003,9.746316420231164,0.0921042674121118
26.392504,9.771646777658152,0.0918740093004088
26.3949,9.792972933592306,0.091670589200445
26.397288000000003,9.811645362473984,0.091474146399004
26.399668,9.831248956915443,0.0912743084703903
26.402064000000003,9.854065356916816,0.091047762680692
26.404452,9.876741987291329,0.0908264479856054
26.406848000000004,9.9007690921062,0.0905874008168289
26.409244,9.923865031361297,0.0903539892831814
26.411632,9.943376078004134,0.0901335529371913
26.414012,9.96516876464711,0.0898919212605727
26.416416,9.98151422755828,0.0896710528457439
26.418804,9.99627689860361,0.0894482880078892
26.421184000000004,10.008525612223323,0.0892286622823883
26.42358,10.013836858044012,0.0890515806430323
26.425968,10.02049857830506,0.0888576148242237
26.428352000000004,10.0313042696858,0.0886344088728393
26.430748,10.046114162559372,0.0883883809533518
26.433136,10.06655827061986,0.0880937739653775
26.43552,10.081135846067957,0.0878313591655694
26.437916,10.09757575263561,0.0875621211158251
26.440304,10.111082392897066,0.087309616899439
26.442684,10.12766206909158,0.0870374313395115
26.44508,10.148245946778928,0.0867417354312508
26.447468,10.16510516222716,0.086460092074955
26.449852,10.182755773608312,0.0861809994165693
26.452248,10.201477320176105,0.0858945514670133
26.454636,10.218056996370615,0.0856245866739812
26.45702,10.231703406258935,0.0853695581218448
26.459416,10.24241654984106,0.085128903917853
26.461804,10.252198527863404,0.0848929140088057
26.464188,10.260490261818529,0.0846778618361658
26.466584,10.273577593199404,0.0844418703887359
26.468972,10.287037011632618,0.0842206622941971
26.471356,10.300216890812116,0.0840081866377049
26.473752,10.311115129991473,0.0838168479633739
26.47614,10.320662894730471,0.083642769037121
26.478524,10.32420435723022,0.0835025416107372
26.48092,10.320389043050357,0.0834125170630112
26.483308,10.31829629036319,0.0833202947436698
26.485692,10.316063768049164,0.083232695984246
26.488088,10.313691476108277,0.083149559779081
26.490476,10.309037544167255,0.0830862058253224
26.49286,10.30424384259937,0.0830273174343231
26.49526,10.302755494390018,0.0829689363002565
26.497648,10.29926504543425,0.0829214081557514
26.500028,10.291770394985647,0.0828953262339257
26.502428,10.284415514163904,0.0828647123403445
26.504816,10.280925065208136,0.0828169864139073
26.507196,10.280367882558568,0.0827552336590549
26.509596,10.277668829535717,0.0827086623324438
26.511984,10.277391186139864,0.0826379328412746
26.514364,10.27203840606454,0.082596206346059
26.516764,10.268827496362496,0.0825394301537445
26.519152,10.264545651473812,0.082490099711314
26.521532,10.26319707289132,0.0824271361722018
26.523928,10.26399036468211,0.0823493098915256
26.526316,10.268787857965732,0.082250439826796
26.5287,10.27572722162263,0.0821364589226266
26.531096,10.280152627853914,0.0820225396915513
26.533484,10.28378663815228,0.0819074650977268
26.535868,10.284487382144448,0.0818057032647754
26.538264,10.287609535763616,0.0816801857570547
26.540652,10.289381214942424,0.0815711396872152
26.543032000000004,10.291572203001817,0.0814490706275034
26.545432,10.294694356620983,0.0813241640456134
26.54782,10.302891646919624,0.0811709960282895
26.550200000000004,10.310669628337685,0.0810308182746287
26.552596,10.317516444195965,0.08089426763702
26.554984,10.325434195240884,0.0807507605904785
26.557368000000004,10.33521427740536,0.0806014856877847
26.559764,10.346856690689393,0.0804470996861066
26.562148,10.3606409743467,0.0802779430900635
26.564532,10.372562926884456,0.0801152420492318
26.566928,10.391981425728678,0.0799031039674446
26.569316,10.404741996027592,0.0797152389020601
26.5717,10.413777904087397,0.0795389447807134
26.574096,10.422301955467995,0.0793534204864748
26.576484,10.428963675729042,0.0791732838728806
26.578864000000003,10.442562863789115,0.0789616433684618
26.581264,10.456441591102914,0.078741891279566
26.583652,10.474464289536405,0.078498180795737
26.586048,10.491136513529538,0.0782708571005195
26.588444000000003,10.507576420097193,0.0780247320376251
26.590832,10.524295865918566,0.0777711476820352
26.593216,10.53556808800813,0.0775283446496152
26.595612000000003,10.546048914164777,0.0772851352020163
26.598,10.557368358082586,0.0770160325382887
26.60038,10.56482337013442,0.0767612740232383
26.602780000000003,10.571347216626476,0.0765097006900277
26.605168,10.577359206439334,0.0762483895928134
26.607552,10.57964653401308,0.075997447887107
26.609952,10.582073631213683,0.0757424633482358
26.612340000000003,10.584780267668007,0.0754792426820925
26.61472,10.580269897069584,0.0752551055101135
26.617116000000003,10.578832562404216,0.0750143284739778
26.619504,10.579676867738984,0.0747557799216379
26.621888,10.575446036394284,0.0745214704096274
26.624284000000003,10.574148471355771,0.0742756831804476
26.626672,10.56991764001107,0.0740423590599975
26.629056,10.566478204599283,0.0738112562934304
26.631452000000003,10.560105502881305,0.0735910299678011
26.63384,10.552941405230408,0.0733686832535478
26.636224,10.548431034631983,0.0731440520216332
26.638620000000003,10.54485182959334,0.0729178986247069
26.641008,10.547930553100002,0.0726718695286767
26.643388,10.548867406233388,0.072438749112268
26.645784,10.550316116045972,0.0722160423767346
26.648172,10.555117401045331,0.07196991721472
26.650552,10.557916585298274,0.0717319752741954
26.652952,10.560715769551216,0.0714943724580326
26.65534,10.565377284923716,0.0712524888164174
26.65772,10.570969965855994,0.0710091008613815
26.660116,10.575351941974771,0.0707761297407374
26.662504,10.582015558093689,0.0705265104567982
26.664884,10.590681274959024,0.0702692179441223
26.667288,10.600929783690193,0.0700173547215267
26.669676000000003,10.614763185033611,0.0697611625375086
26.67206,10.628596586377036,0.0695059946693193
26.674456,10.638286016600764,0.0692707343554354
26.676844000000003,10.643971245331658,0.0690510963780302
26.679224,10.652729509995607,0.0688177134938459
26.681624,10.662698479473056,0.0685743943662762
26.684012000000003,10.669873952271171,0.0683371727702546
26.686396,10.671322662083757,0.0681147957013032
26.688792,10.67197997596342,0.0678909047744528
26.691180000000003,10.672777059469947,0.0676626750823203
26.69356,10.672782747043556,0.0674320317327842
26.69596,10.6731605216695,0.0672164427983099
26.698348000000003,10.674469461855224,0.0669987118169725
26.700728,10.672565596481032,0.0667979338205755
26.703132000000004,10.67159289666662,0.0665957870710701
26.705524,10.669828800919284,0.0663915178978565
26.707904,10.668204474798811,0.0661829105221663
26.710300000000004,10.661505011998868,0.0659938423479576
26.712688,10.654665779572063,0.065809163652623
26.715068,10.64102884897309,0.0656431734042188
26.717468000000004,10.627811227254698,0.0654647701144516
26.719856,10.61273127441675,0.0652892512831516
26.722236,10.600584587885,0.0651045784057681
26.724632,10.589508836539885,0.0649134828565134
26.727024,10.574289114075071,0.0647403482081895
26.729404,10.556787751610129,0.0645820847403939
26.731804,10.54035732433182,0.0644177993250987
26.734192,10.526440854479128,0.0642565620082905
26.736572,10.512524384626436,0.0640953080082683
26.738968,10.497536979587103,0.0639390476100494
26.741356000000003,10.485482840853964,0.0637743659006067
26.743740000000003,10.474127550255131,0.063589357746235
26.746136,10.463843194842935,0.0633986781618953
26.748524000000003,10.455560940177154,0.0632005523578204
26.750908000000003,10.44448518883204,0.0630061941222944
26.753308,10.430336401553868,0.0628233636369706
26.755696,10.417118779835477,0.0626389177239128
26.75808,10.410978395542973,0.0624285866358127
26.760476,10.402044514571134,0.0622218505901238
26.762864,10.401258806211825,0.0619844167322181
26.765244000000003,10.400473097852515,0.0617472119477949
26.767644,10.397825058373646,0.0615117066087579
26.770028000000003,10.3954565581485,0.0612681535418896
26.772412000000003,10.395369697923492,0.0610097928285958
26.774808,10.399706348071897,0.060726298078988
26.777196000000004,10.409677213407216,0.0604096052693587
26.779576,10.419508309115674,0.0600975474806729
26.781976,10.42989848333157,0.0597691207923522
26.784364000000004,10.437495160868131,0.0594441063794262
26.786748000000003,10.447373478404833,0.0591048386677543
26.789144,10.4544582992622,0.0587694277578882
26.791532000000004,10.45819054493279,0.0584532571981288
26.793916000000003,10.462202329857105,0.0581294663905508
26.796312,10.46849575478155,0.0577922521955071
26.798700000000004,10.47371824451936,0.0574587612223598
26.801084000000003,10.481874000563364,0.0571180927612279
26.80348,10.488307195114674,0.0567749490136053
26.805872,10.491667353732923,0.0564431357847162
26.808256,10.494887742724316,0.0561144575999841
26.810652,10.491682520595877,0.0558148810371079
26.81304,10.48819775921372,0.0555235332406106
26.815420000000003,10.488577429697532,0.0552249796007653
26.81782,10.48802593462157,0.054927172958152
26.820208,10.490267936224942,0.0546286109710202
26.822588000000003,10.491299233014814,0.0543393846240137
26.824988,10.48255234349808,0.054094839693444
26.827376,10.469941022115371,0.0538557095121528
26.829756000000003,10.460914593344915,0.0536187023466497
26.832156,10.45267956050738,0.053384534871981
26.834544,10.443885449162403,0.0531663016440489
26.836924000000003,10.434811798563706,0.052955630452861
26.839324,10.42480698240523,0.0527444695058797
26.841712,10.411309821433116,0.0525540507064906
26.844092000000003,10.393808458968168,0.0523727516416367
26.846492,10.379240362809416,0.0521855659508158
26.84888,10.365743201837306,0.0519939566453657
26.851264,10.351547192730893,0.0518216404604837
26.853664,10.337211413997618,0.0516528749870369
26.856052,10.323015404891205,0.0514793332177489
26.858432,10.311101035784926,0.0512923448275056
26.860828,10.298395270745733,0.0511013591615208
26.863216,10.28433903126618,0.0509227702640776
26.8656,10.26679044697299,0.0507643039781469
26.867996,10.239882985253772,0.0506359808195878
26.870384,10.2104143442807,0.0505279288404763
