Time,Force,Position
25.961296,7.34126098729926,0.1588491301452778
25.963696,7.353736330770847,0.1588007631495507
25.966084,7.375523329840217,0.1586182903025281
25.968468,7.404108027081754,0.1583265443046227
25.970864,7.437395773950427,0.1579277114895767
25.973252,7.471801677833982,0.1574689307188958
25.975632,7.511329940225252,0.1568829490618052
25.978028,7.549554950004406,0.1562967277298305
25.980412,7.58326390161153,0.1557774152783392
25.982792000000003,7.617112622845513,0.1552583783509327
25.985208,7.645746437773163,0.1548416630841765
25.987592,7.677545836432485,0.1544048552988983
25.989976,7.709298013263565,0.1540049215348112
25.992372000000003,7.745146939386096,0.153567677027355
25.994756,7.783370053307381,0.1531147241189411
25.997136,7.819498518683632,0.1526618419234217
25.999540000000003,7.853113026634269,0.1522347926599303
26.001928,7.889847792346203,0.151718414914277
26.004308,7.928911419886518,0.1511248132643758
26.006704,7.969045982613472,0.1505159555886916
26.009096,8.00024097679498,0.1500536459798604
26.011476,8.028922013550876,0.1496208276294513
26.013888,8.057183741426188,0.1492152095794117
26.016276,8.086236865234419,0.1488112919432635
26.018656,8.114079284229152,0.1484359120835982
26.021052,8.143784034343442,0.1480416646231576
26.02344,8.171346914084454,0.1476886856847919
26.025820000000003,8.199329102706047,0.1473175245800632
26.028236,8.226427347596106,0.1469234203895794
26.03062,8.251942800620325,0.146542467324038
26.033,8.27666685771163,0.1461669024570976
26.035396,8.300739288496876,0.1457923583519905
26.03778,8.326301963349339,0.1453809763198114
26.040164,8.352423716709245,0.1449456318699083
26.04256,8.376962678203315,0.1445199723684898
26.044948,8.405086532309637,0.1440579264008029
26.047328,8.43321038641596,0.1435953100051443
26.049724,8.454536542350112,0.1432201466037512
26.052112,8.47185849679143,0.1429043949387603
26.054492000000003,8.486946033060859,0.1425963239541383
26.056884000000004,8.503663583024363,0.1422441581003122
26.059272,8.519310197801229,0.1419110143985794
26.061652,8.529090279965706,0.141653984164127
26.064048,8.535657556570264,0.1414492489512341
26.066436000000003,8.5448785602273,0.1412210998649714
26.06882,8.548884657578004,0.1410703585747078
26.071216,8.549166092689594,0.1409608905775533
26.073608,8.547585196681627,0.1408721728939128
26.075988,8.5458645310468,0.1407898397976739
26.078384,8.538556872053304,0.1407693864606282
26.080772000000003,8.531668521940388,0.1407297315344922
26.083156,8.52519948070805,0.140670786642514
26.085552,8.518730439475716,0.1406117398936949
26.087940000000003,8.511981858989659,0.1405650889028657
26.09032,8.507607466302357,0.1405071060564289
26.092736,8.50002026805514,0.1404978456035984
26.095124,8.495506105740976,0.140445913140911
26.097504,8.5010024471589,0.1402639826107432
26.099916,8.503845061524347,0.1401049327523905
26.102304000000004,8.50855000700935,0.1399268238561733
26.104684,8.514325887680991,0.1397331491152175
26.107096,8.520241537979494,0.1395338959600472
26.109484,8.535376296077164,0.1392116695282764
26.111864,8.547577787868638,0.1389231303505949
26.114268000000003,8.55577507816728,0.1386867944531077
26.116656,8.565974469212335,0.1384234647550433
26.119036,8.579758752869644,0.1381268410871531
26.121432,8.595684906900233,0.1377992435782675
26.12382,8.61067989537104,0.1374814934036481
26.1262,8.629679085334685,0.1371104008721544
26.1286,8.649097584178907,0.1367228884517108
26.130984,8.664232342276572,0.1363993427332177
26.133368,8.681229431493799,0.1360590335537369
26.135764,8.695944880710888,0.1357562405240173
26.138152,8.706004502129083,0.1355009598704775
26.140548000000003,8.723001591346309,0.1351621094836708
26.142944,8.738927745376897,0.1348416395671525
26.145328,8.748428288287652,0.1346162144714069
26.147712,8.760722327877744,0.1343622916771917
26.150108000000003,8.767569143736026,0.1341578606697561
26.152496,8.772693398101609,0.1339662515048794
26.154876,8.775024155787857,0.133802270179469
26.157272,8.768275575301802,0.1337517772152014
26.15966,8.769535397801413,0.1336041469720751
26.162044,8.770003824368107,0.1334591451042475
26.16444,8.772614121308077,0.1332838911037406
26.166824,8.772570691195574,0.1331298932656006
26.169208,8.770245621082932,0.1330123096501471
26.171604,8.766989385410511,0.1329035460593085
26.173992,8.765875020111368,0.1327648051175226
26.176372,8.760337144438811,0.1326921938300781
26.178776,8.758943239885948,0.1325653107447988
26.181164000000003,8.749960241227997,0.1325167647737699
26.183544,8.742607256264126,0.1324288468352139
26.18594,8.739118703166227,0.1322983598755251
26.188324,8.726690581522885,0.1322738519057843
26.190724000000003,8.713843150998962,0.1322670055981057
26.195504,8.687356894018194,0.1322564882671031
26.197888,8.678745982412583,0.1322225844541401
26.200284000000003,8.670646927486166,0.132197718703656
26.202672,8.665481138865946,0.1321395592876018
26.207448,8.649842107520557,0.1320654205911807
26.209836000000003,8.64081188703436,0.1320495029094821
26.212216,8.633224688787145,0.1320332934927174
26.214612,8.628151447965543,0.1320022090922769
26.217,8.626011473450133,0.1319381565934596
26.219396000000003,8.62666499561406,0.1318472596031203
26.221792,8.623034777031434,0.1318161545547712
26.224176,8.623688299195361,0.1317251642696938
26.22656,8.621268785426233,0.1316730317728339
26.228956000000004,8.627509300948832,0.1315287961569577
26.231344,8.635472377964124,0.1313737168261124
26.233724,8.643575224606277,0.1312133743956079
26.23612,8.658755308674323,0.1309676458010343
26.238508000000003,8.671141896063029,0.130747840750296
26.240888,8.685530584198153,0.130504885796782
26.243284000000003,8.699919272333279,0.1302613981182445
26.245672,8.71193377266965,0.1300269411835493
26.248056,8.725298747446377,0.1297665673691129
26.250452000000003,8.735730455916913,0.1295382319793102
26.25284,8.750817992186338,0.1292683503434183
26.255232,8.771911830695014,0.1289268501435126
26.257632,8.790212172524354,0.1286122551227218
26.26002,8.80706949211472,0.1282995083332917
26.2624,8.823275185399028,0.1279842404848453
26.264796,8.83640784275028,0.1277070343301261
26.267184,8.847258860101395,0.1274646226978069
26.269564000000003,8.860111978198926,0.1271986915691334
26.27196,8.868821125176764,0.1269841518640784
26.274348000000003,8.8799516817816,0.126729333915755
26.276732000000003,8.88721780652046,0.1265157617343459
26.279128,8.891271125699406,0.1263452537023132
26.281512,8.895044905624632,0.126187010158025
26.283908000000004,8.892672613683747,0.126101984983936
26.2863,8.890300321742862,0.1260166902852612
26.288688,8.887928029801975,0.1259315214116447
26.291064,8.890491104913702,0.125793852499413
26.293460000000003,8.894636971891266,0.1256516407857764
26.295844,8.896501198868691,0.1255433519692304
26.29824,8.899156821779036,0.1254323447068618
26.300636,8.894223350584294,0.1253926754407081
26.303024,8.89008127532247,0.1253506255687519
26.305404000000003,8.889803631926616,0.1252705573056796
26.307808,8.88724434853063,0.1252239192173055
26.310196,8.890411828120172,0.1251243277877758
26.312576,8.894790012523213,0.1250053149462593
26.314972,8.90037890173975,0.124866746588947
26.31736,8.906898956516066,0.1247206071484941
26.319740000000003,8.918494147971858,0.1245178727035324
26.322144,8.931811900920344,0.1243072771252161
26.324532,8.945548962749411,0.1240802064138833
26.326912,8.963849304578753,0.1237896344697523
26.329316,8.98070662416912,0.1234978660891351
26.331704,9.004501411558511,0.123136272897949
26.334084,9.035233666746937,0.1227070326729261
26.33648,9.062753116375443,0.1223170453038433
26.338868,9.086268364511117,0.1219716581014856
26.341248,9.108992216713872,0.1216292724611549
26.343644,9.133857939289904,0.1212612110535804
26.346032,9.16286763298563,0.1208486183025289
26.348412000000003,9.196533154480246,0.120397338589135
26.350808,9.227684718549249,0.1199589373610082
26.353196,9.252969750005864,0.1195764560850676
26.355576,9.28146758702239,0.119156509109674
26.35798,9.300094689933696,0.1188334041823129
26.360368,9.319513188777917,0.1185095279959926
26.362748000000003,9.342004723555194,0.1181552006241435
26.365152,9.364775797586192,0.1177917202305104
26.36754,9.388478037176968,0.1174250207685067
26.36992,9.406173974528494,0.117117174326975
26.372316,9.425312934118995,0.1168133023181416
26.374704,9.444172354455777,0.1165240158062423
26.377084000000004,9.464614566658394,0.1162324780411398
26.37948,9.481611655875616,0.1159597205706696
26.381868,9.491811046920672,0.1157455501946115
26.384248,9.50922744501848,0.1154602310918753
26.386652,9.525852447183368,0.115176215319948
26.38904,9.541266744534754,0.1149091759801021
26.391420000000004,9.554818710766588,0.1146556946744699
26.393816,9.565437410692224,0.1144284043131064
26.396204,9.578197980991142,0.1141794510600815
26.398584,9.592261803902172,0.1139387827565724
26.400988,9.612331929052452,0.113644674889362
26.403376,9.629468787896538,0.1133758880271418
26.40576,9.651960322673816,0.1130486542957478
26.408156,9.672869065585257,0.1127243404721782
26.410544,9.691915477377144,0.1124152404035917
26.412924000000004,9.710961889169027,0.1121078524518141
26.415328,9.725864329841215,0.1118416326267702
26.417716,9.741697936073187,0.1115674692014217
26.420096,9.752735944879408,0.1113291849494347
26.422496,9.756836485886597,0.1111496343746177
26.42488,9.762939127640202,0.1109536569499337
26.42726,9.768342921259508,0.1107834974837962
26.429664,9.773606945251952,0.1106177481559144
26.432052,9.772073271072228,0.1105056057973638
26.434432,9.77240192801206,0.1103814075609079
26.436836,9.77594339051181,0.1102240223313658
26.439224000000003,9.783209515250672,0.1100432597492687
26.441604,9.79154657517617,0.1098520228126418
26.444008000000004,9.79373756323556,0.1097167418394427
26.446396,9.79862950017567,0.1095401762210489
26.448776,9.798725839690029,0.1093981528450997
26.451172,9.796540539204244,0.1092824665359364
26.453556,9.791794059464603,0.1092037043586726
26.455936,9.786488501217525,0.1091450501906629
26.458336000000003,9.777970137410527,0.1091190049928662
26.46072,9.769032464722953,0.1091079165139568
26.4631,9.762376432035513,0.1090700136558167
26.465504000000003,9.760004140094628,0.1089888254554423
26.467892,9.761636049646576,0.1088743438794033
26.470272,9.76606145587786,0.1087417855966439
26.472668,9.764899868750476,0.1086442193260768
26.475052,9.764297360130527,0.1085264272225692
26.477436,9.767047426697358,0.1083709968225072
26.479840000000003,9.771520054756884,0.1082088398883779
26.482228,9.772919646883354,0.108074094012447
26.484612,9.77110643344991,0.1079720172602952
26.487016,9.763426687404076,0.1079145385049843
26.489400000000003,9.753605070984964,0.1078784830122194
26.491784000000003,9.748206964939266,0.1077941326251307
26.49418,9.738664887773876,0.1077475468401485
26.496568000000003,9.729634667287682,0.1077104158077746
26.498948,9.726610749040738,0.1076239622439551
26.501344000000003,9.724937305234157,0.1075165819497339
26.503732,9.727547602174123,0.1073665934575573
26.506112,9.734162100606929,0.1071839936844339
26.508508,9.738122871987256,0.1070131688270617
26.510896,9.740733168927228,0.1068633900016476
26.51328,9.74078228661334,0.1067502931817507
26.515676,9.739900238739676,0.1066429255928199
26.518064000000003,9.742091226799063,0.1065090784963411
26.520448,9.747867107470707,0.1063578869472687
26.522844,9.75308390963491,0.1062268031302533
26.525232000000003,9.759603964411228,0.1061054756024502
26.527612,9.765984249560685,0.1059891705662499
26.530016000000003,9.777439671389612,0.1058310942391661
26.532404,9.790105798032045,0.1056575974263406
26.534788,9.80770729172708,0.1054469173955094
26.537184000000003,9.827171116541678,0.10522561637564
26.539568000000003,9.847286567662334,0.1050105525562859
26.541948,9.866982709902407,0.1048098527450086
26.544356,9.892964693635452,0.1045541087378119
26.546744000000004,9.917084346248942,0.1043110702837794
26.549124,9.943066329981985,0.1040588931243303
26.551520000000004,9.963833407408698,0.1038529463880932
26.553908,9.984740254462272,0.1036439911832322
26.556288,10.00858036782204,0.1034148748982587
26.558688000000004,10.034050494875888,0.1031575333813361
26.561072000000003,10.0579378300639,0.1028999963586867
26.563456,10.08368749637147,0.1026336211325318
26.565852,10.109437162679036,0.1023693845112001
26.568240000000003,10.13718892973302,0.1020923737157778
26.57062,10.16363744417489,0.1018057165618482
26.57302,10.18584943969845,0.1015303763512578
26.575408000000003,10.210482844849002,0.1012274307692332
26.577788,10.231112048506724,0.1009549139155752
26.580192000000004,10.253603583284002,0.1006739468425377
26.58258,10.273161851755084,0.1004129379908085
26.584964,10.29192872429325,0.1001527089436411
26.587360000000004,10.305620460151944,0.099930386419557
26.589748,10.320662670450997,0.0996889306214281
26.592128,10.329838348137658,0.0994869942580667
26.594532,10.339945191384096,0.0992813279461094
26.59692,10.34711876832434,0.0990947506658175
26.5993,10.356853524518442,0.0988752687644556
26.601696,10.36258407921971,0.098683973439293
26.604080000000003,10.366312533174565,0.0985067431370684
26.60646,10.369481908621974,0.098348689440723
26.608856000000003,10.378657586308636,0.0981500088927478
26.611244,10.381966731382906,0.0979875683700416
26.61362,10.380480279031426,0.0978523987978171
26.616016,10.374337998881051,0.0977399339122798
26.618404,10.372711776902712,0.0976097146198302
26.620784,10.374530677909766,0.0974709246413695
26.62318,10.372205607797124,0.0973638222225324
26.625564,10.372022408057758,0.0972387051591713
26.627944,10.36904571163906,0.0971269300466489
26.630340000000004,10.366208784847217,0.0970103893627322
26.632728,10.36337185805538,0.0968938612216889
26.635108,10.363887506450316,0.0967454930132624
26.63752,10.365613859658753,0.0965838621678968
26.639908,10.366129508053689,0.0964354013218141
26.642288,10.360918393463091,0.0963175340774689
26.644684,10.358780314805555,0.0961775114652011
26.647068,10.357293862454076,0.0960425317291195
26.649448,10.356598806035512,0.0959074956827432
26.651844,10.35990795110978,0.0957464379532881
26.654232,10.35935266431808,0.0956068848745133
26.656616,10.354793176033542,0.0954940074330274
26.659012,10.358242090734672,0.0953291010223217
26.6614,10.36476404136886,0.0951420378753299
26.663780000000003,10.372217157562826,0.0949503756893437
26.666196,10.38209168338379,0.0947343794709004
26.668584000000003,10.390523186965776,0.0945138420368559
26.67098,10.401748187227096,0.0942809181914213
26.673376,10.410971086742002,0.0940610541220461
26.675760000000004,10.421125151816684,0.0938371728207651
26.67814,10.43435225282442,0.0935928770942101
26.680544,10.445577253085744,0.0933608825383309
26.682932,10.458664584466623,0.0931218820643429
26.685312000000003,10.470680980660864,0.0928921853375272
26.687708,10.486189721668737,0.0926284498968783
26.690096,10.507844534542723,0.0923232546569912
26.692476,10.523772584431178,0.0920460147890104
26.694872000000004,10.53797807282694,0.0917726073991692
26.69726,10.551671704543503,0.0914890418973619
26.69964,10.56285137883445,0.0912097472683069
26.702036,10.578454563498813,0.0908926243968608
26.704424000000003,10.592474956297336,0.0905741832292857
26.70682,10.600628816483471,0.0902886016048408
26.709216,10.610924547042886,0.0899878313425572
26.711604,10.623501917602436,0.0896669618255206
26.713984000000004,10.6272794892434,0.08939337991542
26.716388,10.633338700884504,0.0891005243080866
26.718776,10.640376299913624,0.0887782000083053
26.72116,10.647553668569609,0.0884512478050925
26.723556,10.656221281292808,0.0881042518400258
26.725944,10.664097498083091,0.0877580701789238
26.728324,10.67732839080657,0.0873741159698996
26.73072,10.687253930171511,0.0869916073202276
26.733108,10.69731923916332,0.0866054188591644
26.735488000000004,10.704591051475788,0.0862296652836959
26.737884,10.7112112374822,0.0858505643279521
26.740272,10.721183998675386,0.0854435039978041
26.742656000000004,10.733438399868712,0.0850180631339758
26.745052,10.75011631143545,0.0845598385590207
26.74744,10.763860956695993,0.0841150672541325
26.74982,10.77546373158326,0.0836858985773649
26.75222,10.787066506470527,0.0832559240405297
26.754604,10.80109069098479,0.0828027705055503
26.756984000000003,10.809527882140388,0.0823680804111684
26.75938,10.81782530366912,0.081939239504388
26.761768000000004,10.827985056317411,0.0815025820130879
26.764152000000003,10.834792233778929,0.0810931085331567
26.766548,10.836104965680388,0.0807233572282439
26.768936000000004,10.838907941649069,0.0803339834209717
26.771332,10.840779752057973,0.0799485156893005
26.773728,10.841720396907096,0.0795667355314226
26.776116,10.835583804330328,0.0792210900067198
26.778496,10.832100938806038,0.0788714620276101
26.780896,10.827686907721969,0.0785244762176624
26.783284,10.82606637331723,0.0781695402181643
26.785664,10.81988255891222,0.0778498993018983
26.78806,10.815141766746184,0.0775377541941634
26.790448,10.807048399393375,0.0772498761266553
26.792828,10.796393852786707,0.0769882727115011
26.795224,10.785599536553184,0.0767295769347007
26.797608000000004,10.77387405475988,0.0764727320787291
26.800004,10.763731364832411,0.0762188028407965
26.8024,10.753029596397502,0.0759814676070208
26.804788,10.744282706880764,0.0757608741009093
26.807168,10.732742320684691,0.0755473522162342
26.809572000000003,10.724135200794814,0.0753221687137704
26.81196,10.712315275345023,0.075115885470514
26.81434,10.707153278440543,0.0748883756443898
26.816744,10.702223598961536,0.0746796232139847
26.819128,10.694453200974952,0.0745044687918696
26.821508,10.685472098174872,0.0743397749234648
26.823904,10.681426362427402,0.0741547324016123
26.826292,10.674819447426074,0.0739951471021192
26.828672,10.669795324290586,0.0738393181716621
26.831076000000003,10.664212122647656,0.0737003272024152
26.833464,10.661422417684054,0.0735542799875734
26.835844,10.661565979026657,0.0733981810143753
26.83824,10.666784677048726,0.0732191854293695
26.840628,10.668650799884022,0.0730627934838622
26.843008,10.679037182384182,0.0728837167510188
26.845412000000003,10.69035473044412,0.072702370069141
26.8478,10.705024853690832,0.0724994709742152
26.85018,10.721836847310826,0.0722851996252067
26.852576,10.74321212093109,0.072039175486775
26.854964,10.766961582350111,0.0717996083473773
26.857344,10.789640108582494,0.0715671735617266
26.85974,10.819535641867626,0.0713009521759378
26.862128,10.845706512913644,0.0710439584093263
26.864508,10.869083887280327,0.0707930239743006
26.866912,10.89409127534109,0.0705194914453127
26.869300000000003,10.921892160081187,0.0702412744043439
26.871684,10.950624210381063,0.0699631452266342
26.87408,10.981777670307933,0.0696657883797019
26.876468000000003,11.008275302435914,0.0693773889083009
26.878848,11.03398153863098,0.0690875024596618
26.881244,11.059967314079762,0.0687901143584834
26.883632,11.080086556916154,0.0685128725242081
26.886016,11.097132763819491,0.0682505139854082
26.888412,11.116740149976684,0.0679639794783445
26.8908,11.12568540609574,0.0677092391446678
26.893184,11.139566029267405,0.0674393181552789
26.895576,11.149023142065657,0.067196867601524
26.897964,11.152613722251518,0.0669721243767633
26.900348,11.154341971317823,0.06675175885009
26.902744,11.15448742851829,0.0665268505909828
26.905132,11.154353346465038,0.0663098902690937
26.907512,11.15193762441165,0.0661085915267936
26.909912,11.147380031984982,0.065917565482389
26.9123,11.146686871424288,0.0657166359937955
26.914684,11.14878720754293,0.06551161058897
26.91708,11.14395007586254,0.0653281985439073
26.919468,11.134037807502684,0.065163664986562
26.921844,11.122914834329324,0.0650083824349877
26.924252000000003,11.117658393768355,0.0648364406881936
26.926636,11.11175032690133,0.0646580176303605
26.929016,11.104911094474527,0.06448085029575
26.931412,11.098071862047725,0.0643031157942007
26.9338,11.086948888874364,0.0641459657705915
26.93618,11.081412909059678,0.0639810473236221
26.938584,11.083745562603797,0.0637935262881223
26.940972,11.078861209095166,0.0636349253411396
26.943356,11.07132312853406,0.0634757567127436
26.945752,11.070582746145126,0.0632995556688264
