Time,Force,Position
24.950244,1.618239561986668,0.1755236252717053
25.251288,3.0489805085222104,0.1753997195583473
25.253684,3.260998958847983,0.1750872148708552
25.256068000000003,3.476930958725843,0.1742354429125341
25.258452,3.6889097706548513,0.1727735778981262
25.260848,3.887438643439991,0.1710949254263601
25.263236000000003,4.071726181148342,0.1691932263753665
25.265616,4.237581190831966,0.1675861848000157
25.268016,4.388122034394295,0.1660740588780675
25.270404000000003,4.532752915231729,0.1644589182238746
25.27278,4.6634182085303575,0.1631860141825143
25.275188,4.788777943581906,0.161943816254374
25.277572000000003,4.901056034826183,0.1610034674099471
25.279952,5.0145467267418296,0.1598684262889394
25.282348,5.115654622984507,0.1589126835356376
25.284736,5.211504182808348,0.1578336047332377
25.28712,5.2914804980034535,0.1568984173887972
25.289516000000003,5.36494244599585,0.1558285144313403
25.291904,5.425279320068468,0.1547115121413874
25.2943,5.468486918728479,0.153654342097707
25.296704,5.493399863132752,0.1527953102344789
25.299088,5.510213752610612,0.1519526661190803
25.301472,5.520928792050604,0.1512336141354422
25.303864,5.527312868915797,0.1506920786516196
25.306252,5.536535768430698,0.1502004591945916
25.308636,5.553485635819679,0.1497053202904711
25.311032,5.576998988097484,0.1491902299059794
25.31342,5.606052111905717,0.1486328206562129
25.3158,5.642462012393558,0.1479059516841485
25.3182,5.67519447247053,0.1471981857800497
25.320584,5.708952541763765,0.1463746599834409
25.322964,5.732887098780019,0.1456964655661558
25.325364,5.76031400060991,0.1449230394410161
25.327748,5.785319492812801,0.1442388086871378
25.330132000000003,5.816795922105898,0.1434942694526235
25.332524000000003,5.850459547742645,0.1427961480916913
25.334912,5.891105967148794,0.1420559217546446
25.337296,5.927421423980148,0.141474011068351
25.339692000000003,5.962990810848959,0.1409873437198263
25.459156,6.316202602458274,0.1406020006860708
25.461552,6.319088646936226,0.1405995567517906
25.46394,6.326118662533872,0.1405188804239134
25.46632,6.337804505930409,0.1403721464482097
25.468716,6.352563385260002,0.1401686514834438
25.471104,6.370535070149511,0.1399001591795504
25.473484000000003,6.391160482091494,0.1396030987607595
25.475892,6.412717059593255,0.1392955297329312
25.478276,6.430548974855904,0.1390386440590564
25.48066,6.452385091611386,0.1387083067607967
25.483056,6.471707250941254,0.1384026037099119
25.485444,6.491541266950319,0.1381082036416536
25.487828,6.5095129518398265,0.137843305620969
25.490224,6.525482535982918,0.1376144354440652
25.492612,6.535725357140481,0.1374715770381747
25.494992,6.548110048671319,0.1372858065941715
25.497388,6.561286136135076,0.1370970910683305
25.499776,6.577115950651307,0.1368799956921478
25.502172,6.589872729234483,0.1367194136690863
25.504568000000003,6.603560673377438,0.1365456806903697
25.506952,6.621392588640085,0.1362984498665501
25.509336,6.634428906476982,0.1361230108315361
25.511732,6.6489554683810965,0.1359053072575267
25.51412,6.662318547299956,0.1356751103638751
25.516504,6.67423860397984,0.1354466737140126
25.5189,6.683644703234109,0.1352394824155009
25.521288,6.691328240995683,0.1350502135704857
25.523672,6.698499922078059,0.1348508524824995
25.526068,6.712469301332605,0.134554546987505
25.528456,6.7288600902141456,0.1342061684648135
25.53084,6.746182044655466,0.1338464713658164
25.533236,6.764063077604226,0.1334563080486981
25.535624,6.779430153127372,0.1330850894137824
25.538008,6.794145602344461,0.1327096553604016
25.540404,6.813144792308103,0.1322555422201295
25.542792,6.8327030607791865,0.1317735674021222
25.545172,6.848024810331958,0.1313258423824818
25.547568,6.857247709846862,0.1309351716586923
25.549956,6.867029687869207,0.1305143024911459
25.55234,6.877230974772134,0.1300708487458445
25.554736,6.883055973129888,0.1296703925178616
25.557124,6.891442150741501,0.1292083360159722
25.559508,6.894892961300504,0.1288181438081833
25.561904,6.89326863518003,0.1285061168086516
25.564296,6.897138754619611,0.1280960078040686
25.566676,6.90329051405933,0.1276422235051636
25.569076,6.908930416819851,0.1271780226504604
25.571464,6.914710089207232,0.1267088148848489
25.573844,6.918255343422719,0.126245883395469
25.57624,6.919286640212591,0.1258008831605354
25.578628,6.920737245883044,0.125334448856883
25.581008,6.923678095620716,0.1248303663007874
25.583408,6.930111290172023,0.1242602854446051
25.585792,6.938965894350328,0.1236427104610739
25.588176,6.947308641849435,0.1230159447751347
25.590572,6.954859993415625,0.1223943849372968
25.59296,6.967346712034426,0.1217113288591438
25.595344,6.986491359198533,0.1209552264921309
25.59774,7.006846711176142,0.1201800565902961
25.600128,7.02655043684769,0.1194014640295381
25.602508,7.050398133638933,0.118568463292317
25.604908,7.076527470430315,0.1177041174865669
25.607296,7.106009382408471,0.1167833191611412
25.60968,7.142848071066239,0.1157591187466978
25.612076,7.1693967167382,0.1148784701581855
25.614468,7.193943261663744,0.1140262841574796
25.616848,7.215696309909953,0.1131993320181593
25.619244,7.232933299984131,0.112408126530248
25.621632,7.245095153378837,0.1116804534362781
25.624012,7.256837697892962,0.1109740819704256
25.626412,7.267509307220449,0.1102844636233246
25.6288,7.275759506920938,0.1096420085545186
25.63118,7.278934569941954,0.1090615970762487
25.63358,7.283320337776473,0.1084636277905585
25.635968,7.28756633598413,0.1078743044845789
25.638364,7.28873929825873,0.1073214699606747
25.64076,7.288981094973553,0.1067797912687726
25.643148,7.285498229449264,0.1062710047111907
25.645532,7.27773162317842,0.1058191661794467
25.647928,7.274760614333329,0.1053250354333203
25.650316,7.265363994368405,0.1049150951586213
25.652696,7.24912245440307,0.1046091288852255
25.6551,7.23432393667671,0.1043084499420495
25.657488,7.21831471413685,0.1040283103108503
25.659868,7.206449462716686,0.1036981437901773
25.662268,7.1943046720428026,0.1033804425343061
25.779352,6.658027248067391,0.1030676656520701
25.781732,6.671620748553859,0.103056177514794
25.784124,6.69056892497352,0.1029724739295446
25.786508,6.714312698818932,0.1028441381072589
25.788888,6.740430660463099,0.1027175233060469
25.791284,6.767340018040184,0.1025917424643088
25.793668,6.795180541177048,0.1024576163515754
25.796048000000003,6.825674791366386,0.1023098903110954
25.798440000000003,6.857239976742362,0.1021491820918961
25.800828,6.8915986587976725,0.1019690804128434
25.803208,6.9258175712261245,0.1017971176178234
25.805624,6.9659030162669655,0.1015669602796555
25.808008,7.007850792427364,0.1013221475006982
25.810388,7.050589964520681,0.1010779676712004
25.812792,7.089185165494303,0.100883051538744
25.815176,7.128571762400844,0.1006881340908065
25.817556,7.164745553747469,0.1005353306684205
25.819952,7.199848409907455,0.1003959086214226
25.822336,7.228153567895272,0.1003190549897974
25.824728,7.255667329950173,0.1002414230585808
25.827132,7.285183192751488,0.1001440487251913
25.82952,7.309484149246474,0.1001112719470788
25.831896,7.330991609062124,0.1001008089031973
25.834292,7.35464093925105,0.1000653717725947
25.836676,7.377638643133918,0.1000252229763637
25.839056000000003,7.402917987016924,0.0999543571049603
25.841452,7.433132697952542,0.0998400951989275
25.843836,7.461624847395463,0.0997334400256232
25.846216,7.487975126465106,0.0996524866608459
25.848612,7.510740512922498,0.0995913278704163
25.850996,7.53406497788733,0.0995058978646843
25.853376,7.559671082852299,0.0993920483814473
25.855792,7.583973935205152,0.0992660406801165
25.858176,7.610046570878945,0.0990990335310517
25.860568,7.636957824313899,0.0988939394780451
25.862964,7.666290487375851,0.0986545845882745
25.865348,7.6980445600648,0.0983786260709047
25.867724,7.731288876820968,0.0980726186744257
25.87012,7.769887869510329,0.09770488178222
25.872504000000003,7.81011687589377,0.0973014008702038
25.874884,7.849042629665094,0.0968898256946978
25.877280000000003,7.880798598211913,0.0965080734186313
25.879668,7.911902940452674,0.0961218836427487
25.882048,7.936861210827324,0.0957969101195742
25.88446,7.956232487843304,0.0955075017333601
25.886848,7.968945836313975,0.0952658692479558
25.889244,7.974349629933281,0.095065191667598
25.89164,7.979381336500248,0.094846482625182
25.894028,7.984600034522318,0.094584849364391
25.896408,7.992379911798247,0.094282908782405
25.898812000000003,7.99857699720834,0.093981477828684
25.901196,7.998535462953704,0.09370790139477
25.903576,7.99891323757965,0.0934167609128058
25.905968,7.994495414779843,0.0931588052426336
25.908356,7.993010858286231,0.0928795807942094
25.910736,7.986218847687671,0.0926198834620774
25.91314,7.982919181902746,0.0923170717947921
25.915524,7.976314162759288,0.092016301208717
25.917908,7.971478926936769,0.0916774871610313
25.920304,7.9652006688752754,0.0913311926957911
25.922688,7.959201950067502,0.0909742944335342
25.925068,7.963633043872394,0.090523008048243
25.927472,7.97220810879698,0.0900393308869514
25.92986,7.985114136296361,0.0894796260815043
25.93224,8.000581343049602,0.0888806418180595
25.934636,8.020751599429977,0.08822386068513
25.937024,8.041061625437212,0.0875573808765107
25.939416,8.062442586631086,0.0868838954136762
25.94182,8.085546109317656,0.0862102299282715
25.944208,8.103993804205334,0.0855601806921475
25.946588,8.12472313909315,0.0848889899221819
25.94898,8.147594344354243,0.0841989370310008
25.951368,8.173398815921532,0.0834967114149062
25.953748,8.203347258608511,0.082764181462766
25.956152,8.233575240549214,0.082027697369979
25.958540000000003,8.26845905028881,0.0812740714369212
25.96092,8.296265622602514,0.080573786722119
25.963324,8.331661289021305,0.0798434365653806
25.965712,8.361702279506904,0.0791634248679464
25.968092,8.395328162604756,0.0784798400800461
25.970488,8.425601470515831,0.0778301557281579
25.972872,8.455315699919467,0.0772105263371302
25.975252,8.477952691897215,0.0766384014507616
25.977656,8.4997510661138,0.0761022862815422
25.980044000000003,8.525925728875555,0.0755653358894151
25.982424,8.55126177387615,0.075063588395307
25.984820000000003,8.585257848168471,0.0745284189518974
25.987208,8.617763678393572,0.074019371599123
25.989588,8.653574861977205,0.0735201395876221
25.991992,8.691480694105872,0.0730375986480355
25.994376,8.72747697328674,0.0725977013832326
25.996756,8.764636735452862,0.0721809426459313
25.99916,8.799235318365128,0.0717990026722701
26.001544,8.831272722023538,0.0714502773782486
26.003924,8.85939847198773,0.0711508488576787
26.00632,8.884031877138284,0.0708854741745289
26.008708,8.912901801207152,0.0706227049945529
26.011084,8.934135409342689,0.0704190308064461
26.0135,8.956672270090339,0.0702301156426565
26.015884,8.977299577890193,0.0700800790351448
26.018268000000003,9.003094570168136,0.0699309450011445
26.020664,9.028330483938635,0.0698034236254016
26.058876,9.19309198275968,0.0697865870530686
26.061256,9.2128787769405,0.0697630796586166
26.063656,9.231222548882348,0.0697297322881086
26.066044,9.248123298585217,0.0696870915166551
26.068424,9.261159616422113,0.0696576229640311
26.07082,9.275918495751704,0.0696283860224393
26.073208,9.291608540641077,0.069596928856603
26.075588,9.314375822956336,0.069532446288969
26.078004,9.33979683232407,0.0694662924930316
26.080392,9.371736000610255,0.0693855214990645
26.082772,9.40353539926958,0.0693098681124672
26.085176,9.431190826809209,0.0692553951572185
26.087564,9.454842052856003,0.0692191563778264
26.089944,9.47770188296988,0.0691805796879675
26.09234,9.506056158643812,0.069103980783611
26.094728,9.534550203944605,0.0690223037913366
26.097108,9.555594924767169,0.0689576960204917
26.099508,9.579712681522786,0.0688781740947729
26.101892000000003,9.607974409398098,0.0687766477070602
26.104272,9.627156799101105,0.0687166376350289
26.116236,9.643218931042812,0.0687026688772181
26.118616,9.64098451287092,0.0686903720232071
26.130572,9.57762182469349,0.0686856075812296
26.132952,9.567892756072997,0.0686336804602923
26.135356,9.557791600400162,0.0685653262881955
26.137744,9.545828113607772,0.0685007553175438
26.14012,9.526275532710295,0.0684561366153668
26.142528,9.50779388699946,0.0684048969347543
26.144912,9.490662715728982,0.0683375998270676
26.147296,9.468875716659612,0.0682797048606425
26.149692,9.44285219867193,0.0682171316351149
26.152076,9.424604766244444,0.0680995892121743
26.15446,9.407987347511032,0.0679570253553942
26.156856,9.39872670545723,0.0677727054471064
26.159244,9.392167012284148,0.0675566141648798
26.161624,9.38951897280528,0.0672975196318658
26.16402,9.386918155154657,0.0670073658142762
26.166408,9.383525941571111,0.066714993483876
26.168788000000003,9.375105813136342,0.0664137132352823
