Time,Force,Position
27.8649,3.946552984861254,0.1544569784128356
27.867296,3.954279952735332,0.1544434834795381
27.869684,3.9657315828485222,0.1543371724461457
27.872068,3.9784864655738295,0.1542363232519616
27.874464,3.98937901717958,0.1541821611932631
27.879236,4.0116759770702775,0.1540917006209864
27.881632,4.024570629422445,0.1539729030294104
27.88402,4.0433318143870025,0.1536801760597022
27.886404,4.061161833791782,0.1534084739048769
27.888811999999994,4.082996054689394,0.1530224111828641
27.8912,4.1055291237213085,0.1525738304198567
27.89358,4.13034383275336,0.1520343679095858
27.895979999999994,4.153435980292714,0.1515260338427744
27.898368,4.177738832645567,0.1509726530002131
27.900752,4.199527727572806,0.1504685130427347
27.903147999999995,4.221316622500045,0.1499736826111279
27.905536,4.245107618173701,0.149411731680602
27.90792,4.2662448867948815,0.1489077149450103
27.910315999999995,4.286450989856284,0.1484333993494235
27.912704,4.298369150678298,0.1482249530715966
27.915084,4.30805289332842,0.1480360852049809
27.917483999999995,4.315222678552926,0.1478886256361459
27.919872,4.322160146351956,0.1476990395876876
27.922252,4.3328222763900985,0.1474250965845539
27.924651999999995,4.344275802361158,0.1471485500211136
27.92704,4.364948436131385,0.1466096869322039
27.929424,4.386132926580808,0.1460943599797137
27.931819999999995,4.404384150724038,0.1456559293730105
27.934208,4.423846079680765,0.1451703292101879
27.936592,4.4383726415848805,0.1448178941767454
27.938987999999995,4.452479894608416,0.1445062241797201
27.941376,4.46751831319173,0.1441785953171858
27.943756,4.486700702894735,0.1437397406632129
27.94616,4.50215843035863,0.1433792886464695
27.948547999999995,4.519758028195802,0.1429600883732716
27.950928,4.534564129353637,0.1426003651964224
27.953332,4.552583036071389,0.1421527153885174
27.95572,4.5726040435355575,0.1416558134388841
27.958099999999995,4.5907627198801695,0.1411969713542229
27.960496,4.613344906598195,0.1406021612276964
27.962883999999995,4.635787323689362,0.1400256331894306
27.965264,4.656367409660971,0.1394829188684119
27.967664,4.678018430819218,0.1389136520949385
27.970051999999995,4.699157595298269,0.1383402238535233
27.972435999999995,4.716711867165066,0.1378326521942817
27.974832,4.728120067165753,0.1374851113705275
27.97722,4.736734770487104,0.1371911499367242
27.979603999999995,4.745069934554735,0.136917584030384
27.982,4.755127660115062,0.1366218341355767
27.984388,4.765837011981447,0.1363293345218549
27.986768,4.775335659034334,0.1360777456677006
27.989168,4.782040809407885,0.1358803922540603
27.991556,4.78660408940816,0.1357433437207228
27.993936,4.794892031647547,0.135536481181907
27.996336,4.802900434633214,0.1353551204697629
27.998724,4.812910938365299,0.1351286815803828
28.001107999999995,4.820779571724106,0.1349615176726661
28.025016,4.882364893149121,0.1348599995445013
28.027404,4.894887458448951,0.1347801946555327
28.029792,4.906618627815861,0.1347079266527766
28.032188,4.921283063488968,0.1345771870800375
28.034576,4.937018434348714,0.1344192337672704
28.03696,4.957549402634211,0.1341734092103759
28.039356,4.978871766852626,0.1339250845446818
28.041743999999994,5.001125296630818,0.13366676955798
28.044128,5.020305790475956,0.1334760914640247
28.046524,5.039486284321095,0.1332881647472671
28.048911999999994,5.0535916414867605,0.1332055196953229
28.051296,5.066905602719508,0.1331283089498384
28.053692,5.086365635818368,0.1329178574075442
28.056079999999994,5.10875893522342,0.1326534775937658
28.058464,5.1325027090688335,0.1323423437020681
28.06086,5.152661590301992,0.1320862216774611
28.063247999999994,5.16830441336312,0.131895388322088
28.065632,5.185018171610887,0.1316771224374666
28.068028,5.205224274672289,0.1313590279147227
28.07042,5.226641082547189,0.1310061720222691
28.0728,5.244193458556118,0.1307255406832612
28.075196,5.260674899378406,0.130476385803666
28.077588,5.277156340200696,0.1302298371697
28.079968,5.288190557291176,0.1300619478336565
28.09432,5.301457296695681,0.1300450387283865
28.096716,5.309977556360546,0.1299043334458097
28.099108,5.322362247891385,0.1296986112264349
28.101492,5.331953442742889,0.1295393999104028
28.108664,5.333955543489307,0.1295020313649228
28.111064,5.334886709049085,0.1294877269676552
28.113451999999995,5.336609270541782,0.1294689142073072
28.11584,5.339123227967396,0.1294459796071749
28.1278,5.353972759237736,0.1294281764567321
28.130188,5.358069508529187,0.1293962922869916
28.132583999999994,5.364727437074494,0.1292869058165477
28.134972,5.370593969686886,0.1291814828310322
28.151744,5.376600271926136,0.129060845364866
28.15414,5.382606574165386,0.1289487061700614
28.156527999999994,5.3898235812181365,0.128804148478867
28.158928,5.399322228271022,0.1286045214332956
28.161328,5.409519723458211,0.1283585558433785
28.163716,5.417854887525841,0.1281408697885194
28.166112,5.422605158981219,0.127968474866107
28.168516,5.4284263656232365,0.1277738974103937
28.170904,5.435970133757948,0.1275619965054365
28.173308,5.450079282639353,0.1272037491310337
28.1757,5.4661905322671736,0.1268146464156498
28.178096,5.481742703387554,0.1264636930842571
28.180496,5.4940820689480185,0.1261795265526202
28.18288,5.5084235352549,0.1258601250139575
28.18528,5.518760800068947,0.1256117357579392
28.187676,5.528958295256135,0.1253711733598797
28.190068,5.5374332289506265,0.1251461883470845
28.192464,5.5479102633915325,0.1248854474351219
28.194863999999995,5.561320564138636,0.1245732013737299
28.197252,5.578083440072516,0.1241816824965775
28.199636,5.589771179326922,0.1238875591807647
28.202032,5.598665421901995,0.1236391547146852
28.20442,5.606348959663569,0.1234231687449955
28.2068,5.611890627051865,0.1232524510511128
28.2092,5.615010884813164,0.1231441760012405
28.211588,5.6173397466415445,0.1230391527247514
28.213972,5.619528838843065,0.1229430053997755
28.216368,5.622649096604364,0.1228350445991771
28.218756,5.624326332126684,0.1227246532343842
28.22114,5.625072402089229,0.1226279131033968
28.223536,5.6231647449993,0.1225589276556369
28.225924,5.622467792722866,0.1224600615681001
28.228308,5.62605458119299,0.1222775236723773
28.230708,5.630572535222889,0.1220845038267465
28.233096,5.636813050745487,0.121875415812295
28.235479999999995,5.645195436641361,0.1216245222011278
28.237876,5.659584124776485,0.1212776939812763
28.240268,5.672110481792053,0.1209550652937671
28.242652,5.682494968434345,0.1206724835861034
28.245048,5.690737584703359,0.120431878646242
28.24744,5.70084253209193,0.1201663535793614
28.24982,5.705732573174168,0.1199960237507293
28.25222,5.70876028313685,0.1198488560756266
28.254608,5.712207301980111,0.1196749386946069
28.256992,5.717935960823511,0.1194503372035091
28.259388,5.72939138265244,0.1191490056383176
28.261776,5.741638200414287,0.1188438703621399
28.26416,5.753885018176135,0.118542239984865
28.266555999999994,5.767714627803818,0.1182357548010713
28.268944,5.776049791871449,0.1180395906600903
28.271328,5.781032380752304,0.1179128771142819
28.273731999999995,5.787085904819797,0.1177670864643141
28.27612,5.7917889544469325,0.1176603966769863
28.2785,5.792627572208094,0.1176077462943817
28.280896,5.797098304409753,0.117469698348837
28.283283999999995,5.800777640678491,0.1173346352373616
28.285668,5.799381840267759,0.1172811064584755
28.288064,5.800639766909501,0.1172036620785557
28.290451999999995,5.806833060603855,0.1170550560143067
28.292836,5.816890786164183,0.1168557242965019
28.295232,5.8288108428440655,0.1166360121630534
28.297619999999995,5.846317892882621,0.1163514747121209
28.300004,5.8684807707200655,0.1160141320426222
28.3024,5.88994480042321,0.1157198159394228
28.304787999999995,5.913131391619051,0.11541739803407
28.307171999999994,5.928309579829225,0.1152339448744633
28.309568,5.943627537666258,0.1150418212930181
28.311955999999995,5.954149898077539,0.1149100975690519
28.314339999999994,5.962809927369266,0.1147992727936859
28.316736,5.977895567780823,0.1145751778022334
28.319123999999995,5.998568201551049,0.1142875183331296
28.321507999999994,6.016819425694278,0.1140559963245449
28.323904,6.0360018153972845,0.1138161537996933
28.326296,6.058908867339404,0.1135349060366003
28.328675999999994,6.0783235744678885,0.1133294223435781
28.331076,6.100252239021987,0.113112742027296
28.333464,6.122972299509004,0.112893155887785
28.335843999999994,6.144621424809382,0.1126936302586334
28.338244,6.163477053430426,0.112526516801311
28.340632,6.1803305813050535,0.1123895822217407
28.343011999999995,6.194250842873486,0.1122902476550138
28.345412,6.205517377389442,0.1122128002062247
28.3478,6.216132285599341,0.112130672813856
28.350179999999995,6.230099768996016,0.1119893696804816
28.352576,6.2411339860864965,0.1118854034247481
28.354963999999995,6.254449843177114,0.1117372343356655
28.357344,6.270978505827647,0.1115392121853393
28.359739999999995,6.292162996277071,0.1112937780492538
28.362128,6.318282853779106,0.1109888570925736
28.364512,6.341981301654145,0.1107375747915796
28.366907999999995,6.36330556173043,0.1104925792762817
28.369296,6.384117965127516,0.1102323393916409
28.371676,6.402276641472128,0.1099924373790116
28.374072,6.416710655577626,0.109788660080542
28.376459999999994,6.433286540056402,0.1095524559780534
28.378844,6.447208697482703,0.10933718437269
28.38124,6.4615501637895845,0.1090990605563498
28.383632,6.471375571924435,0.108896137525232
28.386012,6.482132145619064,0.1086850676130656
28.388411999999995,6.489024287447718,0.1085165062021367
28.3908,6.498337838903371,0.108299385922105
28.393184,6.507930929612745,0.1080671358284764
28.395579999999995,6.512588653269506,0.1078947603108261
28.397968,6.511379844313876,0.1077912823255518
28.419476,6.4069646988547975,0.1077548371816679
28.421856,6.395140981689268,0.1077242330412813
28.424256,6.380803307098125,0.1077033697233639
28.426644,6.365534466947203,0.1076908991042066
28.429024,6.3511967923560615,0.1076690412940423
28.431424,6.342725650377308,0.1075808219244344
28.433812,6.333463112465637,0.1074931927716594
28.436195999999995,6.329555250487158,0.1073250118973985
28.438592,6.321503417388987,0.1072130948107645
28.44098,6.313591353917675,0.1070931943867578
28.44336,6.308892096006279,0.1069246903128633
28.44576,6.306334708468161,0.1067230490849776
28.448148,6.306058960930177,0.1064807921593592
28.450531999999995,6.307925083765472,0.1062064458969072
28.452928,6.314214716974181,0.105859370345996
28.455316,6.32157528536953,0.1054963605332141
28.4577,6.3293551626454585,0.1051111144590081
28.460096,6.33527270880183,0.1047419027534048
28.462484,6.341609563838783,0.1043517006127541
28.464868,6.352881785928348,0.1039088521859251
28.467264,6.371231245443802,0.1033839191221643
28.469652,6.383853941973725,0.1029137869449876
28.472036,6.395685242570731,0.1024432201666903
28.474432,6.409006787234955,0.1019351632200335
28.476824,6.419814374473565,0.1014360662512628
28.479204,6.4313208098464765,0.1009050750750807
28.481604,6.442035849286469,0.100374495318832
28.483992,6.453821823913101,0.0998357374477711
28.486376,6.474826906338898,0.0991922178471486
28.488775999999994,6.495831988764695,0.0985509330389528
28.491164,6.519770337496689,0.0978872882439758
28.493548,6.549063362161875,0.0971603576368515
28.495943999999994,6.581569192386975,0.0963998927366549
28.498335999999995,6.616216892985353,0.0956215973136461
28.500716,6.654589255822844,0.094831349746235
28.503116,6.69668628089945,0.0940250711718236
28.505503999999995,6.738503766722334,0.0932362051275868
28.507888,6.782323353291636,0.0924280232989823
28.510284,6.822930134301021,0.0916606710339754
28.512671999999995,6.8568789867651,0.0909478478595731
28.515056,6.883238745124091,0.0902957433810636
28.517452,6.915604805722332,0.0895886818868386
28.519839999999995,6.949413888559548,0.0888903825981147
28.522223999999994,6.982803662516184,0.0882159299128483
28.524624,7.019638559458213,0.0875351414604037
28.527012,7.054843442706163,0.0869018597166835
28.529391999999994,7.092981592260308,0.0862498546261955
28.531788,7.126696231441038,0.0856577138764363
28.53418,7.151331532449462,0.0851521755792203
28.536559999999994,7.173173336778553,0.0846616941321703
28.538956,7.191150709241668,0.0842019738507838
28.541343999999995,7.2034938665178725,0.0838170425452504
28.543727999999994,7.208340477487606,0.0835127986100685
28.546128,7.209974282897423,0.0832445258355603
28.548516,7.204391081254491,0.0830430335414769
28.550895999999995,7.19308111662603,0.0828762702281944
28.553296,7.181771151997569,0.0827092309735797
28.555684,7.172463288115524,0.0825265745010184
28.558063999999995,7.165297294606757,0.0823215737973706
28.560464,7.159714092963826,0.0821193663791642
28.562852,7.159298575798982,0.0819094309997278
28.565236,7.157532584193783,0.0817240148099027
28.567656,7.157117067028939,0.0815156022483474
28.570044,7.1567015498640965,0.0813073369878568
28.572427999999995,7.1532129967662,0.0811248117758046
28.574828,7.148373969227943,0.0809656420307069
28.57722,7.142044697622466,0.0808361776052804
28.579604,7.1369261308304885,0.0806898266838867
28.582,7.135671995904486,0.0805201957026185
28.584392,7.14079625027007,0.0803283907595191
28.586776,7.143499095008658,0.0801690582276475
28.589175999999995,7.147412644560744,0.0799929049626326
28.591564,7.159334597098497,0.0797588404866211
28.593948,7.171116780009392,0.0795315056878698
28.596348,7.183830128480063,0.0792989631871878
28.598735999999995,7.200268139189848,0.079050690873047
28.601119999999995,7.21763731545941,0.0787995529002419
28.603516,7.234447413221533,0.0785758341345106
28.605903999999995,7.251769367662852,0.0783677890861528
28.608287999999995,7.272024588410368,0.0781427704647835
28.610688,7.284690715052795,0.0779546349505067
28.613076,7.298148237628141,0.077770193918332
28.61546,7.311186451322906,0.0776055755700478
28.61786,7.32501606095059,0.0774440497436045
28.620248,7.343269180951689,0.0772384803816143
28.622632,7.363012545020005,0.0770055666107414
28.625048,7.381173117222486,0.0767681754824117
28.62744,7.3982627542383295,0.0765407129354437
28.629819999999995,7.4152126216273135,0.0763206165605781
28.63222,7.428298057150322,0.0761226245312703
28.634608,7.446458629352804,0.0758887082392004
28.636992,7.464479431928424,0.0756614010546206
28.639392,7.476633701891655,0.0754683097764598
28.64178,7.489579367787804,0.0752782127373131
28.644164,7.503595968870591,0.0750785230725224
28.646564,7.517612569953378,0.0748806763190539
28.648956,7.531489401409305,0.0746898254399483
28.65134,7.543643671372535,0.0745003966038202
28.653748,7.555146315029708,0.0743029782624379
28.656136,7.567580124246659,0.0741043090246508
28.65852,7.587882566822416,0.0738622081059343
28.660916,7.608324779025034,0.073616393203489
28.6633,7.629837926414292,0.0733634107135544
28.665679999999995,7.651211304176687,0.0731172119618323
28.668076,7.670023502685227,0.0729083275221514
28.670464,7.684551960447212,0.0727342189805179
28.672847999999995,7.701734145261673,0.0725575954544384
28.675244,7.72105820044941,0.0723642346045215
28.677632,7.740661794890866,0.072160770107518
28.680012,7.760265389332324,0.0719576675590424
28.682407999999995,7.778006652654225,0.0717616210662571
28.684796,7.7958876856029855,0.0715603903479135
28.68718,7.816562215231081,0.0713507163250389
28.689575999999995,7.836864657806839,0.0711222398841568
28.691959999999995,7.86117130187543,0.0708736724469341
28.69434,7.882544679637827,0.070639887937866
28.69674,7.902055726280666,0.0704118779329252
28.699124,7.922917247363865,0.0701656619053593
28.701508,7.943778768447064,0.0699202133197783
28.703903999999994,7.959844692104512,0.0696942402155343
28.706292,7.969764543895848,0.0695062912318288
28.708672,7.977682294940767,0.0693297789776698
28.711068,7.98373771486613,0.0691590691817582
28.713456,7.98741894699274,0.068979221456035
28.715836,7.989237847999791,0.0688043322212995
28.718236,7.996271655313177,0.0685948429754801
28.720624,8.001582901133865,0.0683855187460743
28.723004,8.004612506954416,0.0681977629782895
28.7254,8.00442930721505,0.0680336591329226
28.727788,8.005317042662323,0.067861962441499
28.730172,8.008067109229154,0.0676861390895336
28.732568,8.011608571728901,0.0675138209195431
28.734956,8.014638177549452,0.0673279346339709
28.737336,8.016177539302785,0.0671660487922357
28.739732,8.011058972510808,0.0670254540777701
28.74212,8.004869470532192,0.06689206187037
28.744504,7.998819738180438,0.0667528866842696
28.7469,7.991419531388323,0.0666322435699464
28.749284,7.985090259782847,0.0665040261642409
28.751667999999995,7.981694254483567,0.0663638448114523
28.754068,7.982721759557702,0.0661877955240304
28.756456,7.982026703139139,0.0660102075828633
28.75884,7.979469315601019,0.0658364756987404
28.761236,7.978774259182456,0.0656583285637371
28.76362,7.977567346084696,0.0654653166151317
28.766,7.9775711378004335,0.0652608354234475
28.7684,7.978506095075952,0.065054797346485
28.770788,7.980791526791828,0.064830538787553
28.773168,7.9844274329480625,0.0645874999250456
28.775564,7.987271943171379,0.0643415751355954
28.777952,7.987602495969081,0.0640910705781354
28.780336,7.986350256900946,0.0638336305819345
28.782732,7.984818478579091,0.0635871202575113
28.78512,7.984637174697596,0.0633226035844516
28.787499999999994,7.987389137122296,0.0630468222282022
28.789896,7.993493674733771,0.0627443717353296
28.792283999999995,7.998806816412327,0.0624376111447695
28.794684,8.00174577029213,0.0621190441318982
28.79708,7.999656809320704,0.0617878507631393
28.799468,7.991608767938271,0.0614444844293351
28.801848,7.979324207637525,0.0610913351530071
28.804248,7.9638740636051075,0.0607189660066745
