Time,Force,Position
25.9776,2.6861887602233705,0.1837762631473317
25.979996,2.8324344878919296,0.183751789245674
25.982388,2.991856303024245,0.1830493073354642
25.984772,3.1617551525974696,0.1816092211805914
25.987168,3.337150343588618,0.1797396366563017
25.989556,3.5145514270419205,0.1772816901302609
25.99194,3.6779415969860425,0.1751280766382112
25.994336,3.829742263047983,0.173059128024515
25.996724,3.968742720414242,0.1711566988144446
25.999108,4.100482740615248,0.1692762727003871
26.001504,4.228919303315589,0.1673664678937775
26.003892,4.356286826687161,0.1653674398635543
26.006272,4.480303670729828,0.1633681920423033
26.008668,4.600969835443588,0.161445765126475
26.01106,4.720007882321137,0.1594967619009953
26.01344,4.842912256922529,0.157287694930027
26.01584,4.963584109209896,0.154946876844393
26.018228,5.073131092466037,0.1527491375270757
26.020608,5.163312486279805,0.1508181551376018
26.023008,5.238412031397755,0.1490179580573674
26.025396,5.298522275618502,0.1474037098175214
26.027776,5.345178788979643,0.145990058072102
26.030172,5.386015991556636,0.1447099927083223
26.032564,5.419636187080881,0.1436487252297487
26.034944,5.446271692977852,0.1428291456800832
26.211752,5.658768049159662,0.14233212543352
26.216528,5.670963853377527,0.1423235814991451
26.21892,5.681112230878602,0.1422639885861687
26.2213,5.698337845805567,0.1420620026805501
26.2237,5.724363259651115,0.141699233945868
26.226088,5.751040299802724,0.1413428756678878
26.228468,5.781581771820303,0.1409196476400472
26.230868,5.80728042458389,0.1406328232014866
26.233256,5.838426301079287,0.1402677367573763
26.235636,5.874367775000434,0.1398205304247972
26.238032,5.908307148175165,0.1394121429733944
26.24042,5.946762579521929,0.1389426068501074
26.242804,5.982424514189358,0.1385266361007974
26.2452,6.017155283297009,0.1381262715743641
26.247588,6.055098857964574,0.1376589001674108
26.249972,6.089876848900468,0.137215002268878
26.252372,6.127495558343939,0.1366847571599518
26.25476,6.1648819503619325,0.1361318515469714
26.257144,6.203106960141089,0.1355332001870234
26.25954,6.236955681375074,0.1349937800476356
26.261928,6.267499049250526,0.1344915994967755
26.264308,6.294317754886865,0.1340388052238245
26.266708,6.321415999776925,0.1335758429714955
26.269096,6.351215193547703,0.1330450716646684
26.271476,6.374915537280612,0.1325818857001748
26.273876,6.396800771722207,0.1320999288445407
26.276264,6.418453688738325,0.131595749291539
26.278648,6.441364532396182,0.1310180297883345
26.281044,6.4612495619492325,0.1304511328729996
26.283432,6.481042043703661,0.1298548502407131
26.285812,6.500974295084952,0.1292483908715328
26.288212,6.519743063480986,0.1286317301902816
26.290596,6.535066708891627,0.1280449932916841
26.29298,6.550297806503651,0.1274223477340365
26.295376,6.564225651503559,0.1267953293774325
26.297768,6.580714675757326,0.1261088936880547
26.300148,6.594410203331758,0.1254596872016473
26.302548,6.607082017547793,0.1247904533822426
26.304936,6.616448478405293,0.124143355574821
26.307316,6.623161212210321,0.123518708958378
26.309716,6.633226521202125,0.122838740632864
26.312104,6.64892604538084,0.1220532472328131
26.314488,6.661320216201023,0.1212890414123758
26.316884,6.669849955155232,0.1205787137364999
26.319276,6.6808011037364405,0.1198180349534158
26.32166,6.692962957131146,0.1190344165478127
26.324056,6.703821557913738,0.1182461693894163
26.326444,6.714819928323189,0.1174535486604353
26.328828,6.73168483134503,0.1165977450453926
26.331228,6.741752036194702,0.1158208197661868
26.333616,6.754380420298234,0.1149902164044206
26.336,6.765006703655348,0.1141880463871822
26.3384,6.78121998037113,0.1133338560463667
26.340792,6.8020890848858055,0.1124437073776006
26.343176,6.82160771496012,0.1115863620795971
26.345572,6.835771669101243,0.1108083125202272
26.34796,6.849004457682589,0.1100377097672882
26.350344,6.858465362196578,0.1093432259538184
26.352744,6.872023016002019,0.1086382197876256
26.355136,6.891307432792989,0.1078772049027933
26.357516,6.904957634397047,0.1072144555255476
26.359916,6.916698283053305,0.1066149466647076
26.362304,6.93318730730707,0.1060131481460489
26.364688,6.953773080852288,0.1054046702752087
26.367084,6.976173963688819,0.1048272786058722
26.369476,6.999970646936082,0.1043008413340374
26.37186,7.027305000967356,0.1037994150755454
26.37426,7.058177025782639,0.103321897647394
26.376648,7.081272965037732,0.1029603495337389
26.379036,7.114332186196667,0.1025348419458526
26.381436,7.148275351087136,0.1021476218959522
26.383824,7.187246430828835,0.101749961482692
26.386204,7.224727266503313,0.1013917139045789
26.388608,7.258296448483576,0.101111679554073
26.391,7.296102149382149,0.1008209562181124
26.393384,7.342800196997926,0.1004852990659602
26.39578,7.397179886517405,0.1001286574201758
26.398168,7.455516555701475,0.0997689263998314
26.567996,7.665561343148869,0.0997398484180811
26.570392,7.66639996091003,0.09970316863053
26.572792,7.672965341656721,0.0996243856075504
26.57518,7.681672592776691,0.0995206154212385
26.577564,7.689588447963741,0.0994171617106775
26.57996,7.695921511284956,0.09931273980685
26.582348,7.704815753860028,0.0991655960582802
26.584728,7.71971629867435,0.098964851685799
26.587128,7.740762915354783,0.098704888713755
26.589516,7.764230941662214,0.0984104814641914
26.591896,7.785976406476949,0.0981214154863571
26.594296,7.811865842411376,0.0977899769432381
26.59668,7.833239220173773,0.0974820968709059
26.599064,7.851447014204496,0.0971720388403242
26.60146,7.868351555623105,0.0968499669345655
26.603848,7.880740038869683,0.096552334131022
26.606228,7.896109010250697,0.0961948301492501
26.608628,7.908964024206098,0.0958439555216195
26.611016,7.920376015922523,0.095485688116531
26.6134,7.931555690213471,0.0951053334509435
26.615796,7.939569780772746,0.0947227246440892
26.618184,7.941205482040432,0.0943751171774437
26.620564,7.941258391442282,0.0940276714873818
26.622964,7.9437327104711315,0.0936458877703442
26.625352,7.947417734313478,0.0932478305202716
26.627732,7.95552626852924,0.0927984375842805
26.630132,7.962703637185222,0.0923559759844383
26.63252,7.962152142109259,0.0919674308695102
26.6349,7.959366228861402,0.0915734244330208
26.6373,7.953647049307349,0.0912009813935723
26.639688,7.953422315313347,0.0907697800690095
26.642068,7.949472919080235,0.0903575008615262
26.644464,7.948596558780176,0.0899178718040988
26.646852,7.9554490622120655,0.0894290050583711
26.649232,7.960159695270676,0.0889597608304257
26.651628,7.967012198702564,0.0884691253438037
26.654016,7.971862601388036,0.0879951312837619
26.656396,7.977644169633286,0.0875168829228759
26.658796,7.98770947862509,0.0869985631428136
26.661184,7.996703852430258,0.0864928978037636
26.663564,8.010493823661175,0.0859602001945434
26.665964,8.02656543489223,0.0854023025364911
26.668352,8.042776815750145,0.0848405839009057
26.670732,8.058057031048282,0.0842859189922072
26.673128,8.071754454480585,0.083730192811648
26.675516,8.08731420903244,0.0831715574992736
26.6779,8.10194279802452,0.0826177904926782
26.680296,8.123928163696208,0.0820038199346768
26.682688,8.140838392688424,0.0814264214068079
26.685068,8.157096995374584,0.0808411324000797
26.687468,8.16706975656777,0.0803086138085623
26.689856,8.181046719253791,0.0797500667502874
26.692236,8.19623438675331,0.0791793770950213
26.694636,8.201551320147606,0.0786669496971644
26.697024,8.210220828728678,0.078120786935665
26.699408,8.219681733242666,0.077578720657566
26.701804,8.230865199249354,0.0770367500355564
26.704192,8.244050766002458,0.0764854257280354
26.706576,8.254023527195644,0.0759629684922785
26.708972,8.262925353202192,0.0754499379068192
26.71136,8.269173452156267,0.0749430635166153
26.71374,8.275793638162678,0.0744566127109363
26.716136,8.28213428491537,0.0739819400960942
26.718524,8.287264226854562,0.0735213885891378
26.720908,8.291835090286312,0.0730821653334415
26.723304,8.290259881851954,0.0726823248228756
26.725692,8.289476069350513,0.0722849891222436
26.728072,8.2836171201696,0.071918408306381
26.730472,8.28013235878744,0.0715578613138847
26.73286,8.278230389271117,0.0712021584272513
26.735244,8.279913312367048,0.0708405791509089
26.73764,8.2794543650897,0.0704954973381071
26.740032,8.277644943371996,0.0701698085674359
26.742412,8.284355781319155,0.0698150430633658
26.744812,8.291298936691792,0.0694854778645495
26.7472,8.295960452064293,0.0691772436906201
26.749584,8.298480097063514,0.0688849255560803
26.75198,8.294713900569764,0.0686331200900083
26.754368,8.293461661501631,0.0683851902766586
26.756752,8.29551477579203,0.0681444895888915
26.759152,8.300593704187241,0.0679218185447854
26.76154,8.303530762209174,0.0677143454215861
26.76392,8.309261316910442,0.0675013463204666
26.766328,8.316714433104408,0.0672895762960464
26.76872,8.32495894523129,0.0670808413029165
26.771104,8.338650681089982,0.0668647856106024
26.7735,8.352994043254734,0.0666577270349478
26.775892,8.36971159321824,0.0664603009134332
26.778272,8.390293575047718,0.0662504459181497
26.780672,8.41446044948945,0.0660396097484435
26.78306,8.438487554304322,0.0658349941523318
26.785444,8.463026515798388,0.0656439883186465
26.78784,8.487146168411877,0.0654688236199963
26.790232,8.50712184990567,0.0653175914500457
26.792612,8.527237301026329,0.0651621409072461
26.795024,8.55014624882632,0.065001565427724
26.797412,8.575708923678782,0.0648411785229301
26.799792,8.607138131143635,0.0646594376374898
26.802188,8.634283597861938,0.0645053534723299
26.804576,8.657564632714266,0.0643643010196562
26.806956,8.672837264580924,0.0642575743226851
26.809352,8.687830357193864,0.0641606812074938
26.811744,8.697468773873611,0.0640985599307792
26.835628,8.708829752046054,0.064036943416973
26.838024,8.709900687232691,0.0640303144460623
26.840412,8.710040456859552,0.0640253941718202
26.84758,8.703289980515628,0.0640138709202211
26.849964,8.703988828649928,0.0639895492475821
26.85236,8.70389628085131,0.0639618802230899
26.854748,8.711160509732302,0.0638934425269419
26.857132,8.718704277867017,0.0638150191828879
26.859528,8.730811326002003,0.0637008272731947
26.861916,8.735608819285625,0.0635947695770873
26.8643,8.740965391076687,0.0634695018753649
26.8667,8.746741271748329,0.0633297425117367
26.869088,8.75931485059214,0.0631692703288918
26.871468,8.776591479063086,0.0629697157529249
26.873868,8.797872309026866,0.0627546068937136
26.876256,8.825438980483616,0.0625056080599098
26.878636,8.855938918246562,0.0622480902443398
26.881032,8.880851862650838,0.0620009612041563
26.88342,8.902179914442861,0.0617553855206099
26.8858,8.918060742503075,0.0615157324604134
26.8882,8.933941570563288,0.0612765716522305
26.890588,8.945957966757526,0.0610482671582071
26.892968,8.95760227589943,0.0608017559274595
26.895368,8.97194753392205,0.0605251035080433
26.897752,8.982568129705555,0.0602548990423359
26.900136,8.99519082623548,0.0599770984744324
26.902532,9.00930376683262,0.0596818167475493
26.90492,9.024767181870123,0.0593714594597518
26.9073,9.032501733175678,0.0590792633713041
26.909696,9.045031881906986,0.058776111614437
26.912084,9.056119008399316,0.0584619915758676
26.914468,9.062550307092756,0.0581521895777385
26.916864,9.06767835317408,0.0578275647941209
26.919252,9.0620044995904,0.0575321895276262
26.921636,9.053816688581104,0.0572306827619486
26.924032,9.044046085705974,0.0569222809728626
26.92642,9.029619655031954,0.0566180212358613
26.928804,9.015332993984792,0.056307721696603
26.9312,9.00146564181821,0.0559818911761057
26.933588,8.983594088158796,0.0556667007660539
26.935972,8.964139742633545,0.0553427481845456
26.938368,8.942823065988739,0.055018203342064
26.94076,8.923089181209768,0.0547006217668795
26.94314,8.893856649377911,0.0544260641809762
