Time,Force,Position
29.640888,8.566697439643471,0.1441964664387981
29.643276,8.56176396844873,0.1441653161876031
29.645656,8.557110036507707,0.1441218299201527
29.648056,8.560464507552352,0.1439728521584299
29.650444,8.56395874822386,0.1438168871508296
29.652824000000003,8.567173449641642,0.1436726287136463
29.655224,8.571039777365485,0.1435292718325284
29.657612,8.576396349156548,0.1433488856260519
29.659992000000003,8.581241064268411,0.1431591478882094
29.662388,8.589158815313333,0.1429229108725961
29.664776000000003,8.595446552664173,0.1427294071933084
29.667160000000003,8.597450549268457,0.1426046636693557
29.669556,8.601828733671498,0.1424679584311292
29.671944000000003,8.602062946954844,0.1423931235096768
29.681492,8.589914364565221,0.1423698568600714
29.683892,8.591963687139883,0.1423096755338556
29.686280000000004,8.59373347046082,0.1422621464029174
29.68866,8.598296750461094,0.14218507020959
29.69106,8.605373987886983,0.1420914658754857
29.693448000000004,8.618038218671543,0.141939518278191
29.695828,8.62427683833627,0.1418835279352379
29.698228,8.635171285799888,0.14177922379531
29.700616000000004,8.648998999569704,0.1416392678498776
29.703000000000003,8.669624411511688,0.1414193302155716
29.705396,8.693694946439066,0.1411730767364516
29.707784000000004,8.724143870658027,0.1408675910152927
29.710164,8.759528161929605,0.1405045865283838
29.712564,8.798265028387956,0.1400894623224031
29.714952000000004,8.840866326712282,0.1396296096772644
29.717332,8.88132575466333,0.1392038783545688
29.719732,8.924578679293713,0.1387505050116765
29.72212,8.964246711311842,0.1383288026523065
29.7245,9.00712754888989,0.1378636956070085
29.726896000000004,9.049077220908154,0.1374132784196168
29.729284,9.09423969848634,0.1369183408717887
29.731668,9.133675413078992,0.136488922877242
29.734064000000004,9.175532537298643,0.1360217410786297
29.736456,9.21245429446568,0.1356143002091296
29.738836,9.24485999346069,0.1352486521136642
29.741232000000004,9.271818468723888,0.1349329261381971
29.743624,9.304131619920277,0.1345445325488751
29.746004,9.332580339250695,0.1341990313260987
29.748400000000004,9.361448367461689,0.1338381983154985
29.750788,9.38845406455313,0.1334989906749027
29.753172,9.412666264965235,0.133186349468526
29.755568000000004,9.433014033511368,0.1329169297861626
29.75796,9.452430636497724,0.1326596924256923
29.76034,9.473989109857357,0.1323782930347372
29.762756000000003,9.493825021724287,0.1321088864168929
29.765144,9.513428616165744,0.1318206355815669
29.767524,9.533311749860925,0.1315234948505599
29.76992,9.556128149862294,0.1311961627695091
29.772308,9.57200708206464,0.1309419672054028
29.774692,9.586163452774288,0.130699593339157
29.777088,9.5975263268046,0.130482146557977
29.779476000000003,9.611170840835053,0.1302325527152313
29.78186,9.620811153372667,0.1300268564838739
29.784256,9.629660069977364,0.1298227752368467
29.786644000000003,9.63878852583578,0.1296075190572623
29.789028,9.65215350061251,0.129369063451006
29.791424,9.65937240352313,0.1292005712244453
29.793816,9.670595507926585,0.1289900170081148
29.796196,9.684612109009368,0.1287580252413142
29.798596000000003,9.6967663789726,0.1285424922892594
29.800980000000003,9.70784971374919,0.1283391850303733
29.80336,9.71641909110017,0.1281484433896785
29.805756,9.720332640652256,0.1279972080582017
29.808144,9.715958247964956,0.1279406497923591
29.810528,9.712654790464292,0.1278709344366048
29.812924,9.708280397776988,0.1278142464774624
29.815312,9.701112508410352,0.1277805666171963
29.817692,9.697297194230492,0.1277025075729959
29.820088,9.699488182289882,0.127562737602051
29.822476,9.700608235162637,0.1274358515049137
29.82486,9.703450849528082,0.1272992298429591
29.827256,9.705222528706887,0.1271757928756355
29.829644,9.708996308632114,0.1270320937013453
29.832024,9.716122663744112,0.1268445966560172
29.834424,9.72590274590859,0.1266405947165672
29.836812,9.73545051064759,0.1264191746616659
29.839192,9.752075512812477,0.1261257006591191
29.841588,9.762833982364976,0.125887034367767
29.843976,9.768657084864865,0.1256964572872327
29.84636,9.77382856105869,0.1255026680155619
29.848756,9.786356813932128,0.1252281243404288
29.851144,9.79953669311162,0.1249559749760147
29.853528,9.813088659343457,0.1246964891012895
29.855924,9.830924366321842,0.1243852260239343
29.858312,9.849831008486866,0.1240634391693625
29.860696,9.867387176211531,0.1237635471134637
29.863092,9.886805675055756,0.1234496704877677
29.86548,9.89872762759351,0.1232240299066841
29.867856000000003,9.910789349758124,0.1229948487265515
29.870272,9.923922007109375,0.1227532965565402
29.872656,9.934261167781292,0.1225330489309594
29.875036,9.94352939326657,0.1223251314575941
29.877432,9.953868553938486,0.1221061321114918
29.87982,9.964859340916462,0.1218918269788777
29.8822,9.97277709196138,0.12170918888474
29.884596,9.973617605580412,0.1215956666329488
29.886984,9.968591586587053,0.1215343169714671
29.889364,9.969851409086662,0.1214057623819239
29.89176,9.970971461959412,0.1212821303784441
29.894152,9.973674306698,0.1211551027098651
29.896532,9.970510618824196,0.1210798936731708
29.898944,9.971770441323809,0.1209522913187305
29.901332000000004,9.976941917517635,0.1207640921921277
29.903712,9.985977825577438,0.1205453951308133
29.906128,9.990078366584626,0.1203699706678271
29.908512,10.000464749084788,0.1201303522668114
29.910896,10.005915764532336,0.1199331897292089
29.913292,10.0157902903533,0.1196838056269818
29.91568,10.02086921874851,0.1194726700321571
29.91806,10.0268793127035,0.1192554071906974
29.920456,10.03689360815132,0.1190020708492183
29.922844,10.045836968412504,0.1187595682890726
29.925224,10.049705191994216,0.118565112236718
29.927624,10.049569214083094,0.1184071379964683
29.930008,10.053577207291667,0.1182082793324412
29.932392,10.065593603485906,0.1179367371433306
29.934788,10.0806830356132,0.1176355775363261
29.937172,10.09228012292686,0.1173806590314743
29.939556000000003,10.106298619867516,0.1170931439371351
29.941968000000003,10.119805260128974,0.1167978968195285
29.944356,10.133172130763572,0.1165074885555439
29.946752000000004,10.14132409509184,0.1162698158028243
29.949148,10.146263253860193,0.1160668693428
29.951536,10.144824023336954,0.1159031669493951
29.953920000000004,10.146597598373631,0.1157054713713642
29.956316,10.144786280798057,0.115528503909536
29.958704,10.15126290546187,0.1152731132761071
29.961084,10.157087903819626,0.1150147503697087
29.963488,10.167988038856851,0.1147116298222855
29.965876,10.17809677796116,0.1144104179401231
29.968256000000004,10.189276452252107,0.11410070956018
29.970652,10.207021507289744,0.1137232702144956
29.97304,10.227327741581243,0.1133086543145312
29.97542,10.253268191059652,0.1128324476665954
29.977816,10.275623747925806,0.1123769939030406
29.980204,10.291041836992932,0.1119766452852392
29.982584000000003,10.304737364567362,0.1115838008317939
29.984984,10.31526730841012,0.1111933202429194
29.987372,10.321932820386907,0.1108304464353504
29.989752000000003,10.326736001244134,0.1104788806577149
29.992152,10.334751987661278,0.1100967406968893
29.994536000000004,10.34411844851878,0.1096937350034663
29.996920000000003,10.3542763053092,0.1092899895369757
29.999316,10.36508578840568,0.1088887703201333
30.001704000000004,10.37361363150202,0.1085130937148561
30.004084,10.37678679866517,0.1081886643565955
30.006480000000003,10.375024598775706,0.107903416770399
30.008868,10.370980758886107,0.1076435526685583
30.011264,10.364515509369507,0.1074145464848487
30.01366,10.356187928733354,0.1071962260858719
30.016048,10.343064750671443,0.1070101398270907
30.018432,10.325518062236126,0.1068695413777341
30.020828,10.307552064920223,0.1067427697676291
30.023216,10.283300226111352,0.1066711780695123
30.025596,10.257697912862122,0.10661891340544
30.027992,10.23917283703878,0.1065098217150282
30.03038,10.221439157148357,0.1063997174166185
30.032764,10.21129457136302,0.1062423782888673
30.03516,10.205805813376571,0.1060587255139489
30.037548,10.20483311356216,0.1058540942036529
30.039928000000003,10.198645507441412,0.1056941183847551
30.042324,10.194320232440225,0.1055238689343843
30.044712,10.188924022252392,0.1053633286867359
30.047092,10.184598747251204,0.1051925752525264
30.049492,10.184557212996566,0.1049826170727653
30.051876,10.1925240817276,0.1047128266606825
30.054276,10.20007164157805,0.1044570473692976
30.056668,10.207479431801644,0.1042051515525786
30.059056,10.214235595719176,0.1039488441568768
30.06144,10.224856191502685,0.1036680505210197
30.063836,10.23519724803247,0.1033958934622712
30.066224,10.2436759734427,0.1031336129987366
30.068608,10.253085864412707,0.1028662975439893
30.071004,10.268222518368246,0.1025644292159415
30.073392,10.284709646764144,0.1022427295924984
30.075776,10.293188372174372,0.1019802718100957
30.078172,10.301667097584602,0.1017182677882382
30.08056,10.304930916688498,0.1015011596199539
30.082944,10.303259368739782,0.1013180809534697
30.08534,10.29572128817868,0.1011739141180395
30.087728,10.291256243550633,0.1010052088126548
30.090108,10.285580494109082,0.100850970793211
30.092504,10.281394988734752,0.1006728438476408
30.094892,10.27879227522626,0.1004945285998515
30.097276,10.27404769134449,0.1003355457577559
30.099672,10.264367740410108,0.100209703178671
30.10206,10.255898494289225,0.1000695908513362
30.104444,10.252783924101532,0.0998826877669542
30.106844,10.250600519473618,0.0996910421009202
30.109232,10.245344078912652,0.0995228246303511
30.111612,10.244371379098238,0.0993176451821688
30.114012,10.244469614470464,0.0991027904916634
30.1164,10.246849489842823,0.0988655284553338
30.118784,10.244293998162576,0.0986604861298337
30.121184,10.242529902415244,0.0984555240737051
30.123572000000003,10.250636540773137,0.0981876007576408
30.125952,10.25646153913089,0.0979421465216255
30.128348000000003,10.262426307115506,0.097691745867542
30.130736,10.272535046219817,0.0974094064332496
30.13312,10.287579152376738,0.0970955792352402
30.135516000000003,10.303414654466575,0.0967828538351753
30.137904,10.318318990996636,0.0964746415047518
30.140284,10.332664249019256,0.0961855476248261
30.14268,10.347428815922456,0.0958838054844708
30.145064,10.362193382825655,0.0955827007328901
30.147448,10.38189331678147,0.0952520031515345
30.149844,10.400662085177505,0.0949259770779605
30.152232,10.415147112826984,0.094636759118389
30.154612,10.427490270103188,0.0943648416053673
30.157012,10.44304623293931,0.0940677195664957
30.159396,10.453387289469095,0.0938098007197939
30.161792,10.467732547491714,0.093527655965522
30.164192,10.476723129581142,0.0932886905097927
30.166580000000003,10.487855582043846,0.0930323194345316
30.16896,10.49777732969305,0.0927891235671641
30.17136,10.501692775103004,0.0925849340502227
30.173748000000003,10.508309169393678,0.0923456273723888
30.176128,10.514134167751433,0.0921053715443949
30.178524000000003,10.52009893573605,0.0918616079339885
30.180912,10.523270207041328,0.09163009305869
30.183296,10.52592962166741,0.0913895482009137
30.185692000000003,10.529520201853272,0.0911451162384626
30.18808,10.531527990173297,0.0908991367979604
30.19046,10.531673447373764,0.0906610805666947
30.192864,10.530887739014451,0.0904267823880801
30.195252000000004,10.52530643322939,0.0902160158780561
30.197632,10.521587458563886,0.0899978558395229
30.200032,10.515866383151964,0.0897909143797285
30.202420000000004,10.512566717367038,0.0895584225956497
30.2048,10.501910274902505,0.0893781771165785
30.207196000000003,10.496328969117444,0.0891658379087617
30.209584,10.483390886652767,0.0890059094097399
30.211964,10.47687841530793,0.088797103924214
30.214364000000003,10.468363843216672,0.0885997265719028
30.216752,10.46320184631219,0.0883738042946308
30.219132,10.45817961903457,0.0881431066424179
30.221528,10.454460644369066,0.0879234708900566
30.223916000000003,10.45646843268909,0.087678784385141
30.226296,10.456194581008978,0.0874545757022652
30.228696,10.454849794142229,0.0872378125777647
30.23108,10.454016863954672,0.0870311572089195
30.23346,10.456396739327037,0.0868018750726305
30.235868000000004,10.463711981752008,0.0865475955168857
30.238252000000003,10.469676749736625,0.0863093717074339
30.240636,10.478295244773712,0.0860660349530289
30.243036000000004,10.486634200557084,0.0858307555080422
30.245424,10.492971055594037,0.0856068025125693
30.247804,10.50438304731046,0.0853533094166421
30.250204000000004,10.513373629399888,0.0851238389078338
30.252588000000003,10.528650052982286,0.0848519387160443
30.254972,10.541924375818269,0.0845921926486188
30.257372000000004,10.560553374587442,0.0842936974658404
30.25976,10.575829798169842,0.084024158881811
30.262144,10.594179257685294,0.083736647237496
30.264540000000004,10.60917614201397,0.0834769765173147
30.266928,10.625104191902423,0.0832144693730576
30.269308,10.639169910671322,0.082959137953949
30.271708,10.646437931268052,0.0827347891885977
30.274096,10.6544973477977,0.0825116468577148
30.276476,10.66749213137996,0.0822652880414364
30.278872,10.67955574940244,0.0820225402025869
30.281260000000003,10.684402360372172,0.0818224285590275
30.28364,10.683894295408711,0.081659017174266
30.286036000000003,10.68552810081853,0.0814808931503672
30.288424,10.683577013616093,0.0813104160480644
30.290808,10.684978501600431,0.0811139887649359
30.293204000000003,10.686379989584768,0.0809173355501441
30.295592,10.684708441636053,0.080738258830139
30.297988000000004,10.687972260739947,0.0805365338080373
30.300384,10.688302813537648,0.0803476941146781
30.302772,10.68756243114871,0.0801659060143652
30.305156000000004,10.685751113573131,0.0799914616748248
30.307552,10.683148400064638,0.0798154817638053
30.30994,10.678403816182866,0.0796535633473166
30.312324,10.677011807487872,0.0794667006807607
30.31472,10.675480029166016,0.0792841548482753
30.317108,10.671154754164828,0.0791093242193799
30.319492,10.670693911029614,0.0789192367722933
30.321888,10.671723311961616,0.0787098993996639
30.324276,10.667677576214148,0.0785267363683664
30.32666,10.6621888182277,0.0783359311383336
30.329056,10.661914966547588,0.0781147121448702
30.331444,10.661269027815136,0.0778783207028773
30.333828,10.66341658576202,0.0776349509178049
30.336224,10.66835764038824,0.0773838984944038
30.338612,10.672087990200962,0.0771444320334985
30.340996,10.67688927520032,0.0768982598684456
30.343392,10.68262172575946,0.0766495599699156
30.345784,10.684769283706345,0.076407394874144
30.348164,10.690641503892344,0.0761556872346232
30.350564,10.69772442889184,0.0758933027190487
30.352952,10.70266548351806,0.0756438755161061
30.355336,10.70639583333078,0.0754047598039116
30.357732,10.713338988703416,0.075146502380165
30.36012,10.71520700739658,0.074912746751713
30.362504,10.715352464597048,0.0746792864975209
30.3649,10.71950212329035,0.0744279254960252
30.367288,10.723791551610514,0.0741732020557905
30.369668,10.72486817437076,0.073937886045741
30.372064,10.729576911571504,0.0736709956850764
30.374456,10.73465773582458,0.0734180881395405
30.376836,10.738155768211824,0.0731618090439378
30.379232,10.748171959517515,0.0728909947692214
30.38162,10.752601157464538,0.0726334620243545
30.384,10.754236858732224,0.0723823558228322
30.386396,10.75573279037305,0.0721355627485227
30.388784,10.759370592387157,0.0718771763985506
30.391164000000003,10.76435886884162,0.071605044791937
30.393564,10.768276210109445,0.0713386705882072
30.395948,10.77126238581749,0.0710752839403057
30.398332000000003,10.773969022271816,0.0708203110460493
30.400728,10.782961500219113,0.0705342349165553
30.403116,10.792093747793269,0.0702432530370099
30.405496,10.79801318980751,0.069970916736018
30.407892,10.808728229247505,0.0696851341941072
30.41028,10.82209699573997,0.0693979086863904
30.412664,10.836257158165354,0.0691142953533882
30.41506,10.848275450217466,0.0688429081110955
30.417448,10.865229109322186,0.0685552500528615
30.419844,10.879342049919329,0.0682999162885456
30.422244,10.89466569532997,0.0680349002756998
30.424632000000003,10.911152823725867,0.0677870901822119
30.427016,10.920050858016678,0.0675575343956773
30.429412,10.93174238898682,0.0673226599822407
30.431800000000003,10.946227416636304,0.0670829968502726
30.434184,10.958850113166228,0.0668465371252069
30.43658,10.96625790338982,0.06663452138233
30.438968000000003,10.972594758426771,0.0664287773813281
30.441352,10.983727210889478,0.066211705367009
30.443748,10.995139202605902,0.0659876535280668
30.446136000000003,11.008832834322464,0.0657496274123184
30.448516,11.017451329359556,0.0655321279366056
30.450912,11.02821169476992,0.0653038142046398
30.4533,11.039111829807148,0.0650714912901675
30.45568,11.047078698538176,0.0648479177527388
30.458076,11.054533710590013,0.0646145994585108
30.460464,11.056401729283175,0.0643894853890199
30.462848,11.057338582416564,0.06416530597348
30.465244,11.054411003683976,0.0639510034147916
30.467632,11.05190273383197,0.0637246688475249
30.470016,11.048463298420184,0.0634995820425967
30.472416000000003,11.045443171888978,0.0632632638724877
30.474804,11.044797233156528,0.0630338600540345
30.477188,11.046013625543637,0.062802458696053
30.479584000000003,11.043225816437907,0.0625836450730625
30.481968,11.045373374384791,0.0623511428936882
30.484352,11.050454198637873,0.0621105469163963
30.486748,11.05632641882387,0.0618731745628423
30.489136,11.057263271957256,0.0616500082488136
30.49152,11.054847549903869,0.0614458466922837
30.493916,11.046425525611228,0.0612599725505728
30.496304,11.036001400572168,0.0610796305124286
30.498688,11.025297736279391,0.0609069613317437
30.501084,11.016596172733031,0.0607281272317149
30.503472,11.011247184373447,0.0605307433359127
30.505852,11.008551923066335,0.0603346534077106
30.508252,11.011443655117898,0.0601322524120277
30.51064,11.015406322356094,0.0599246605413402
30.51302,11.016295953661237,0.0597270458797581
30.51542,11.018396289779878,0.0595208059694171
30.517808,11.022498726644937,0.0593090548700673
30.520192,11.022457192390302,0.0591124341593007
30.522588,11.025768233322442,0.0588979470921225
30.524976,11.0293588135083,0.0586768548471239
30.527356,11.03709336481386,0.058440616660669
30.529756,11.0411032538803,0.0582086166714556
30.532144,11.047394782946878,0.0579642828559105
30.534524,11.0506132760804,0.0577299616482639
30.536924,11.05676503552012,0.0574894741988768
30.539308,11.064127499773338,0.0572401881792584
30.541692,11.072141590332617,0.0569963655185344
30.544088,11.083088947198084,0.0567460504623703
30.546476,11.096317944063694,0.0564837161983323
30.54886,11.106473904996244,0.0562314423721596
30.551256,11.109273089249186,0.0560067933445196
30.553644,11.109139007195934,0.0557888334834911
30.556028,11.105280262903568,0.0555736885251784
30.558424,11.103563388984478,0.0553498117450219
30.560812,11.109854918051056,0.0551059995817631
30.563196,11.116658303796834,0.0548734727948215
30.565592,11.121180049542474,0.0546536632234297
30.567984000000003,11.13305857196772,0.0544079738255533
30.570364,11.142143597713634,0.0541646477428734
30.572764,11.14308045084702,0.0539436687364985
30.575152000000003,11.142154972860853,0.0537239107215557
30.577532,11.14108972524782,0.0535077006744581
30.579932,11.136951441701733,0.0533006421736202
30.582320000000003,11.133092697409367,0.0530854613786812
30.5847,11.129373722743862,0.0528670068442681
30.587096000000003,11.125794517705216,0.0526445657813193
30.589484,11.127569988599763,0.0524015327189764
30.591868,11.12827452430767,0.0521625595854666
