Time,Force,Position
28.428424,6.206852112958964,0.1637693832753719
28.430804,6.205084225495893,0.1637109350695948
28.4332,6.209462409898935,0.1635204400223735
28.435592,6.214631990234893,0.1633222784245132
28.437972,6.225807872810102,0.1629992814667425
28.440372000000004,6.241499813557342,0.1626004436245807
28.44276,6.257191754304583,0.1622022186573403
28.44514,6.270602055051686,0.1618615245145253
28.447540000000004,6.285362830239148,0.1614787781975016
28.449928,6.307433160277977,0.1609743376305632
28.452312,6.330434655876584,0.160449347183042
28.454708000000004,6.360605936699697,0.1598092560440021
28.457100000000004,6.39063744789595,0.1591752490995914
28.45948,6.421739894278842,0.1585143009429062
28.461876000000004,6.443623232862566,0.1580533720107395
28.464264,6.463364701073015,0.1576465666344774
28.466644,6.478962198163769,0.1573358833995922
28.469044000000004,6.492697364134966,0.1570584701863029
28.471432,6.502568098240189,0.156860363337746
28.473812,6.509086257158638,0.1567468161786383
28.476208,6.511879753837974,0.1566984396405771
28.48098,6.517419525368399,0.1566482195802923
28.485768,6.524681858391522,0.156577309098081
28.488148,6.527987211750055,0.1565415671869305
28.490548000000004,6.530873256228007,0.1565313918299484
28.497712,6.54097441190084,0.1564948932917275
28.50248,6.549632545334696,0.1564662548064201
28.504896,6.556755108730959,0.1564083049284377
28.507284,6.564669068060139,0.156344289547645
28.509660000000004,6.583664466308044,0.1560670613800671
28.512076,6.601868468623029,0.1557952397586132
28.514464000000004,6.619001535751377,0.1555436300998308
28.516844,6.635203437319946,0.155304943112152
28.519260000000003,6.6481925333286,0.1551363231485563
28.521644,6.664394434897168,0.154897121206104
28.524024,6.68446076833171,0.1545907901072439
28.52642,6.703456166579614,0.1543117902194737
28.528808,6.723382730387296,0.1540181215351634
28.531204,6.738885783821563,0.1538283861728109
28.5336,6.756390938002248,0.1536001799234336
28.535984,6.7726853873694335,0.1534056654460605
28.538368,6.792332411923396,0.1531367563678086
28.540768,6.817054573156829,0.1527769653746899
28.543156000000003,6.841776734390264,0.1524184476163161
28.545536,6.868780535623835,0.1520089837207103
28.547932000000003,6.889778034618156,0.1517116940723415
28.55032,6.910915303239337,0.1514060671791568
28.552704,6.929259075181183,0.1511460632583793
28.555108000000004,6.950396343802364,0.150848684146458
28.557496,6.96874011574421,0.150598045006896
28.559876000000003,6.990808549925169,0.1502956992482174
28.562272,7.020093991158878,0.1498652394089955
28.564660000000003,7.055897591311034,0.1493464019179898
28.56704,7.0969160977695225,0.1487326140465578
28.569436000000003,7.136863669041374,0.1481446691275603
28.571824,7.171875873260612,0.1476382061854272
28.574204,7.201301084121181,0.1472062487812192
28.5766,7.231005834235472,0.146761194395107
28.578988000000003,7.262061058790119,0.1462810452226889
28.581372,7.294466757785127,0.1457692474398421
28.583768,7.325010125660578,0.1452830607503263
28.586156000000003,7.353551392789611,0.1448355287959133
28.588536,7.374735883239034,0.1445237037395541
28.590936,7.392987107382265,0.1442554663934097
28.59332,7.412449036338992,0.1439642124508577
28.595704,7.434052835668995,0.1436328098995013
28.5981,7.457658735745418,0.1432712130952707
28.600488,7.480333470262061,0.1429227518421237
28.602868,7.499423312166451,0.142619045734232
28.605284,7.516231514070704,0.1423630690144794
28.607672,7.529315053735844,0.1421562467876345
28.610052000000003,7.536252521534872,0.1420516621411946
28.612448,7.53867393116187,0.1419995597656576
28.614836000000004,7.538022304855811,0.1419968315329149
28.617216,7.537510448176613,0.1419869604211603
28.619624,7.542073728176888,0.1418984451182648
28.622008,7.551712144856635,0.1417303272422074
28.624392,7.56256126634988,0.1415381353883509
28.626788,7.573410387843126,0.1413470106455106
28.629172000000004,7.585190674896149,0.1411472206694907
28.631556000000003,7.602977264188423,0.1408624510860386
28.633952,7.619692918294059,0.1405964372618677
28.636336,7.639109521280414,0.1402653655939984
28.63872,7.66388080019996,0.139845261890241
28.641116000000004,7.685439273559592,0.1394821545035667
28.643504,7.706206350986305,0.1391240108322251
28.645884,7.723108996547044,0.1388164654355172
28.64828,7.737357915055307,0.1385331335472669
28.650668000000003,7.748533797630517,0.138295075894692
28.653052,7.760128989086306,0.1380362863713511
28.655448,7.772934885355595,0.1377524021186666
28.657836000000003,7.786951486438382,0.1374430190280731
28.660216,7.800968087521169,0.1371340027699637
28.662616,7.816195393417455,0.1368010596085143
28.665004000000003,7.831422699313741,0.1364697447902216
28.667384,7.841574868530555,0.1362141916675506
28.669780000000003,7.85051633293387,0.1359839483120392
28.693676000000004,7.794799439979112,0.1358678934867241
28.696060000000003,7.7948938836355985,0.1357941299392727
28.698456,7.798201132852,0.1356687604596866
28.700844000000004,7.80229977800132,0.1355401851782036
28.703228000000003,7.809191919829974,0.135381890238994
28.705624,7.81622383128549,0.1352171514673814
28.708008,7.824186908300783,0.1350427563467358
28.710392,7.827866244569523,0.1349352343038122
28.712788000000003,7.829683249718705,0.1348480979357793
28.715172000000003,7.83671516117422,0.1346838914923253
28.717552,7.846028712629872,0.1344804686078441
28.719952,7.854550868152606,0.1342792695417504
28.722340000000003,7.866006289981533,0.1340416079135039
28.724736,7.880255208489799,0.133772202142359
28.727136,7.895435292557841,0.1334921128590811
28.729524,7.907682110319687,0.133249876056729
28.731904,7.916995661775339,0.1330442917986957
28.734304,7.925098508417493,0.1328622050158796
28.736692,7.940418362112396,0.1325752254169583
28.739072,7.956669381367076,0.1322778849504879
28.741472,7.965982932822729,0.1320727346397811
28.74386,7.967567620546434,0.1319623354925397
28.74624,7.9680813730835025,0.1318686222521665
28.755804,7.947506974685499,0.1318508136436142
28.758192,7.945739087222428,0.1317973223789304
28.76536,7.935592605579222,0.13172885049994
28.767740000000003,7.933545178862432,0.1316886517940919
28.77014,7.930706356212723,0.1316515725494521
28.772528,7.929218008003374,0.131585220783011
28.774908000000003,7.9250759327415485,0.131541075382106
28.777308,7.920002691919946,0.1315066465468903
28.779696,7.917350860725341,0.1314262400959348
28.78208,7.914978568784454,0.1313324378905453
28.784476,7.909113932029931,0.1313008626221128
28.786864,7.90338906490227,0.1312625722870568
28.789244000000004,7.900457694453944,0.1311952066142785
28.79164,7.903392856618009,0.1310564072315031
28.794028,7.909261285088267,0.130882410777069
28.796412000000004,7.921415555051498,0.1306176617475111
28.798808,7.927843062029199,0.1304160307146048
28.8012,7.93347917307398,0.1302178950855182
28.803580000000004,7.936321787439427,0.1300482890638277
28.80598,7.939164401804874,0.1298793666872785
28.808368,7.939213519490987,0.1297393463884044
28.810748000000004,7.940193802736878,0.1295894620258025
28.813144,7.941965481915687,0.1294367512654968
28.815532,7.942526456280996,0.1293075277861164
28.817912,7.941085329899888,0.1292040230559111
28.820312,7.938433498705283,0.1291232270646255
28.822696,7.93964609937665,0.1289977610920113
28.82508,7.944071505607931,0.1288240712513491
28.827476,7.9532925092649664,0.1285990448494946
28.829864,7.965307009601337,0.1283470650501774
28.832248,7.9796031499378435,0.1280582535061492
28.834644,7.99483045583413,0.1277614422424707
28.837032,8.011268466543914,0.1274434937226398
28.839416,8.025844146134142,0.1271464792302601
28.841812,8.039488660164592,0.1268605253221272
28.8442,8.049128972702208,0.1266240855789138
28.846580000000003,8.064775587479076,0.1263137965155491
28.84898,8.081632907069443,0.1259831907721779
28.851368,8.104077220018478,0.1255999552952983
28.853764,8.12838386408707,0.1252029267014462
28.856160000000003,8.155484004834996,0.1247794916787762
28.858548,8.183934620023281,0.1243300780059013
28.860928,8.208660572972455,0.1239139640872427
28.863324,8.230453259615432,0.1235298986740392
28.865712,8.25224594625841,0.1231449584412204
28.868092,8.27189676252811,0.1227889461891225
28.870492,8.29154757879781,0.1224350221568807
28.87288,8.308125359134454,0.1221200641242988
28.87526,8.317486132418349,0.1218988873470261
28.877656,8.32363410014233,0.1217226864460582
28.880044,8.324846700813698,0.1216017557844946
28.882428,8.326059301485067,0.12148124365942
28.884832000000003,8.328203067716213,0.1213528947392497
28.88722,8.326482402081387,0.1212642023766791
28.889604,8.3234112620062,0.1212026267093445
28.892000000000003,8.32248199230429,0.1211118836401635
28.894388,8.325556924095215,0.1209766945843826
28.896768,8.328352316632419,0.1208542894438283
28.899164,8.33235841398312,0.1207131071237702
28.901552,8.33263984909471,0.1206041060938182
28.903936,8.334131989019799,0.1204757408860286
28.906336000000003,8.33362202819847,0.1203690696652612
28.908724,8.34140000961653,0.1201653820653181
28.911108,8.352251026967645,0.1199265438524172
28.913504000000003,8.36310204431876,0.1196872154326155
28.915892,8.380378672789707,0.1193673722886176
28.918272,8.396584366074013,0.11906212112569
28.920672000000003,8.416654491224296,0.1187210127496565
28.92306,8.439146026001573,0.1183401275807578
28.92544,8.46405897040585,0.1179206476314866
28.927840000000003,8.490974015556542,0.117477325890166
28.930228,8.516818125520597,0.1170491306086743
28.932608,8.5378666380589,0.1166650983273629
28.935008000000003,8.562500043209454,0.1162554253480649
28.937396,8.58769252686745,0.1158223200858259
28.939776,8.61074314015217,0.1154173695448557
28.942176000000003,8.627787451197639,0.1150788953353918
28.944560000000003,8.644971531869965,0.1147360730319834
28.946944,8.654286979183489,0.114470708695805
28.94934,8.662531491310371,0.114217893372664
28.951728000000003,8.670776003437254,0.1139670487799199
28.954108,8.679020515564135,0.113715907428201
28.956504,8.677906150264993,0.1135719432962213
28.958892,8.676140158659793,0.1134237351721316
28.961276,8.678378368547426,0.1132356914754032
28.963672000000003,8.677403772875142,0.113087391055679
28.966056,8.67656894682972,0.1129333806324033
28.96844,8.676013660038016,0.1127686725618926
28.970836,8.676389538806093,0.1125974481063172
28.973224,8.678767518320585,0.1124080719595965
28.975604000000004,8.684358303394994,0.1121821918171603
28.978004,8.690228627723124,0.11194531783008
28.980388,8.700242923170947,0.1116647424073882
28.982788,8.71081629712621,0.1113628423474286
28.985184000000004,8.72260037589497,0.1110445334214756
28.987572,8.735595159477231,0.1107085897020493
28.989956,8.746867381566798,0.1103786957573969
28.992352000000004,8.752552610297691,0.1100869304856598
28.99474,8.763592514961779,0.1097333868860492
28.997124,8.777705455558921,0.1093488981465072
28.999520000000004,8.787814194663232,0.1090024463665352
29.001904000000003,8.79885409932732,0.1086495195600882
29.004288000000003,8.812315413618405,0.1082581434039199
29.006684,8.822424152722714,0.1079084264132283
29.009072000000003,8.82880822958791,0.1075864380336864
29.011456000000003,8.832259040146909,0.1072895549290396
29.013852,8.837851721079188,0.1069695834600004
29.016240000000003,8.83944020051863,0.1066870192829688
29.01862,8.836884708838381,0.1064465583744722
29.021016000000003,8.82846268454574,0.1062556542535342
29.023404,8.818829955439602,0.1060825283366287
29.025788,8.8090574567066,0.1059148332785626
29.028184000000003,8.795932382786829,0.1057879648575749
29.030572,8.77787194181444,0.1057029311723751
29.032956,8.753525659349084,0.1056831706068085
29.035352000000003,8.729179376883726,0.1056624861444692
29.03774,8.705764259978146,0.1056357007533383
29.04012,8.688867301991015,0.1055649665534006
29.042520000000003,8.670480099936665,0.1055223699826308
29.044908,8.653024063442091,0.1054727326997995
29.047288,8.637570127693936,0.1054050593863511
29.049696,8.623047357505557,0.1053309168963468
29.052088,8.613040645489212,0.1052317855291685
29.054468,8.607038134965698,0.1050971181104979
29.056868,8.600756085188467,0.1049733901145925
29.059256,8.595544970597873,0.1048376533584509
29.061640000000004,8.58311684895453,0.1047722726150952
29.064036,8.570269418430605,0.1047238849268498
29.066424,8.562497124586155,0.1046277382057987
29.068804,8.559380658540594,0.1045009086495224
29.0712,8.55132882544242,0.1044157183712333
29.073588,8.54313722271739,0.1043360876236073
29.075972,8.538158425552272,0.1042209850249598
29.078368,8.538626852118965,0.1040747500291325
29.080756,8.545892976857827,0.1038737737417161
29.083136000000003,8.555952598276024,0.1036559477577431
29.085532,8.570668047493113,0.1034087854992339
29.087924,8.586454431896838,0.1031526108787855
29.090308,8.601589189994508,0.1028912926449551
29.092704,8.611788581039566,0.1026707852364288
29.095096,8.619194475405285,0.102467422923399
29.097476,8.623946642718533,0.1022761573720025
29.099876,8.625113917419526,0.1021032749854859
29.102264,8.626560731374243,0.1019198370372172
29.104644,8.630289185329094,0.1017084895188185
29.10704,8.637090675217001,0.1014696950659879
29.109428,8.652180107344295,0.1011520748235459
29.111812,8.672763985031644,0.1007740985465467
29.114208,8.69334786271899,0.1003994035381971
29.1166,8.712209178913643,0.1000321726198895
29.11898,8.736285401414627,0.0996146702766585
29.121376,8.758639062422912,0.0992021076250125
29.123768,8.779921788244561,0.0988021003704455
29.126148,8.798550787013735,0.0984139961551779
29.128548,8.817319555409766,0.0980234286476346
29.130936,8.829150856006772,0.0976864383314944
29.13332,8.835255393618244,0.0973870131732901
29.135716,8.835633168244188,0.0971249607514563
29.138104,8.833729302869992,0.0968888209358414
29.140488,8.834898473428854,0.096625291218225
29.142884,8.838861140667051,0.0963452213034577
29.145272,8.844266830144223,0.0960705802522453
29.147652,8.848322045181035,0.0958170027879524
29.150052,8.849164454657934,0.0955958097804317
29.15244,8.84586289301514,0.0954119304785075
29.15482,8.838557129879511,0.0952600061883618
29.15722,8.828038561183964,0.0951401137588122
29.159608,8.81123415099545,0.095077947019679
29.161988,8.788702977821403,0.0950514722484169
29.166776,8.739077351473037,0.0950498135020711
29.169156,8.716266639045271,0.095032246707182
29.171552,8.693595696244365,0.0950085480062517
29.17394,8.673206393443596,0.0949577328595464
29.176324,8.650023593963494,0.0949208333605853
29.17872,8.630844995976226,0.0948534742203326
29.181108,8.617672700228209,0.0947399913969286
29.183488000000004,8.609435771532802,0.0945909624827877
29.185884,8.608415849890147,0.0943812108189022
29.188272,8.608327093807267,0.0941670712133501
29.190656000000004,8.610380208097665,0.0939334490971719
29.193056,8.6171363720152,0.0936454399357076
29.195444,8.629247211865923,0.0933087026856603
29.197824000000004,8.643499922089926,0.0929518247701652
29.20022,8.661617064179904,0.0925707711117788
29.202608,8.680665371829658,0.0921843034682919
29.204992,8.698782513919635,0.0918026208380378
29.207388,8.720112461569526,0.0913901067739699
29.209776,8.74516707145853,0.0909577048972332
29.21216,8.772363551720815,0.0905050196466282
29.214556,8.79876863605018,0.0900533669649317
29.216948,8.825825346685601,0.0896099000196027
29.219328,8.851950891761247,0.0891717344809566
29.221724,8.87579479683675,0.0887600613081597
29.224112,8.900430097845177,0.0883497857025958
29.226492,8.92613633404024,0.0879314410779236
29.228888,8.946115807249774,0.087545974840514
29.23128,8.961159913406693,0.0871931880720925
29.23366,8.971268652511004,0.0868745117459338
29.236056,8.979515060495755,0.0865648528141369
29.238448,8.983757266987672,0.0862828090888255
29.240828,8.981573862359761,0.0860576320579331
29.243224,8.975526025865875,0.0858542676260415
29.245612,8.973342621237961,0.0856307962326222
29.247996,8.972509691050409,0.0853889283051098
29.250392,8.973678861609274,0.0851344605522907
29.25278,8.976850132914553,0.0848675234083571
29.255160000000004,8.980300943473553,0.0845908738115141
29.257556,8.985893624405833,0.0842976462418709
29.259944,8.987482103845275,0.0840284355350882
29.262328000000004,8.988139417724941,0.0837629237992508
29.264724,8.98600323492527,0.0835083021620305
29.267112,8.98465844805852,0.0832550053923701
29.269496000000004,8.983453430818628,0.0829962677632372
29.271892,8.982388183205597,0.0827326184863992
29.27428,8.980391770032789,0.0824730012936382
29.276676,8.986263990218786,0.0821711193899054
29.279072,8.995860872643899,0.0818549399350058
29.281460000000003,9.007320086188567,0.0815324638624498
29.283844,9.019710465293011,0.0812068644628687
29.28624,9.035034110703656,0.0808662195776796
29.288628000000003,9.051428691300934,0.0805163016154441
29.291008,9.069406063764047,0.0801705616311711
29.293408,9.079514802868358,0.0798674727132036
29.295796000000003,9.08841283715917,0.0795795179128816
29.298176,9.09824203700976,0.0792898710065966
29.300572000000003,9.106208905740791,0.0790071969910174
29.302964000000003,9.113756465591242,0.0787399761188542
29.305344,9.116228888762222,0.0785033551051419
29.307740000000003,9.12470761417245,0.0782329400348901
29.310128,9.137190541075514,0.077941723785865
29.312512,9.152886273538494,0.0776270789477924
29.314912,9.168861545255194,0.0773033969573093
29.317300000000003,9.185628212904811,0.076981941200038
29.31968,9.204536750927709,0.0766467135809023
29.322076000000003,9.2246559937641,0.0763004638193538
29.32446,9.237558229547744,0.0760005525167721
29.32684,9.250740004585106,0.0756923427563988
29.329244000000003,9.260197117383356,0.0753951456481262
29.331632,9.270585395741383,0.0750961213613301
29.334012,9.282184378912916,0.0747866364567906
29.336416,9.294994066897944,0.074465242058427
29.338804000000003,9.309014459696469,0.0741334847704692
29.34118,9.330251859547744,0.0737604761562078
29.343576,9.345902266040351,0.0734020567140455
29.345964,9.3579677799207,0.0730498704283113
29.348344,9.370173063427911,0.0726929589557829
29.35074,9.38479975656212,0.0723139238304291
29.353128,9.403710190442885,0.0719062037103552
29.355524000000003,9.421689458763872,0.071503457745613
29.35792,9.434873129659106,0.0711187727322451
29.360304,9.446846095740842,0.070747103245638
29.362684,9.45975022738235,0.0703745186428174
29.365088,9.472933898277589,0.0699933388734438
29.367476000000003,9.48211336767999,0.0696310257287049
29.369856,9.486217700402916,0.069292848604197
29.372252000000003,9.491812277193064,0.0689333452878694
29.37464,9.493542422117237,0.0685866568244907
29.377024,9.497926294093883,0.0682376767511841
29.379420000000003,9.500587604577834,0.0678886331827358
29.381804,9.499104943942092,0.0675619635324488
29.384184,9.495620182559932,0.0672435245982611
29.386592,9.485337723005603,0.0669472897763216
29.388976,9.468909191585167,0.0666809946196436
29.39136,9.45606555277698,0.0664101326117208
29.393756000000003,9.442802605088216,0.0661521872269711
29.396140000000003,9.42818918295909,0.065909329194577
29.39852,9.41022318564319,0.0656905636581443
29.40092,9.388904613140513,0.0654953554165851
29.403304,9.362510903958364,0.0653223041791218
29.405684,9.336768821082272,0.0651558138027278
29.408084,9.311957903765965,0.0649870673727747
29.410472,9.283794411262871,0.0648416470845678
29.412868000000003,9.255351379506063,0.0647048197331377
29.415264,9.227699743682171,0.064570098092248
29.417652000000004,9.205635101216954,0.0644246691688235
29.420032,9.18380277617721,0.0643003444793882
29.422428000000004,9.164624178189944,0.0641750467304814
29.424816,9.146516515389312,0.0640431803653004
29.427196,9.1279895437081,0.0639247367629974
29.429592,9.111324903146446,0.0638026482897839
29.431980000000003,9.097174220010409,0.0636848270305419
29.43436,9.087539595046396,0.0635632048479658
29.436764000000004,9.08148986269464,0.0634397196906128
29.439152,9.07716269183558,0.0633177887277669
29.441536,9.07511716097666,0.0631784855823644
29.443932000000004,9.077075831610571,0.0630238213915357
29.44632,9.077963567057846,0.0628749739272917
29.4487,9.084857604744371,0.06270369164841
29.451096,9.100691210976342,0.0625012962124416
29.453484000000003,9.119458083514507,0.0622907670780473
