Time,Force,Position
28.216684,5.183167288369656,0.1592681913604212
28.219068,5.191547778407661,0.1590983045113218
28.221448,5.206166888110393,0.1588141011281057
28.223855999999994,5.224510660052239,0.1584524729979601
28.226244,5.250071439046836,0.1579069280009671
28.228624,5.275073139533993,0.1574107014394117
28.23102,5.301937171140706,0.1568740985808721
28.233408,5.32637979312042,0.1564271734349258
28.235788,5.3508224151001365,0.1559822876106431
28.238196,5.37540480670671,0.1555253223903384
28.240583999999995,5.4006388246193415,0.1550742168775116
28.242964,5.430808209584585,0.1545269103113781
28.245359999999994,5.462979695296246,0.1539384421983656
28.247748,5.498084447314101,0.1532850379832296
28.250132,5.535842926384434,0.1526024749289234
28.252527999999995,5.574253031760824,0.1519217378439178
28.254912,5.61466523788363,0.1511967633375834
28.257292,5.654006508819799,0.1504960531525596
28.259695999999995,5.688412412703354,0.1499095366971406
28.262084,5.722166690280853,0.1493265522556292
28.264468,5.751637227111797,0.1488492530754619
28.266863999999995,5.778454036890267,0.1484249451285636
28.269248,5.807272947415152,0.1479662574412957
28.271628,5.8362316275669,0.1475036683584577
28.274031999999995,5.859044235852533,0.1471807581011554
28.27642,5.879063347458832,0.1469055497834847
28.2788,5.898570602385936,0.1466186727971347
28.281196,5.91756600063384,0.1463221388647722
28.283584,5.938703269255021,0.1459793940460851
28.285964,5.961982408249478,0.1455889588715059
28.288367999999995,5.98381852500496,0.1452039140628119
28.290756,5.994433433214859,0.1450549712476856
28.293136,6.005188111051619,0.1448995039457178
28.29554,6.017013724075016,0.1447220397500165
28.297924,6.022041638926245,0.1446682892474097
28.300308,6.029863050456809,0.1445705781171288
28.302703999999995,6.037684461987372,0.1444738268985435
28.305092,6.048578909450993,0.144315434127423
28.307472,6.059333587287753,0.1441644201804455
28.309876,6.071950596244069,0.1439865029512103
28.312263999999995,6.091272755573937,0.14365128914828
28.314644,6.108592814157387,0.143356143795242
28.317048,6.122048440874864,0.1431300352805526
28.319431999999995,6.135504067592342,0.1429065199122993
28.321815999999995,6.151381103936816,0.1426193072968967
28.324212,6.167677449161872,0.142303902444445
28.326596,6.185836125506484,0.1419625057929586
28.32898,6.201852931477818,0.1416668545937588
28.331375999999995,6.214936471142958,0.1414245528249273
28.333764,6.225086744501903,0.1412335631247402
28.336144,6.236307953047486,0.1410211791484466
28.33854,6.257027808645955,0.1406140502785501
28.340927999999995,6.273463923497872,0.1402971204642908
28.343308,6.289620499096065,0.1400012519524713
28.345703999999994,6.308570571373595,0.1396608493620307
28.348095999999995,6.321793880665595,0.1394119317298061
28.350476,6.332875319584318,0.1392079715018548
28.352879999999995,6.343025592943262,0.1390197355104697
28.355268,6.356528441488982,0.138756808673844
28.357648,6.36523569260895,0.1385713325205906
28.360044,6.369798972609225,0.1384672390550555
28.362431999999995,6.373570856676582,0.1383678896975231
28.364812,6.3768308840647405,0.1382563592931191
28.367207999999994,6.374503918094229,0.1382252019558934
28.369592,6.3713855561908,0.1381988765762165
28.371976,6.369198359847148,0.1381591109739069
28.374372,6.365428371637662,0.1381289181343194
28.37676,6.363148627495392,0.1380516159293596
28.379156,6.35821515630065,0.1380057078670225
28.391108,6.316926589877788,0.1380038548832821
28.393487999999994,6.305801720846561,0.1379862742648487
28.395884,6.29802942700211,0.1378954592869019
28.398268,6.290676442038239,0.1377791146139817
28.400652,6.282671830768309,0.1376587336007666
28.403047999999995,6.27001139169949,0.1376038137355696
28.405432,6.258561657444168,0.1375188598443593
28.407816,6.24389911762893,0.1375002370560495
28.410212,6.231238678560109,0.1374457963642646
28.412604,6.2173675346777895,0.1374222131814246
28.414984,6.208571527474942,0.1373055043301276
28.417388,6.200706685831873,0.1371750089708264
28.419775999999995,6.192050448255888,0.1370490311006655
28.422159999999995,6.182974901799319,0.1369485395470478
28.424556,6.171617715342615,0.1369003870435863
28.426943999999995,6.164124960751882,0.1367899097887174
28.429324,6.153419400601234,0.1367449358307583
28.431724,6.151281321943696,0.1365253313119458
28.434111999999995,6.152076509592351,0.1362573213004833
28.436492,6.154314719479982,0.1359899631682847
28.438892,6.156413159740754,0.1357305161521037
28.441279999999995,6.157812751867224,0.1355140737518553
28.44366,6.163728402165725,0.1352445076542116
28.446064,6.1722977795167004,0.1349463249172413
28.448448,6.179516682427319,0.1346859046108482
28.450828,6.191251643509966,0.1343706388261407
28.453232,6.202427526085174,0.1340877002270098
28.45562,6.220029019780212,0.1336784355965926
28.457999999999995,6.234277938288474,0.1333402098830431
28.460396,6.251599892729791,0.1329465816576341
28.462784,6.267571372730753,0.1325928040486028
28.465164,6.2795386512388776,0.1323056041204489
28.467568,6.294951052732396,0.1319866498878507
28.469956,6.307430187919719,0.131711667990577
28.472335999999995,6.322982359040099,0.131381366786576
28.474732,6.341467796466676,0.1310106810342488
28.56552,6.212619508317227,0.1309719894606807
28.567916,6.215227909399328,0.1308601797615361
28.570304,6.223842612720678,0.1306498856437989
28.572684,6.232177776788309,0.1304562882601396
28.575084,6.241863415296299,0.1302258301433656
28.577468,6.247544852311454,0.130061539559373
28.579847999999995,6.251875814886251,0.1299352388880933
28.582252,6.256206777461048,0.1298096377149031
28.58464,6.267335438208014,0.1295830876810124
28.587024,6.280186660447677,0.1293423476733958
28.58942,6.2961109186203945,0.1290488552775805
28.591808,6.307891205673418,0.1288263450352152
28.594188,6.320882197539941,0.1285763794238341
28.596584,6.33121946235399,0.1283521051356794
28.598972,6.346492094220649,0.1280503505107132
28.601356,6.358412150900531,0.1278186354992806
28.603752,6.367119402020498,0.1276464616074472
28.60614,6.37368478276719,0.1275161287242462
28.632428,6.365725497467637,0.127463155672178
28.634812,6.362187826683627,0.1274552796210114
28.637191999999995,6.3605124870191725,0.1274248215568022
28.639592,6.364983219220831,0.1272955122624623
28.641976,6.36824324660899,0.1271936583371379
28.644359999999995,6.375227936236262,0.1270467719376367
28.646756,6.380210525117117,0.1269307889132997
28.64914,6.386403818811469,0.1267872704058427
28.651536,6.399022723625654,0.126529372221905
28.653932,6.413643729186256,0.1262427993444442
28.65632,6.431058231426192,0.1259222961542599
28.658704,6.447821107360071,0.125598249051536
28.6611,6.46579468810745,0.1252496767530314
28.663484,6.484839204041466,0.124881093121791
28.665868,6.506956755908539,0.1244653344989588
28.668264,6.529446394827949,0.1240693289090767
28.670652,6.553658595240055,0.123661644668298
28.673032,6.574378450838524,0.1233272671371451
28.675436,6.598822968676107,0.1229502229432112
28.677824,6.628482392820022,0.1224917678089945
28.680204,6.653858076217383,0.1221109742045986
28.682608,6.67522955812191,0.1217887734642405
28.684992,6.693947312973962,0.1214934579570306
28.687372,6.706658765586765,0.1212839974102738
28.689779999999995,6.719370218199567,0.1210745368635171
28.692163999999995,6.733292375625867,0.1208412999301503
28.694544,6.7494961730523055,0.1205664639224783
28.696939999999994,6.767050444919103,0.1202599995754788
28.699328,6.78325424234554,0.1199907866939121
28.701712,6.796524773465784,0.1197595953919923
28.704107999999994,6.8108662397726665,0.1195128525520065
28.706496,6.823857231639187,0.1192980408113946
28.708876,6.836196597199653,0.1190802051153915
28.711275999999994,6.847744566827199,0.1188643174059437
28.71366,6.853146464588635,0.1187357956075545
28.716044,6.859898836790429,0.1185753467000455
28.71844,6.866930748245944,0.1184015525079166
28.720828,6.877455004515095,0.1181625864903149
28.723208,6.883975059291413,0.1179766190643366
28.725611999999995,6.884488811828481,0.1178704907162545
28.728,6.887796061044883,0.117736211171407
28.730384,6.891894706194203,0.1175990445423051
28.732779999999995,6.895713812089803,0.1174767756823805
28.735168,6.905678989851514,0.1172682731901806
28.737548,6.915644167613224,0.1170597706979807
28.739947999999995,6.923467475001656,0.1168859024971603
28.742336,6.928077976830174,0.1167627217354527
28.744716,6.931338004218333,0.1166711693130726
28.747115999999995,6.930593830113658,0.1166313306129707
28.7495,6.9319915263822605,0.116558395334669
28.75188,6.931526891531305,0.1165041158411498
28.754283999999995,6.935345997426905,0.1163845959364904
28.756668,6.937814628882146,0.1162961752864644
28.759052,6.939212325150748,0.1162237064858229
28.761456,6.949829129218516,0.1160263999671276
28.763843999999995,6.960865242166864,0.1158090524192946
28.766224,6.969247628062738,0.1156124148245473
28.768619999999995,6.975627913212195,0.1154418269890097
28.771008,6.986291939108206,0.1152078824423634
28.773392,6.999889231310412,0.1149401716926231
28.775787999999995,7.012043501273643,0.114670163518356
28.778176,7.026479411237012,0.1143616340863605
28.780556,7.04105509082724,0.1140462094994149
28.782955999999995,7.052557734484413,0.113773213467503
28.785344,7.06834411888814,0.1134410978260169
28.787724,7.081476776239392,0.1131257890899502
28.790128,7.095820138404142,0.1127877230666929
28.792516,7.112445140569031,0.1124136324747626
28.794899999999995,7.130420617174278,0.1120081070852101
28.797296,7.147604697846608,0.1116060073568657
28.799684,7.163066217026239,0.1112130003886393
28.802064,7.174523534713039,0.1108695855055791
28.804464,7.184258290907141,0.1105348720280901
28.806852,7.1990681837807164,0.1101387152768383
28.809232,7.205869673668623,0.1098383515113154
28.811627999999995,7.21225185467595,0.1095603133088144
28.814016,7.219285661989334,0.1092880640182048
28.816396,7.225108764489219,0.109037563257141
28.818795999999995,7.223994399190076,0.108863833443782
28.821179999999995,7.220226306838458,0.1087072995678656
28.823564,7.213245408926925,0.1085955739468789
28.82596,7.205752654336193,0.1084707838639256
28.828347999999995,7.197608273439404,0.108339838118708
28.830728,7.1897434317963365,0.1081948071272392
28.833132,7.17400995679446,0.1081336254856849
28.835515999999995,7.165353719218474,0.1079891065646881
28.8379,7.156697481642485,0.1078443671142311
28.840296,7.146178912946942,0.1077148592119536
28.842683999999995,7.137522675370954,0.1075697641130802
28.845064,7.12779550260833,0.1074387477606223
28.847459999999995,7.119930660965262,0.1072921088165939
28.849848,7.11434745932233,0.1071096314908151
28.852243999999995,7.111045897679536,0.1068911055114954
28.85464,7.103879904170769,0.1067097564658587
28.857028,7.100857881781694,0.1064776878687271
28.859408,7.095182132340146,0.1062609353599093
28.861804,7.088854756592539,0.1060377060790656
28.864192,7.082155293792596,0.1057938261953757
28.866576,7.08346423397832,0.105462433762864
28.868972,7.085983878977542,0.1051089916646936
28.871355999999995,7.093858199909957,0.1046841281027823
28.873739999999994,7.097960636775015,0.1043283622160593
28.87614,7.10299423919985,0.1039653460374132
28.878523999999995,7.108027841624687,0.1036030514522053
28.880907999999994,7.11613447998258,0.1032025884314801
28.883304,7.119165981660999,0.1028619331664997
28.885691999999995,7.123128648899197,0.1025149416520722
28.888072,7.1270913161373945,0.102168587196612
28.890467999999995,7.129331421882896,0.1018301270331371
28.892856,7.130500592441759,0.1015044647935515
28.895236,7.131018136694566,0.1011722387038951
28.897632,7.127391709827678,0.1008881414180794
28.900024,7.122554578147291,0.1006244735844031
28.90242,7.122001187213457,0.1003068049492333
28.904816,7.118654299600289,0.1000095850119634
28.907204,7.120522318293453,0.0996522607406188
28.909584,7.120248466613342,0.0993204339196946
28.911988,7.124630442732121,0.0989561599895105
28.914376,7.124077051798288,0.0986394957490557
28.916756,7.125106452730291,0.0983234992366862
28.919152,7.122783278475519,0.0980544156937433
28.921536,7.125023384221021,0.0977187189970191
28.923915999999995,7.124981849966385,0.0974154209750703
28.92632,7.124800546084889,0.0971191046865916
28.928708,7.127552508509588,0.0967978824801654
28.931083999999995,7.129233535747648,0.0964886389343579
28.93348,7.127189900746596,0.0962042734083169
28.935868,7.123004395372266,0.095945431146673
28.938248,7.120820990744354,0.0956674421733268
28.94064,7.122641787609275,0.0953513033764897
28.943027999999995,7.128978642646227,0.0950129982692222
28.945424,7.1391799295491545,0.0946429095525178
28.947824,7.1492414468252194,0.0942788321995225
28.950208,7.156881554474288,0.093956637145731
28.952592,7.170248425108886,0.093594380704183
28.954988,7.177981080556573,0.0933085446626075
28.957372,7.190649103056869,0.0929806661056152
28.959755999999995,7.198241988877696,0.092702459711754
28.962152,7.210910011377994,0.0923777418048116
28.96454,7.223717803505152,0.0920484719892584
28.96692,7.239458861938503,0.0916971430754202
28.969316,7.256270855558495,0.0913375214741382
28.971704,7.278437525111681,0.0909207907474204
28.9741,7.298741863545308,0.0905145236740721
28.976496,7.317695727538576,0.0901357949068576
28.978884,7.341724728211317,0.0897137182268818
28.981268,7.369757930376892,0.0892584226566133
28.983664,7.401655564408439,0.0887769692910538
28.986052,7.432342493626488,0.0883162594954329
28.988436,7.457954286165065,0.0879002791352094
28.990832,7.475697445344835,0.0875446306263769
28.993216,7.49078687747213,0.0871983164481189
28.995595999999995,7.508157949599561,0.0868241925607917
28.997996,7.522595755420799,0.086471321390755
29.000384,7.529164927883229,0.0861775111904991
29.002764,7.53615340922624,0.0858632974055681
29.005168,7.541279559449694,0.0855604311930987
29.007556,7.546405709673147,0.0852561002941793
29.009936,7.545106248776771,0.0850190235891162
29.060104,7.051025806489568,0.0850169512121954
29.062504,7.044974178279944,0.0849905951540413
29.064892,7.042786981936293,0.0849391030853277
29.067272,7.040971872644979,0.0849083775876607
29.069668,7.041019094473223,0.0848682421735648
29.072056,7.044790978540579,0.0848092135540302
29.074435999999995,7.057222891899661,0.0846947788912692
29.076844,7.077802977871269,0.0845106076319581
29.079228,7.101316330149074,0.0843048119989322
29.081608,7.122595264254984,0.0840874857997689
29.084008,7.142151636868198,0.0838759039023026
29.086392,7.165013362839945,0.0836673685066728
29.088776,7.192158829558245,0.0834165949078407
29.091172,7.222377332209602,0.0831417446900065
29.093556,7.249522798927902,0.0828940682032853
29.095956,7.2766682656462045,0.0826473566349318
29.098351999999995,7.2965967253117565,0.0824629281786108
29.10074,7.317735889790806,0.082261882430234
29.10312,7.3400857590833555,0.0820455596748821
29.105516,7.365648433935819,0.0818010029693501
29.107903999999994,7.390559482482227,0.081548383509277
29.110288,7.416541466215272,0.0812875349484409
29.112684,7.440661118828761,0.0810365142702763
29.115071999999994,7.468273116255884,0.0807430422846001
29.117452,7.494162552190313,0.0804525622672047
29.119848,7.519912218497881,0.0801694702490604
29.122236,7.541006057006557,0.0799086480075479
29.12462,7.5580956940223984,0.0796783976434046
29.127023999999995,7.577187431784659,0.0794355668140762
29.129416,7.599584522905451,0.0791957102059909
29.131796,7.615835542160132,0.0790023242529419
29.134196,7.623566301749949,0.0788499028318912
29.13658,7.62715309022007,0.0787317918720501
29.13896,7.627946382010857,0.0786258431105626
29.141359999999995,7.627948277868727,0.0785173577013255
29.143748,7.628509252234036,0.0783853172098563
29.146128,7.6353560680923165,0.0782001976552621
29.148524,7.640480322457901,0.0780169236233148
29.150911999999995,7.64374224570393,0.0778419077942167
29.153292,7.638716226710569,0.0777324178796146
29.155695999999995,7.635552538836769,0.077615495151664
29.158084,7.629595354283629,0.0775095986015461
29.160464,7.622846773797573,0.0774012115395512
29.16286,7.612093991818684,0.0773188946349138
29.165247999999995,7.60306377133249,0.0772351546865846
29.167632,7.590728197487763,0.0771475943722793
29.170028,7.580674263643175,0.0770348547939461
29.172415999999995,7.569689164238808,0.0769254201739608
29.1748,7.55991476964794,0.0768008637330558
29.177196,7.544832920952121,0.0766847710579733
29.179583999999995,7.541763676734803,0.0764928356685768
29.181968,7.544980274010457,0.0762503380437014
29.184364,7.554342943152222,0.0759660182790163
29.186751999999995,7.560632576360932,0.0757025197772507
29.189132,7.568784540689199,0.0754318331681747
29.191532,7.57386346908441,0.0751830853987296
29.193919999999995,7.576940296733203,0.0749477341332662
29.1963,7.580017124381995,0.0747120489453663
29.1987,7.581231620911232,0.0744824545814915
29.201087999999995,7.585658923000386,0.0742239161002472
29.203468,7.5892948291566205,0.0739634668841489
29.205872,7.594793066432413,0.0736969530316272
29.20826,7.600151534081343,0.0734358858484808
29.210644,7.609514203223108,0.0731508545079206
29.21304,7.620087577178372,0.0728527160890393
29.215428,7.634245843745888,0.0725479725865081
29.217812,7.647193405499907,0.07225930606192
29.220212,7.660280736880785,0.0719644586386511
29.222596,7.66950363639569,0.0716890852640458
29.22498,7.684593068522985,0.071384602173632
29.227376,7.688880600985277,0.0711367733919992
29.229764,7.694099299007349,0.0708877457365699
29.232148,7.692660068484111,0.0706647487417205
29.234544,7.698298075386762,0.070400893070488
29.236927999999995,7.706357491916411,0.0701104599217335
29.239311999999995,7.717350174752255,0.0698068450918975
29.241708,7.729553562401597,0.0694906582799472
29.244092,7.740965554118023,0.0691708159232897
29.246472,7.755310812140644,0.0688381817330223
29.248876,7.771286083857342,0.0684756747023142
29.251263999999995,7.78833229076068,0.0681069192188026
29.253644,7.803795705798183,0.0677327918188001
29.256048,7.820749364902904,0.0673345737008387
29.258436,7.83383859214165,0.0669519780695993
29.260815999999995,7.841992452327785,0.0665918939634076
29.26322,7.849354916581001,0.0662295124415571
29.265604,7.855925984901301,0.0658638753526563
29.267983999999995,7.865570089154656,0.0654819259440471
29.270388,7.8749346541542895,0.0651106474830584
29.272776,7.881226183220867,0.0647578430028383
29.275156,7.889519813033865,0.064393045431892
29.277563999999995,7.894880176540664,0.0640411402273478
29.279948,7.899961000793745,0.0636990158034831
29.282328,7.8983838965015165,0.0633771176521181
29.284728,7.890660720343178,0.0630882995411656
29.287112,7.8818666089982,0.0628071734036801
29.289492,7.870930627279945,0.0625406296899723
29.291888,7.868654674853415,0.0622486910355044
29.294276,7.864236852053609,0.0619712389983445
29.296655999999995,7.86019111630614,0.0617143091537046
29.29906,7.855726071678091,0.0614742738472609
29.301444,7.849770782982821,0.0612567434472693
29.303823999999995,7.846189682086306,0.0610514398687019
29.306224,7.845402077869127,0.0608413689867964
29.308612,7.850900315144918,0.0605957584362687
29.310991999999995,7.858260883540266,0.0603483410310511
29.313388,7.864270977495256,0.0601178103338161
29.315776,7.866276869957411,0.0599040266659595
29.318159999999995,7.8673515968597885,0.0596909666685555
29.320556,7.87135959006836,0.0594689823117184
29.322944,7.880163180702684,0.0592356734506155
29.325324,7.885474426523372,0.0590318250092058
29.327728,7.893579169023395,0.0588239239402609
29.330116,7.901124833015977,0.0586362631049187
29.332495999999995,7.913466094434312,0.0584361696961039
29.334892,7.924736420666007,0.0582428982792974
29.33728,7.933864876524425,0.0580623285306174
29.339664,7.932982828650759,0.0579226287677133
29.34206,7.932100780777094,0.0577826367900489
29.344448,7.930939193649707,0.0576538053125667
29.346832,7.927915275402764,0.0575274085806174
29.349228,7.930897659395071,0.0573781190744744
29.351612,7.9280135107749885,0.0572466514290706
29.353996,7.9240584269682675,0.0571218445071549
29.356392,7.918333559840606,0.057030686684704
29.35878,7.908324951966392,0.0569650292262148
29.361164,7.90246031521187,0.0568790649637937
29.36356,7.8964559088304895,0.0567979793096328
