Time,Force,Position
29.588204,6.938138664424131,0.154125317648532
29.5906,6.933951263191933,0.154013017201181
29.592988,6.9279015308401775,0.1539291835440586
29.595384,6.925576460727536,0.1537885748859136
29.597776,6.924462095428392,0.1536168225134825
29.600164,6.921764938263411,0.153457309760735
29.602548,6.914831262180122,0.1533450556711283
29.612108,6.865538084487328,0.153342583738754
29.614495999999995,6.857858338441495,0.1533099536741373
29.61688,6.852413010567553,0.1532672917413833
29.619284,6.8538579286644,0.1531455328234295
29.621672,6.852601897880527,0.1530993339802432
29.624052,6.859354270082323,0.152908220871977
29.626452,6.871461318217311,0.1526081526220947
29.628836,6.884779071165798,0.1522801863727506
29.63122,6.9019612559802574,0.1518901143158022
29.633624,6.91877135374238,0.1514869730752428
29.636012,6.941727523370613,0.1509756424305833
29.638392,6.959748325946234,0.1505506266158079
29.640792,6.979910998895132,0.1500866014778901
29.64318,6.998351110351334,0.1496439808270516
29.64556,7.017582617740453,0.1491940174055047
29.647956,7.041330183301604,0.1486887501225965
29.650344,7.0674519366615085,0.1481657524268324
29.652728,7.094876942633529,0.147646639358995
29.655124,7.120160078232272,0.1471686411192705
29.657512,7.147026005696855,0.1466728716674386
29.659896,7.170679127601519,0.1462393998353059
29.6623,7.185252911333876,0.1459667024979048
29.664688,7.19675365913318,0.1457491729300378
29.667068,7.203738348760451,0.1455908751699209
29.7029,7.104130175874341,0.1453106250388381
29.705296,7.093796702776033,0.1453001316581743
29.707684,7.086815804864501,0.145222302889958
29.710064,7.086120748445938,0.1450317329778538
29.712464,7.092223390199544,0.1447401457635991
29.714852,7.099536736766647,0.1444197360231074
29.717232,7.0991212196018045,0.144214215645097
29.719636,7.095492896877046,0.1440686706463975
29.722024,7.092655970085205,0.1439179030087151
29.724404,7.085954611427391,0.1438241946614814
29.7268,7.0816274405683295,0.1437158502740254
29.729188,7.082235636761881,0.1435293312900838
29.731572,7.089641531127603,0.1432372132702326
29.733968,7.097838821426241,0.1429413619223528
29.736356,7.1044060980308,0.1426950302561996
29.738736,7.111485231314559,0.1424590441728362
29.74114,7.114420393478621,0.1422984397250956
29.743528,7.114282519709631,0.1421900154271083
29.745908,7.118009077806612,0.1420240557325426
29.748304,7.127322629262264,0.1417852653263614
29.750688,7.133423375158,0.1416059934717921
29.753068,7.138313416240238,0.1414555644942662
29.755472,7.143203457322475,0.1413060182460927
29.75786,7.145951628031436,0.1411964436344717
29.76024,7.144183740568366,0.1411397852759566
29.762644,7.141996544224714,0.1411053954415595
29.765032,7.142463074933538,0.1410423232492559
29.767408,7.139996339336166,0.1410230057538571
29.769804,7.139811243738932,0.1409565618736471
29.772192,7.143350810380811,0.1408415181091555
29.774572,7.1502429522094655,0.1406610273676008
29.776964,7.156995324411261,0.1404890433942915
29.779352,7.159743495120222,0.1403794169974545
29.781748,7.161141191388824,0.1403044703819415
29.784148,7.165100066911283,0.1401675782761638
29.786532,7.169058942433742,0.1400306861703862
29.788916,7.171946882769564,0.1399132005518679
29.81282,7.132939956346838,0.1398824591398866
29.83192,7.120139747651157,0.1398440943216473
29.834323999999995,7.119627890971961,0.1398335057136097
29.836712,7.123911631718515,0.1397571089649203
29.839092,7.128474911718789,0.1396671384238599
29.841496,7.1404875161972905,0.1394861404639655
29.843884,7.157155948474682,0.1392485349100737
29.846264,7.175686711871632,0.1389902788975558
29.848659999999995,7.197290511201636,0.138680778232426
29.851048,7.223038281651335,0.1383038832203486
29.853432,7.2447818506082,0.1379873376024464
29.855827999999995,7.276396153670288,0.1375249416795401
29.858216,7.307079291172598,0.1370780143460988
29.860596,7.336691493488271,0.1366531781552842
29.862992,7.362159724684249,0.1362989890210166
29.86538,7.382832358454475,0.1360081790580483
29.867764,7.407509193717536,0.135658428611005
29.87016,7.428833453793819,0.1353697017440814
29.872548,7.4541619153629375,0.1350234341863948
29.874928,7.481212938424753,0.1346658609613871
29.877332,7.513199328539178,0.1342406249908291
29.87972,7.545465257907325,0.1338039105066169
29.8821,7.575729086529057,0.1333983853733482
29.884496,7.599334986605478,0.1330767400785882
29.886884,7.616934584442649,0.1328411252388282
29.889268,7.629226728174871,0.13265774101497
29.891664,7.6362114178021425,0.132524146822363
29.894052,7.640123071496361,0.1324365894952594
29.896432,7.649109861870051,0.1322773077627868
29.898832,7.660098752990156,0.1320932424297489
29.90122,7.675231615229955,0.1318480368965515
29.9036,7.68650004560378,0.1316523367592733
29.905996,7.69604591448491,0.1314702569254263
29.908384,7.705871322619759,0.1312755365846094
29.910764,7.718118140381607,0.131035003804443
29.913168,7.735719634076647,0.1307125132680815
29.915556,7.751598566278991,0.1304046671553029
29.917932,7.770178447362054,0.1300356641797254
29.920336,7.787035766952419,0.1296827079905966
29.922723999999995,7.800867272437971,0.12933710722458
29.925104,7.81176551161733,0.1290288454186691
29.9275,7.824665851543105,0.1286980126846274
29.929888,7.837985500349461,0.1283479883235147
29.932268,7.855449120275511,0.12794023996513
29.934664,7.876265315388335,0.1274762496958406
29.937052,7.895870805687661,0.1270330801569984
29.939432,7.917990253412601,0.1265729055407485
29.941828,7.942391341137679,0.1260746442486802
29.944216,7.961205435504087,0.1256376374720216
29.946612,7.974152997258106,0.1252715568161722
29.949008,7.984307062332788,0.1249342402196995
29.951395999999995,7.996742767407608,0.1245609818828602
29.953776,8.009969868415347,0.1241850863500577
29.956172,8.023476508676806,0.1237984515813794
29.95856,8.035260587445569,0.1234255498126449
29.960944,8.044111399908136,0.1230880721817556
29.963344,8.052170816437785,0.1227530680057454
29.965732,8.059438837034516,0.1224207237211534
29.968116,8.06512406576541,0.1220935463661301
29.970512,8.071181381548643,0.1217834561820702
29.972896,8.078728941399094,0.1214404798472827
29.97528,8.08241206938357,0.1211390695989563
29.977675999999995,8.087305902181548,0.1208177606864231
29.980064,8.093130900539304,0.1204900344067001
29.982444,8.100957999643475,0.1201413856712788
29.984843999999995,8.111206508374645,0.1197510418419765
29.987232,8.122945261173033,0.1193288559583838
29.989612,8.136546345090979,0.1188940675800577
29.992008,8.150287198635782,0.1184530868727768
29.994396,8.163376425874532,0.1180052243240314
29.996776,8.178467753859696,0.1175361116895667
29.999172,8.190625815538665,0.1170988755765598
30.00156,8.204134351657991,0.1166367830452664
30.00396,8.214430082217405,0.1162168043363617
30.006356,8.222583942403539,0.1158244473352904
30.008744,8.230598032962815,0.1154388771521084
30.011123999999995,8.242336785761204,0.1150244563805803
30.01352,8.256869035238925,0.1145891329738535
30.015908,8.270981975836069,0.1141717690977238
30.018291999999995,8.285374455686933,0.1137429199970366
30.020688,8.297345525910798,0.1133544440201859
30.023076,8.310387531321302,0.1129526488974701
30.025456,8.319937191918171,0.1126037938338581
30.027852,8.324831024716149,0.1122922404953056
30.030244,8.325441116767571,0.1120347366259626
30.106708,7.8241796887271295,0.111839208172925
30.109092,7.828370881675067,0.1117561175703472
30.111472,7.836938363168175,0.1116495012629068
30.113876,7.84857888059434,0.1115095488078522
30.116264,7.8618021898863395,0.1113670709627964
30.118644,7.881962966977368,0.1111547781118227
30.12104,7.90598817593437,0.1109061513115597
30.123428,7.929082219331594,0.1106652835114419
30.125808,7.953759054594653,0.1104238120024014
30.128212,7.980857299484711,0.1101448194787569
30.1306,8.000366450269683,0.1099293819733223
30.13298,8.025230276987845,0.1096471091421605
30.135384,8.051444578146366,0.1093411774301287
30.137768,8.074865382625553,0.1090549227044053
30.140152,8.102849467105017,0.1087022732856866
30.142548,8.131904486771118,0.1083339052481913
30.14494,8.154022038638187,0.1080344305066228
30.14732,8.171064453825789,0.1077903226251646
30.149716,8.185685459386393,0.1075861401171088
30.152104,8.195510867521243,0.1074250331227551
30.154484,8.20812977233543,0.1072441721547826
30.15688,8.208736072671115,0.1071840343260078
30.159268,8.209482142633659,0.1071181432652108
30.161648,8.210088442969342,0.1070586540504863
30.164044,8.212045217745384,0.1069744323216043
30.166432,8.211860122148153,0.1069159342696864
30.168812,8.216098536924331,0.1068017889651469
30.171216,8.221547656514012,0.1066694843266054
30.173604,8.224482818678077,0.1065452733047814
30.175988,8.224344944909085,0.1064526595024093
30.178384,8.226860798192567,0.1063457411135122
30.180772,8.22923688184919,0.1062454606292754
30.183152,8.22760876401298,0.1061828683967633
30.185548,8.23184717878916,0.1060698363607258
30.187936,8.236457680617677,0.1059745476059849
30.19032,8.246143319125666,0.1058307981716407
30.192716,8.261835259872907,0.1056311442764713
30.195104,8.278598135806787,0.1054180576446553
30.197488,8.297130795061605,0.1051641136968798
30.199884,8.3165946198762,0.1049037303843154
30.202272,8.331542386518766,0.1046703668482089
30.204652,8.35491786502758,0.1043447193925453
30.207048,8.377501947603474,0.1040217795040253
30.209436,8.395569972007339,0.1037244055026676
30.21182,8.414708931597842,0.103417317271221
30.214216,8.436269300815342,0.1030765462308623
30.216608,8.45075243260695,0.1028038262777918
30.218988,8.463233463652147,0.1025492906272249
30.221384,8.480510092123092,0.102261112371316
30.223772,8.497926490220896,0.1019668323796267
30.226156,8.51990616831898,0.1016163568677632
30.228552,8.540163284924366,0.1012739581071952
30.230936,8.563633207089666,0.1008971175408169
30.233332,8.586591272575765,0.1005134539762758
30.235728,8.60931702063639,0.10011019897398
30.238116,8.627526710524982,0.0997323807003672
30.240496,8.645084774107517,0.0993515988529812
30.2429,8.66399331213041,0.0989487512583463
30.245288,8.679689044593387,0.0985792003916833
30.247668,8.695664316310083,0.0981992412543553
30.250068,8.714153545452396,0.0978142737000281
30.252456,8.724774141235903,0.0974888081730766
30.254836,8.73381194515357,0.0971637103086903
30.25724,8.745643245750575,0.0968217970701481
30.259628,8.753749884108464,0.0965018877583239
30.262008,8.760645817652856,0.0961999685852237
30.264404,8.770754556757167,0.0958660739261657
30.266791999999995,8.781282604742055,0.095515463357617
30.269172,8.784081788994996,0.0952176419970059
30.271568,8.786880973247936,0.0949194106827263
30.273956,8.782742689701847,0.0946735856753555
30.276336,8.77753347096912,0.0944381619238586
30.27874,8.771532856303478,0.0942025738306345
30.281127999999995,8.758455004211944,0.0940234073174776
30.283508,8.742164346560495,0.0938751174100704
30.285904,8.72466298409555,0.0937420889847885
30.288292,8.706090686443964,0.0936188645395205
30.290672,8.686587223232603,0.0934999302493378
30.293068,8.670436335208016,0.0933439622775985
30.295456,8.655496151996928,0.0931718072079166
30.297836,8.638042011360227,0.0930028015446693
30.300232,8.63260047520202,0.0927443386984727
30.30262,8.626088003857179,0.092495295131192
30.305,8.61999484139292,0.0922300704049013
30.307404,8.614693074861579,0.0919648652278249
30.309792,8.60673758127776,0.0917079414049144
30.312172,8.593986490268193,0.0914787313233065
30.314575999999995,8.582166564818403,0.0912444327156292
30.316968,8.570486408995473,0.0910030513290129
30.319348,8.56122766279954,0.0907305004324328
30.321743999999995,8.559046154029497,0.0904041352472925
30.324132,8.554862544513036,0.0900910783422409
30.326516,8.549468230183079,0.0897932646541597
30.328911999999995,8.546727642905594,0.0894851120666586
30.331296,8.546780552307446,0.0891630487165397
30.33368,8.549626958388632,0.0888271696535205
30.336076,8.552193825216099,0.0885025493620957
30.338468,8.552758591297147,0.0881913747932285
30.340848,8.549039616631642,0.0879199078535613
30.343244,8.542899232339137,0.0876794742700583
30.345632,8.53862117916619,0.0874296745781956
30.348012,8.52312191744766,0.0872670602926894
30.350412,8.511207548341385,0.0870921786378436
30.3528,8.498454561473947,0.0869497826251051
30.355184,8.485701574606509,0.0868069709552675
30.35758,8.475742084418405,0.0866508914772625
30.359968,8.469879343521754,0.0864947734204151
30.362348,8.46438868967744,0.0863562940131071
30.364744,8.467558065124852,0.0861691251652487
30.367132,8.466676017251187,0.0860433921141907
30.369516,8.464163955683441,0.0859494757241833
30.371912,8.467378657101229,0.0858256519895487
30.3743,8.474737329638705,0.0856702279652058
30.376684,8.48637974292274,0.0854776663005055
30.37908,8.496020055460354,0.0852987320428246
30.381468,8.505800137624831,0.0851153889457058
30.383852,8.51357811904289,0.0849448765095503
30.386248,8.527222633073338,0.0847407187280803
30.388636,8.546733679716178,0.0845030637726365
30.39102,8.567175891918797,0.084261496077082
30.393416,8.586267629681057,0.0840399281476814
30.395804,8.605871224122515,0.083827771156711
30.398188,8.620539451511359,0.0836460955314957
30.400584,8.63390442628809,0.0834504754805802
30.402972,8.650342436997875,0.0832333815214577
30.405368,8.66556974289416,0.0830317355457637
30.407764,8.67935402655147,0.0828218702575683
30.410152,8.693557619089361,0.0825969310683279
30.412532,8.700032347895304,0.0824141085049565
30.414928,8.713212227074798,0.0821670719538276
30.417316,8.719594408082125,0.0819560287620176
30.419696,8.722531466104058,0.0817501694496184
30.422092,8.71918268263302,0.0815930047147844
30.42448,8.713552259161846,0.0814592043278826
30.426864,8.708992770877312,0.0813163717154783
30.429268,8.702431181846357,0.0811859296469895
30.431656,8.70136403837546,0.0810063833794983
30.434036,8.69922595971792,0.0808365799879097
30.436432,8.692292283634627,0.0806892860294914
30.43882,8.686709081991696,0.080523153770455
30.441204,8.684478455535542,0.0803264877142897
30.4436,8.692305554639715,0.0800393453089078
30.445988,8.706418495236855,0.079707420404477
30.448368,8.724535637326833,0.0793534278345771
30.450764,8.743444175349728,0.0790046393300727
30.453152,8.760909691133646,0.0786468633697053
30.455536,8.780796616544562,0.0782638933526198
30.457932,8.799892146022561,0.0778806081155363
30.46032,8.823271416247113,0.0774654748779487
30.462704,8.841063693112993,0.0770710337585237
30.4651,8.867423451471984,0.0766130077949003
30.467488,8.896576706510311,0.0761486287207566
30.469868,8.932155572668467,0.0756384922089573
30.472264,8.97071492696106,0.0750869958331805
30.474652,9.011183834201455,0.0745020397757019
30.477036,9.05300321588221,0.0739009791978934
30.479432,9.089235604204294,0.0733196653735624
30.48182,9.124304509541124,0.0727235395030716
30.484212,9.16021203263911,0.0720979415355558
30.486616,9.194956072751843,0.0714566227730303
30.489004,9.228676399506185,0.0707964209289012
30.491384,9.254667862528573,0.0701715092677085
30.493776,9.27856467700593,0.069534812806374
30.496164,9.30316033961759,0.0688805422819537
30.498548,9.32207646107196,0.0682141140967435
30.50094,9.344624696966829,0.0675156778560041
30.503332,9.3666610761825,0.0668091209985796
30.505711999999995,9.386463037226276,0.0660897198575985
30.508108,9.404821976031077,0.0653629803950608
30.510496,9.424531389276233,0.0646209348523682
30.512876,9.437862413229803,0.0638880002741514
30.515276,9.44444296083945,0.0631437153504861
30.517664,9.444784888784367,0.0624018984329972
30.520044,9.438329118557116,0.0616787360748968
30.52244,9.428940082023669,0.0609647169100389
