Time,Force,Position
31.659831999999994,5.90645258369172,0.1544018100847743
31.662232,5.905428870333323,0.1543788151132861
31.66462,5.907478192907983,0.1542897899156486
31.666999999999994,5.9163252136548135,0.1540726375398921
31.669396,5.926894795894339,0.153835727431237
31.671783999999995,5.948406047425725,0.1533836106893673
31.674164,5.972850565263308,0.1528738524294148
31.676564,5.99999603198161,0.1522774518360742
31.678951999999995,6.030494073886684,0.151592144366879
31.681332,6.055777209485427,0.151014896104076
31.683736,6.080361496949871,0.1504860481112756
31.686124,6.100522274040899,0.150065773896728
31.688503999999995,6.122126073370904,0.1496455588152374
31.6909,6.14251916788741,0.1492680703529335
31.693287999999995,6.165845528710111,0.1488319023567508
31.695671999999995,6.190103055092591,0.1483771249801204
31.698068,6.212078941474933,0.1479869210069334
31.700456,6.234334367110995,0.1475778494408477
31.702839999999995,6.257940267187417,0.147126158321857
31.705236,6.278892440211364,0.1467172564664211
31.707624,6.297842512488893,0.1463515205345094
31.710007999999995,6.31292815290045,0.1460562920618438
31.712404,6.331086829245061,0.1457032129166452
31.714792,6.344589677790783,0.1454281372764306
31.717175999999995,6.353436698537611,0.1452261190874447
31.719572,6.355625790739132,0.1451351033103491
31.72196,6.356232091074816,0.1450553869845174
31.72434,6.3560469954775805,0.1449814432710891
31.72674,6.358934935813402,0.1448496294669131
31.729128,6.370110818388612,0.1445558432342854
31.731508,6.384499506523734,0.144198345163893
31.733903999999995,6.408107302458026,0.1436722436254393
31.736292,6.42999253689962,0.1431684701911183
31.738676,6.445591929848244,0.1427853790835841
31.741072,6.468128790595896,0.1422929689749094
31.74346,6.49639241432908,0.1417201487580305
31.74584,6.522793706942705,0.1411733408909257
31.748236,6.548403603623412,0.1406305370309564
31.750623999999995,6.573361873998062,0.1400865291046357
31.753004,6.598599683626431,0.1395296465094961
31.755399999999995,6.621463305456047,0.1389861724388598
31.757788,6.647679502472439,0.1383738658758175
31.760183999999995,6.667237770943522,0.1378607239282817
31.76258,6.685073477921909,0.1373638619202024
31.764968,6.70705315601999,0.1367928091144999
31.767351999999995,6.730615625983908,0.1362132660146084
31.769748,6.760044628560215,0.1355501016963375
31.772136,6.7921273581889965,0.1348646545066188
31.774516,6.820066116698085,0.1342574804628085
31.776916,6.843721134460618,0.1337345326999731
31.779304,6.8615096196107626,0.1333007597804259
31.781684,6.872081097708157,0.1329939175766158
31.784084,6.884514906925108,0.1326657687017946
31.786472,6.902303392075251,0.1322385257532987
31.788852,6.908079272746894,0.1319992812910152
31.791252,6.906126289686589,0.1318685075197375
31.793636,6.906454946626423,0.131691797757833
31.79602,6.907714769126033,0.1315034520662369
31.798416,6.910836922745202,0.1312931498357293
31.800804,6.9120967452448125,0.1311057726799729
31.803188,6.918012395543315,0.1308627318002554
31.805584,6.920855009908762,0.1306691825549896
31.807972,6.927050199460985,0.1304109934522923
31.810356,6.93683028162546,0.1301161324000913
31.812752,6.94446849341666,0.1298602686472765
31.81514,6.951594848528663,0.1295936327913253
31.817524,6.95350629733433,0.1294136221899355
31.81992,6.951693083900887,0.1292770625253097
31.822308,6.949600331213722,0.1291551014806597
31.824692,6.950720384086472,0.1289789858305061
31.827096,6.957567199944754,0.1287317917534418
31.829484,6.966416116549452,0.1284560448137885
31.831864,6.971260831661318,0.1282378292148202
31.834267999999994,6.977828108265878,0.1280080202666526
31.836659999999995,6.989610291176772,0.1276936727322025
31.83904,7.005396675580498,0.1273211736409641
31.841435999999995,7.019041189610948,0.1269856303442093
31.843824,7.033896408454895,0.1266262868216443
31.846208,7.046749526552428,0.1262971850702233
31.848608,7.061464975769515,0.1259481740513632
31.850995999999995,7.073247158680408,0.12563986388376
31.853376,7.086100276777939,0.1253139864536334
31.855776,7.101467352301085,0.1249754004141903
31.85816,7.116182801518174,0.1246351941374777
31.86054,7.127964984429067,0.1243305595811604
31.862944,7.137465527339822,0.124067183087665
31.865331999999995,7.146174674317661,0.1238062516571738
31.867712,7.156746152415055,0.123525882493059
31.870116,7.172672306445643,0.1231619790984503
31.872504,7.184594258983396,0.1228528229113924
31.874883999999994,7.192791549282036,0.1225845049145452
31.877288,7.198474882155062,0.1223310947957842
31.879676,7.207231250961143,0.1220339629161308
31.882056,7.209981317527973,0.1218167679509478
31.884452,7.215804420027858,0.1215579969574132
31.88684,7.223909162527881,0.1212616413500759
31.889219999999995,7.232153674654763,0.1209576481106587
31.891616,7.240677726035367,0.120641699494579
31.894003999999995,7.248550151109913,0.1203210141256562
31.896384,7.254700014691761,0.1200124154164129
31.898788,7.261269187154191,0.1196834065437919
31.901176,7.267978129243482,0.1193480419240598
31.903555999999995,7.272033344280297,0.1190348295143619
31.90596,7.273295062637778,0.1187485490066696
31.908348,7.27991145692845,0.1183830430189387
31.910728,7.289740656779039,0.1179698729845583
31.913128,7.301991266256627,0.1175123546049831
31.915516,7.310656983121959,0.1170828020643153
31.917896,7.313735706628623,0.1167080461318572
31.920292,7.318164904575645,0.1163028291431663
31.92268,7.322873641776387,0.1158833699728503
31.925059999999995,7.329724249350407,0.1154325984565008
31.92746,7.336202769872089,0.1149647248898653
31.929844,7.349386440767321,0.1143918517134
31.932227999999995,7.359776614983218,0.1138485282017403
31.934624,7.365231422146503,0.1133623800888595
31.937012,7.372967869309925,0.1128405975077692
31.939392,7.37856244610007,0.1123498338566828
31.941792,7.384157022890216,0.1118585740646846
31.94418,7.392824635613416,0.1113317927649786
31.94656,7.401632017963477,0.1107999150196068
31.948955999999995,7.407645903634203,0.1102904782127831
31.951344,7.41272862374515,0.109789080182735
31.953724,7.419533905348794,0.1092780654970396
31.95612,7.425268251765798,0.1087849441083825
31.958507999999995,7.431282137436524,0.1082810828806894
31.960892,7.435293922360833,0.1078001002028489
31.963283999999994,7.445032470270671,0.1072689291547604
31.965672,7.455562414113428,0.1067359600654549
31.968056,7.467954689075743,0.1061898590634695
31.970451999999995,7.4802071944111965,0.1056502080769085
31.97284,7.493251095679568,0.1051125610201201
31.97522,7.507738019186915,0.1045837541609192
31.977624,7.5179412019477105,0.1041124010971509
31.980011999999995,7.52600251433523,0.1036675204701689
31.982392,7.533132661162969,0.1032273725400069
31.984792,7.541845599856546,0.102790053084972
31.987179999999995,7.552281100042819,0.1023464021911928
31.98956,7.566720801721925,0.1018659363445651
31.991955999999995,7.57487466190806,0.1014569802951829
31.994344,7.582609213213615,0.1010681687016833
31.996728,7.596722153810758,0.10064126861381
31.999123999999995,7.610835094407901,0.1002142601496761
32.001512,7.628021070938099,0.0997584669016276
32.00389199999999,7.641994241908382,0.0993412140776889
32.080355999999995,7.21827634428884,0.0990256585439463
32.082736,7.227680547685238,0.0989953959141675
32.08752,7.245138480037679,0.0989600375725621
32.089904,7.251749186754743,0.0989481792416648
32.092299999999994,7.264366195711059,0.0988784228028419
32.094688,7.276471347988178,0.0987953237783147
32.09706799999999,7.290438831384852,0.0986989407799904
32.099467999999995,7.306687954781665,0.0985701381112636
32.101851999999994,7.329222919671449,0.0983696377863622
32.104251999999995,7.3501750926953955,0.0981679790705425
32.10664799999999,7.366052129039869,0.0980179642996211
32.109036,7.384582892436819,0.0978559911194748
32.111419999999995,7.398597597661737,0.0977213358097621
32.113823999999994,7.41461440363307,0.0975679220834778
32.116212,7.432773079977682,0.0973903174846912
32.118592,7.450140360389375,0.0972138077284967
32.120988,7.462991582629037,0.0970629798096079
32.12337599999999,7.469184876323393,0.0969622759301246
32.125756,7.476449105204385,0.0968488038071112
32.12815199999999,7.486506830764712,0.0967174188749049
32.13054399999999,7.492839894085926,0.0966114330358792
32.132924,7.498521331101082,0.0964985871172107
32.13531999999999,7.508206969609072,0.0963490048848359
32.13771199999999,7.523479601475731,0.0961643522481412
32.140092,7.533956635916638,0.0960164799703033
32.14248799999999,7.546156231850244,0.0958634540706063
32.144876,7.562499798903543,0.0956698914071302
32.14726,7.577492891516483,0.0955014040507314
32.14965599999999,7.590344113756146,0.095358354282328
32.152044,7.606640458981201,0.0952048387959693
32.154424,7.628943106445507,0.0949981101719479
32.15682,7.646729695737782,0.0948140318967867
32.159212,7.664096976149476,0.0946484011827397
32.161592,7.68160402618803,0.094478086570189
32.16399199999999,7.696177809920388,0.0943319498317096
32.166376,7.710611824025887,0.0941926416622729
32.16876,7.726908169250941,0.0940424769947106
32.17115999999999,7.744927075968692,0.0938864876355723
32.173548,7.764016917873083,0.0937192738212849
32.175932,7.780033723844419,0.0935813491804849
32.17832799999999,7.794560285748536,0.093473234443237
32.180716,7.811880344331986,0.0933489733123548
32.183096,7.8281294677287985,0.0932372775602495
32.185492,7.836649727393662,0.0931817429278546
32.18787999999999,7.847823714111001,0.0931157462260192
32.190264,7.862862132694317,0.0930233439507467
32.19266,7.870683544224881,0.0929990662564776
32.19504799999999,7.881857530942221,0.0929352055391063
32.197432,7.891448725793724,0.092870166390582
32.199828,7.900528063966029,0.0927929951888093
32.20221599999999,7.907884840645639,0.0927211184868727
32.204595999999995,7.917383487698524,0.0926268361381293
32.206999999999994,7.928791687699211,0.092486338078846
32.20938399999999,7.937546160647424,0.0923558797640024
32.211763999999995,7.948861812849492,0.092186710243411
32.21416,7.960596773932142,0.092000818438385
32.216548,7.972471504641652,0.0918100143534467
32.218928,7.982903213112186,0.0916111472677298
32.221332,7.991612360090023,0.0914166950107187
32.22371999999999,8.002603147067997,0.0911948747608666
32.226099999999995,8.01722604848647,0.0909237784034864
32.228503999999994,8.030266158039106,0.0906522389190075
32.230892,8.041863245352765,0.0903734182137451
32.233272,8.063750375652228,0.0900074572584693
32.235668,8.086056814832272,0.0896259513270319
32.23805599999999,8.10077415990723,0.0892897822035327
32.24044,8.118844080168964,0.0889148700827558
32.24283199999999,8.133980734124501,0.0885623088395932
32.24522,8.151119488826456,0.0881955666169103
32.2476,8.167187308341772,0.0878402160182132
32.250004,8.180461631177755,0.0874988409112867
32.25239199999999,8.195738054760152,0.0871443918187749
32.254772,8.209664003902192,0.0868130625031431
32.257175999999994,8.224660888230868,0.0864719349177011
32.25955999999999,8.23616542774591,0.0861735067012134
32.26194,8.244596931327898,0.0858996153637832
32.264332,8.251166103790329,0.085634834140296
32.26672,8.26281041293223,0.0853327325847369
32.269099999999995,8.27659659244741,0.0850117064047463
32.27150399999999,8.292664411962727,0.0846684111800186
32.273892,8.305798965171848,0.0843446058457228
32.276272,8.317071187261414,0.0840289613477486
32.278668,8.329414344537616,0.0837042259513773
32.281051999999995,8.332678163641512,0.0834448992330191
32.283432,8.337292457185768,0.0831667947472123
32.285847999999994,8.342977685916663,0.0828778672589041
32.288231999999994,8.348942453901278,0.0825784866225653
32.29061599999999,8.35011162446014,0.0823024530998286
32.29302,8.352351730205644,0.082018459145553
32.295404,8.355011144831726,0.0817183678856565
32.29778399999999,8.358741494644446,0.0814083301382152
32.300188,8.361680448524249,0.0810981544923174
32.302575999999995,8.364759172030913,0.0807828951198924
32.304956,8.367977665164437,0.080462718140079
32.30736,8.370824071245623,0.0801235777511195
32.309748,8.375160721394026,0.079758332764817
32.312127999999994,8.38084784598279,0.0793734075580175
32.314524,8.382530769078722,0.0790149621945725
32.316911999999995,8.38421369217465,0.0786578910794741
32.319292,8.38217195303147,0.0783156511564187
32.321696,8.379059278701648,0.0779812015333932
32.324079999999995,8.379811036237799,0.0776285479808615
32.326463999999994,8.381354189706869,0.077278838927267
32.32886,8.387041314295633,0.0768998286333724
32.331247999999995,8.389515633324482,0.0765475319212534
32.333628,8.396273693099884,0.0761622354603819
32.336032,8.401960817688646,0.0757855887936549
32.33842,8.4147251797033,0.0753656815674178
32.340799999999994,8.42362510985198,0.074964126939781
32.343196,8.433875514441018,0.0745456539312859
32.34558,8.44813012052289,0.0741072756646276
32.34795999999999,8.459591229925428,0.0736781198497979
32.350356,8.469469547462127,0.0732441766646995
32.352743999999994,8.477345764252412,0.0728208771095374
32.355124,8.486013376975617,0.0723994505999942
32.357519999999994,8.493330515258458,0.0719958482530499
32.359908,8.498505783168024,0.0716080109207554
32.362292,8.504612216637367,0.071217682787177
32.364695999999995,8.50685421824074,0.0708427788635678
32.367079999999994,8.507745745403751,0.0704854431268923
32.36946,8.51278124368646,0.0701027791496644
32.371863999999995,8.516745806782527,0.0697297498377018
32.374247999999994,8.515914772452842,0.0693733171362907
32.376628,8.513361176630461,0.0690169441331702
32.379036,8.508805480061664,0.0686692022396315
32.381424,8.50089720830609,0.0683497936275555
32.383804,8.493128706177377,0.0680245592753987
32.386199999999995,8.482287168115608,0.0677167476045196
32.388588,8.473447730800258,0.067398638406872
32.390967999999994,8.460324552738351,0.0671091118393251
32.393372,8.442266007623834,0.0668403614297547
32.395756,8.424719319188513,0.066583930082467
32.398135999999994,8.407404948178671,0.0663502377041508
32.400535999999995,8.395957109781218,0.0660941448405184
32.402919999999995,8.384369501756906,0.0658425493878536
32.4053,8.376786095225427,0.0655727217266218
32.407703999999995,8.37292735093306,0.065295232132047
32.410092,8.369068606640695,0.0650178775128653
32.412471999999994,8.36986569014722,0.064731116035953
32.414868,8.368660672907328,0.0644514507343074
32.417255999999995,8.362380518987965,0.0641962407088634
32.419639999999994,8.353167098762407,0.0639512787092219
32.422036,8.350751376709017,0.0636834138563051
32.424423999999995,8.346705640961549,0.0634422529179618
32.426804,8.344242697079915,0.0632069102780456
32.429199999999994,8.342710918758062,0.0629696822948183
32.431588,8.340620061928766,0.0627527051633171
32.43396799999999,8.33810989621889,0.062550832077197
32.436367999999995,8.33103645050874,0.0623860537538994
32.438756,8.328059754090038,0.0622333906356957
32.44113599999999,8.3245239791639,0.0621009361283124
32.443532,8.322059139424395,0.061961442969818
32.445919999999994,8.320665234871532,0.0618149062443441
32.4483,8.312845719198839,0.0617098377364269
32.450703999999995,8.306888534645699,0.0616014023309366
32.453092,8.297439005278926,0.061523729993665
32.455476,8.28384550479246,0.0614677752655693
32.45788,8.269041299492493,0.0614233959316998
32.460268,8.25116405825947,0.0613936270460906
32.462647999999994,8.239944745571755,0.0613477478210154
32.465044,8.231099620682796,0.0613126902166795
32.467431999999995,8.223045891726754,0.0612810930335854
32.469812,8.20977725646438,0.0612774955614283
32.472212,8.198370952321564,0.0612709500287384
32.474596,8.188315122619104,0.0612471428193112
32.47698,8.181192559222842,0.0612135868494896
32.479375999999995,8.177143031759634,0.0611653968787345
32.481759999999994,8.1793793457894,0.0610834072766038
32.48414399999999,8.186690796498635,0.060978683811939
32.48654,8.19442155608845,0.060859183170824
32.488927999999994,8.205365121238183,0.0607200987070401
32.491324,8.214166816014638,0.0605938574386502
