Time,Force,Position
6.133504,0.007198053320749332,0.0
6.135883999999999,0.003106989987342144,0.0
6.138287999999999,8.68618405734859e-05,0.0
6.140675999999999,8.68618405734859e-05,0.0
6.143056,8.68618405734859e-05,0.0
6.145451999999999,0.0,0.0
6.147839999999999,0.0,0.0
6.150219999999999,0.0,0.0
6.152623999999999,0.0,0.0
6.155007999999999,0.0,0.0
6.157387999999999,0.0,0.0
6.159792,0.0,0.0
6.162179999999999,0.0,0.0
6.16456,0.0007857099748745367,0.0
6.166964,0.0007857099748745366,0.0
6.169352,0.0007857099748745366,0.0
6.171731999999999,0.0007857099748745367,0.0
6.174128,0.0007857099748745367,0.0
6.176511999999999,0.0007857099748745367,0.0
6.178891999999999,0.0007857099748745367,0.0
6.1813,0.0007857099748745367,0.0
6.183684,0.0007857099748745367,0.0
6.186064,0.0007857099748745367,0.0
6.188468,0.0007857099748745367,0.0
6.190856,0.0010595632705513842,0.0
6.193235999999999,0.003335517312645082,0.0
6.195632,0.007753341728015842,0.0
6.19802,0.015244202076441983,0.0
6.2004,0.021664127238229594,0.0
6.202795999999999,0.029294757213515946,0.0
6.205183999999999,0.03478351681552524,0.0
6.207564,0.039201341230896,0.0
6.209959999999999,0.04455033120604508,0.0
6.212347999999999,0.049905007139237734,0.0
6.214732,0.056836788980223034,0.0
6.217127999999999,0.06376857082120833,0.0
6.219515999999999,0.06776708635599846,0.0
6.221912,0.07376770263720543,0.0
6.224307999999999,0.07762644854513535,0.0
6.226692,0.08348729519948213,0.0
6.229075999999999,0.08906860260010847,0.0
6.23148,0.09357897481409629,0.0
6.233867999999999,0.09715818146830578,0.0
6.236248,0.09938691368215632,0.0
6.238643999999999,0.10241272778696857,0.0
6.241031999999999,0.10450737633200247,0.0
6.243411999999999,0.10324944969026058,0.0
6.245808,0.09584545118240795,0.0
6.248199999999999,0.09165425823447086,0.0
6.250579999999999,0.08932539640609044,0.0
6.252976,0.09020934013762562,0.0
6.255364,0.09402655017535597,0.0
6.257743999999999,0.09491049390689113,0.0
6.26014,0.09407187614572987,0.0
6.262523999999999,0.09179023614559259,0.0
6.26492,0.08950859614545531,0.0
6.267315999999999,0.09309348875770838,0.0
6.2697,0.09560744618332292,0.0
6.272084,0.10226537472863137,0.0
6.274479999999999,0.10678143290066278,0.0
6.276864,0.11078563439349645,0.0
6.279244,0.11278773513991333,0.0
6.28164,0.11371890069969166,0.0
6.284027999999999,0.11721124551332764,0.0
6.286412,0.11548868402063121,0.0
6.288815999999999,0.11111808143350363,0.0
6.2912,0.10795818365987475,0.0
6.293579999999999,0.10851726216731558,0.0
6.29598,0.10786563586125769,0.0
6.298363999999999,0.10256386771435178,0.0
6.30076,0.0961911643808073,0.0
6.303156,0.08795612992770621,0.0
6.305539999999999,0.08172319622102195,0.0
6.307919999999999,0.07642142807411603,0.0
6.310324,0.07177128623326799,0.0
6.312711999999999,0.06712114439241997,0.0
6.315092,0.05953773624537678,0.0
6.317487999999999,0.05102316253855526,0.0
6.319875999999999,0.040506488085316886,0.0
6.322255999999999,0.030129583258938726,0.0
6.324651999999999,0.02054407436547867,0.0
6.32704,0.014031601405074,0.0
6.329419999999999,0.00952122919108618,0.0
6.331828,0.003800152163599621,0.0
6.334211999999999,0.0053829440294358415,0.0
6.336596,0.012826582549618831,0.0
6.338991999999999,0.01826812032338497,0.0
6.341379999999999,0.02227232181621867,0.0
6.34376,0.022272321816218674,0.0
6.346155999999999,0.02227232181621867,0.0
6.348543999999999,0.022272321816218674,0.0
6.350923999999999,0.022918262164232997,0.0
6.35332,0.023424432885387116,0.0
6.355703999999999,0.028726201032293047,0.0
6.358103999999999,0.03374842992547855,0.0
6.3605,0.041843694751719444,0.0
6.362883999999999,0.04989173774971718,0.0
6.365264,0.06129046007662147,0.0
6.367668,0.08041615027760353,0.0
6.370051999999999,0.10778066503186098,0.0
6.372435999999999,0.14524633545895052,0.0
6.374832,0.18750570745392262,0.007075673203197156
6.37722,0.23604902508399647,0.014177390508998657
6.3796,0.28622046055028044,0.021737537441251193
6.381995999999999,0.33364941126564696,0.029941921812234176
6.384383999999999,0.3815883228023419,0.03834492257197435
6.386763999999999,0.4405595555716472,0.04660415256064352
6.389159999999999,0.5065589080807292,0.054982432161587574
6.391548,0.5855001347702214,0.06303388132645957
6.393927999999999,0.6713712474428297,0.07108995130775711
6.396327999999999,0.7627349098176216,0.07911906704217554
6.398716,0.8597365774795009,0.08709977284640094
6.401095999999999,0.9626028818959014,0.09514697365872682
6.403504,1.0641168160140735,0.10343303491774623
6.405887999999999,1.1764307539393788,0.11150471404757159
6.408272,1.2916760623130101,0.11958189973288441
6.410667999999999,1.4134395296050897,0.1274862026663492
6.413055999999999,1.5317125479414022,0.1354122025918279
6.415436,1.6396048713511626,0.14343760409114137
6.417831999999999,1.7384669742747292,0.15148209493413123
6.420219999999999,1.8252258207790468,0.15963404140311008
6.422616,1.9107758583277354,0.1605649167580027
6.425011999999999,1.9912054332265774,0.16149838973725317
6.427399999999999,2.073452013274602,0.16185764158010613
6.429779999999999,2.15765536809867,0.16152089424050803
6.432176,2.237716647660913,0.16098939656360703
6.434564,2.3066058363636857,0.16072028146734466
6.436947999999999,2.3739141290584915,0.1601433946015664
6.439344,2.4327966057449184,0.15988139057751616
6.441732,2.4917735260878318,0.15942612488920765
6.444111999999999,2.545769753407759,0.15902167542843396
6.446508,2.593202495838863,0.15870388231787608
6.448896,2.6357017670752256,0.15830504229885173
6.451279999999999,2.676759911930481,0.15758243479104092
6.453676,2.7090201537250196,0.15702839383532638
6.456059999999999,2.7340652843246787,0.1565381661399122
6.45844,2.7560846008195257,0.15613000520811976
6.460839999999999,2.7827597451132644,0.15556596232598818
6.463224,2.814742343511952,0.15483252458847066
6.46562,2.845514237097141,0.1541554248989368
6.468019999999999,2.8733528643761352,0.15355903669226817
6.470404,2.896815203109958,0.15312151719511613
6.472788,2.9149700877388316,0.15284267632500018
6.475183999999999,2.9315421805018684,0.15261264984894216
6.477572,2.943458445466015,0.15255847155984825
6.479951999999999,2.956445645616799,0.15245135058906795
6.482351999999999,2.9747875217007764,0.15207148941302076
6.484739999999999,2.983677972560109,0.1520644827400588
6.487119999999999,2.98912330043405,0.1521581239092616
6.489516,2.9857688293894045,0.15262814956265996
6.491904,2.984276689464316,0.15302331775146427
6.494283999999999,2.983715715099006,0.15338317654485936
6.49668,2.9802214744275006,0.15387091401618186
6.499067999999999,2.9725832626363013,0.15456034707016603
6.501464,2.9627106326732076,0.1552731599919003
6.503864,2.9548401034565317,0.15589835003050664
6.506247999999999,2.940451415321408,0.1567740937621144
6.508631999999999,2.923269230506948,0.1577247659050516
6.511035999999999,2.903293549013153,0.1587660791250035
6.51342,2.8893241697586096,0.1595372241759663
6.515803999999999,2.8862964597959277,0.15984771165458153
6.5182,2.883640836885584,0.1602014140984016
6.520588,2.888714077707187,0.1602510984792097
6.522967999999999,2.892436844088431,0.16038978514432634
6.525364,2.902445451962646,0.16023956216861218
6.527752,2.909008936851468,0.16018374469470448
6.530132,2.9124993858072346,0.1602640961534029
6.532527999999999,2.9239982377486684,0.1600142084440461
6.534915999999999,2.938430355996298,0.15964553354594152
6.537296,2.9574257542442015,0.1590250472838098
6.539695999999999,2.9712534680140155,0.15854505537459612
6.54208,2.986711195477909,0.15795046446803812
6.544464,3.0104568651811907,0.15700723305864817
6.546859999999999,3.0346218437650543,0.15598502006650858
6.549247999999999,3.0560858734681986,0.1551196072886252
6.551627999999999,3.0776896727982033,0.15424396860120854
6.554024,3.1005041769417065,0.15326598169598754
6.556412,3.1209444932864563,0.15234203638206567
6.558795999999999,3.137660147392092,0.15153440079356892
6.561192,3.1474383336986995,0.15103330999190698
6.56358,3.1516295266466363,0.1507503551033265
6.565959999999999,3.156659337355735,0.15035665657409128
6.56836,3.156521463586744,0.15010618104065743
6.570748,3.1570824379520537,0.1497662717120089
6.573131999999999,3.152708045264751,0.1496222978429129
6.575528,3.1551313507496177,0.14922893631318007
6.577919999999999,3.1549009291820096,0.148906946432765
6.580299999999999,3.1505265364947075,0.14876112337416098
6.582699999999999,3.1456402871282085,0.14859209145305127
6.585084,3.1424765992544046,0.14838189486777217
6.587467999999999,3.1441085088063545,0.1480085256574474
6.589863999999999,3.142248073544667,0.1478091832091501
6.592252,3.129026660110536,0.14806338366988003
6.594636,3.1196696785423796,0.148183661647211
6.597031999999999,3.113665272160998,0.14815194343348626
6.59942,3.10593830428692,0.14816081358320815
6.601799999999999,3.105800430517929,0.14792258467353386
6.604199999999999,3.106034643801276,0.1477234654094683
6.606588,3.1180019223094027,0.14712601560193067
6.608979999999999,3.1341131719372237,0.14636009291806204
6.611376,3.145940680818491,0.14576564581404214
6.613759999999999,3.15506724081904,0.14532727456980785
6.61614,3.1667077582452032,0.1448356859148231
6.618532,3.1751354701114516,0.14448191659182083
6.620915999999999,3.1852857434703954,0.14408654573534327
6.623312,3.187148074589953,0.1440290535294356
6.625715999999999,3.1961801909340157,0.14378013340425588
6.6281,3.2081455735842734,0.14343186786207782
6.630479999999999,3.217410007353813,0.1432392262048676
6.632871999999999,3.221599304443881,0.1432401785322704
6.635259999999999,3.2245778967204504,0.14330378290245105
6.637656,3.2284876545567984,0.1433385880019895
6.64006,3.241756289819172,0.1429969256413916
6.642443999999999,3.2547453858278255,0.14269920650809514
6.644824,3.2695968129560358,0.14235228555079793
6.647219999999999,3.2880331326964987,0.14191914179622603
6.649604,3.299811523891653,0.1417001609225732
6.651983999999999,3.3137317854600847,0.14139864082932926
6.654387999999999,3.3177813129232927,0.14142273146707623
6.656772,3.3215513011327795,0.14147893379025658
6.659151999999999,3.3330501530742134,0.1413072919487069
6.661555999999999,3.3520455513221172,0.1408618749527924
6.663943999999999,3.37211188475666,0.14038575664428174
6.666324,3.399115685990231,0.13970798617238708
6.668732,3.4266785657312435,0.1389796038716602
6.671116,3.4605272869652266,0.1380326288127302
6.673496,3.4878578492807613,0.137261766670783
6.675899999999999,3.511044440476603,0.13662654736358545
6.678284,3.5395857076056365,0.13580350167830993
6.680664,3.5725504851080845,0.13481443972051255
6.683067999999999,3.6050034059313347,0.13380987898962549
6.685456,3.638806801194944,0.13274038443862998
6.687835999999999,3.66739529015222,0.13186049646546807
6.690232,3.6941214479899402,0.13103278079058447
6.692615999999999,3.7199164402678813,0.130240530324395
6.694996,3.741195374373792,0.12954560125696415
6.6974,3.7644764092261194,0.12879479090234117
6.699783999999999,3.78603488258575,0.12807945013360586
6.702164,3.8074535863185206,0.12736288451878722
6.704568,3.831945325984347,0.12657221232238144
6.706956,3.8507103026646425,0.12592791416192375
6.709335999999999,3.8594647756128544,0.12556111193667263
6.711739999999999,3.8642150470682326,0.1253037549338464
6.714124,3.8600257499781647,0.12528513170390596
6.716503999999999,3.8554171440075167,0.1253073242897903
6.718907999999999,3.8448022357976175,0.12549008993185637
6.721295999999999,3.838051759453692,0.12557924351501853
6.723675999999999,3.835585023856321,0.1255337823087762
6.72608,3.8312559571393927,0.1255264656163016
6.728463999999999,3.823294775981968,0.12565809168554823
6.730843999999999,3.81705615631724,0.12576306899933268
6.73324,3.8101659103464542,0.12585823452718042
6.735628,3.8047659084428873,0.12588103404132198
6.738007999999999,3.7995056761661807,0.12589020796994158
6.740404,3.7928949694491156,0.1259580215005581
6.742792,3.790800320904082,0.12594646289209702
6.745172,3.7885659027321874,0.12594795593865718
6.747567999999999,3.786191714933433,0.1259626239290086
6.749955999999999,3.7891722030678716,0.1258209556868721
6.752336,3.7832131226568646,0.12589472103434912
6.754731999999999,3.778836834111693,0.1259598258066284
6.757119999999999,3.7831205748582475,0.12583252941446108
6.759499999999999,3.792619221911134,0.12556132330651118
6.761904,3.8070532360166327,0.12516548883184497
6.764291999999999,3.8204163149354926,0.12480278210749057
6.766672,3.8375040560934663,0.12436001568448862
6.769076,3.8504478261317456,0.12403308697386489
6.771459999999999,3.8603185602369696,0.12379200810711169
6.773843999999999,3.865905553595639,0.12367867369625243
6.776247999999999,3.8729827910215278,0.12349074230993153
6.778632,3.8777783884472803,0.12338261719738713
6.781011999999999,3.8837374688582873,0.12330558825615767
6.783408,3.892070737068049,0.12321565982681627
6.785796,3.903337271584006,0.12306143802837109
6.788176,3.917956381286739,0.12280437536480093
6.79058,3.9277798935637196,0.12264943120182703
6.792968,3.9366722402809224,0.12251286336253038
6.795347999999999,3.947706457371402,0.12231789959175099
6.797751999999999,3.9545967033421876,0.12223274278939318
6.800136,3.9693555826717817,0.12196947314705298
6.80252,3.9843940012550947,0.12167921317925559
6.804912,3.9947765920395155,0.12147934475955169
6.8073,4.000735672450523,0.12141246453740272
6.80968,4.00669475286153,0.12134638658134969
6.812083999999999,4.015726869205594,0.12120713594769941
6.814472,4.025178294430237,0.12103221888510728
6.816851999999999,4.039704856334352,0.12073921537539423
6.819248,4.0550228141713855,0.12044052372565671
6.821636,4.077418009434309,0.11997883892343318
6.824019999999999,4.1007443702570106,0.11950450540857063
6.826416,4.121556773654096,0.11904689094686809
6.828799999999999,4.1427884859317645,0.11855871659020499
6.831183999999999,4.162297636716735,0.11809862984905947
6.83358,4.174589780448956,0.1178094313370168
6.835967999999999,4.180875621941927,0.11765289770327583
6.838348,4.191165664927732,0.11740825955194595
6.840743999999999,4.201315938286676,0.11717551004491483
6.843131999999999,4.209324341272343,0.11700115646936646
6.845516,4.221057406497124,0.1167658376136621
6.847911999999999,4.234001176535404,0.11649995900844581
6.850296,4.249226586573822,0.11617249207142905
6.852691999999999,4.266034788478075,0.11583901657265519
6.855091999999999,4.286195565569103,0.11541540522189128
6.857476,4.305564946727213,0.11499703852714355
6.859859999999999,4.322280600832849,0.11461686519700232
6.862256,4.338856485311625,0.11425266718726
6.86464,4.351987246805008,0.11392607467113389
6.86702,4.367679187552247,0.1135187282359191
6.869423999999999,4.3795066964335145,0.1131831504793217
6.871812,4.391334205314782,0.11285048593786096
6.874191999999999,4.409168016435299,0.1124066088495757
6.876588,4.424487870130203,0.11198334720281847
6.878976,4.4359432919591315,0.11162135860738005
6.881359999999999,4.456617821587227,0.11107636712284757
6.883756,4.483298653454574,0.11042005648822513
6.886144,4.509188089389001,0.10977455952775349
6.888524,4.534565668644232,0.10910753655269032
6.89092,4.561014183086101,0.10841957644036063
6.893307999999999,4.585088509729216,0.10774563084954199
6.895704,4.600083498200024,0.10723806271253714
6.8981,4.6146591777902515,0.10677015610394287
6.900487999999999,4.627791835141504,0.10629477641693116
6.902868,4.636920290999923,0.10589031250886091
6.905263999999999,4.6471196820449805,0.10546522083802914
6.907651999999999,4.6571793034631765,0.10505192540909018
6.910036,4.665376593761816,0.104663059876531
6.912431999999999,4.671943870366376,0.1043371853908083
6.914816,4.675949967717079,0.1040906582400496
6.917195999999999,4.679956065067782,0.10384446714237244
6.919599999999999,4.683170766485567,0.1036003628927788
6.921987999999999,4.682381266410518,0.10342467638392148
6.924367999999999,4.683314327828166,0.10323711518989494
6.926763999999999,4.687180655552009,0.10300366839023188
6.929148,4.681967645103544,0.10292553816765279
6.93154,4.671027871669552,0.10292512901938164
6.933935999999999,4.658085997489142,0.10295684816995342
6.93632,4.647797850361207,0.10296456647444965
6.938699999999999,4.636578537673493,0.10298252836441853
6.941091999999999,4.622937815358782,0.10306447969151582
6.943475999999999,4.615303395283321,0.10304975038848878
6.945872,4.605015248155386,0.10305757504611736
6.948267999999999,4.597241058453066,0.10305252829783408
6.950652,4.5924001350569394,0.10300378086903639
6.953047999999999,4.585557110914396,0.10298721935835645
6.955451999999999,4.577363612331495,0.10301358534258745
6.957835999999999,4.570101279308371,0.1030287540064108
6.960215999999999,4.566982917404942,0.10296814792218338
6.962619999999999,4.5650752603150115,0.1028755195641644
6.965007999999999,4.562096668038444,0.10280432246681546
6.967388,4.558978306135013,0.10274350483637004
6.969792,4.558653440910919,0.10264997899230993
6.972175999999999,4.554836230873189,0.10264167222665338
6.974556,4.552881351955015,0.10261141787253714
6.97696,4.557212314529813,0.1024633401399605
6.979343999999999,4.565128169716862,0.10228132148062562
6.981719999999999,4.573835420836831,0.10209856101631004
6.984128,4.581611506397021,0.10192882701385422
6.986511999999999,4.585103851210658,0.10184290292952401
6.988892,4.590598296770709,0.10172345656845258
6.991287999999999,4.593950871957484,0.10164754084104301
6.993675999999999,4.600096943823597,0.10153896392400005
6.996051999999999,4.6037290582640935,0.10144279930408868
6.998455999999999,4.608432107891228,0.1013266068918737
7.000843999999999,4.617930754944115,0.10114878135360911
7.003224,4.630921746810637,0.10088854997875438
7.005628,4.645914839423576,0.10060003227921796
7.008011999999999,4.661047701663375,0.10030613761999455
7.010392,4.6743182327836195,0.10003321496218837
7.012784,4.68851992946364,0.09974935879138044
7.015172,4.701650690957022,0.09948536433897764
7.017548,4.710637481330712,0.09929218878911045
7.019943999999999,4.722185450958259,0.0990258085449592
7.022328,4.7320108590931085,0.09877195561255428
7.024723999999999,4.74183626722796,0.09852261666400886
7.027127999999999,4.751801444989671,0.09826491139011467
7.029515999999999,4.763908493124658,0.09797007763615866
7.031891999999999,4.775224145326727,0.09767661922601076
7.034295999999999,4.79110307752907,0.09728127160991133
7.036683999999999,4.81019481529133,0.09683219837634018
7.039064,4.832778897867225,0.09630812149970824
7.041468,4.853500649323563,0.09580678257017805
7.043856,4.879949163765432,0.09524941157246096
7.046232,4.903324642274247,0.09474143070234714
7.048627999999999,4.922044292984169,0.0942839684931691
7.051012,4.937690907761035,0.09387477413089913
7.053391999999999,4.946260285112014,0.09356199143031996
7.055788,4.954038266530072,0.09325166048830842
7.058171999999999,4.961676478321271,0.09294969687976773
7.060568,4.97052539492597,0.09262134675048635
7.062963999999999,4.983378513023501,0.09224253886598936
7.065351999999999,5.0006551414944465,0.09178308129636607
7.067727999999999,5.020865036271588,0.09129526325763108
7.070127999999999,5.041726557354785,0.09082032770283324
7.072512,5.059375272878069,0.09040037851210993
7.074892,5.081167959521046,0.0899301012814233
7.077295999999999,5.098956444671189,0.08951025624711136
7.07968,5.116744929821333,0.0890921522214641
7.08206,5.13825807721059,0.08865090074028265
7.084463999999999,5.154696087920376,0.08827615810951867
7.086851999999999,5.167641753816525,0.08797023465718812
7.089231999999999,5.1805874197126744,0.08766492597609203
7.091635999999999,5.183382812249878,0.0874854387961483
7.094019999999999,5.188180305533499,0.08728274497778754
7.096404,5.193489655496318,0.08709953453448535
7.098804,5.201592502138471,0.08689565760893764
7.101191999999999,5.222778888445765,0.08654032747810993
7.103572,5.240472929939422,0.08625024061837179
7.105967999999999,5.261240007366135,0.08592296269720791
7.108355999999999,5.278934048859792,0.08563439633682042
7.110735999999999,5.292484119233755,0.08540178470936056
7.11314,5.305614880727138,0.08519867505804637
7.115527999999999,5.317395167780162,0.08503150957786097
7.117908,5.329315224460045,0.08485682208728158
7.120303999999999,5.34002457632643,0.08470425299457258
7.122688,5.345658791513342,0.08461235692612849
