Time,Force,Position
6.634200000000001,0.0018087708550479954,0.0
6.636588000000001,0.0018087708550479952,0.0
6.638967999999999,0.0018087708550479954,0.0
6.641364,0.0018087708550479954,0.0
6.643752,0.0018087708550479954,0.0
6.646132000000001,0.0018087708550479954,0.0
6.648528,0.0018087708550479954,0.0
6.650916,0.0018087708550479954,0.0
6.653296,0.0038555608917070026,0.0
6.655691999999999,0.01111725723469845,0.0
6.658079999999999,0.015445687271494729,0.0
6.66046,0.02177621805470786,0.0
6.662859999999999,0.023311151412169176,0.0
6.665247999999999,0.026568646262326922,0.0
6.667628,0.031968011485761734,0.0
6.670032,0.03736737670919654,0.0
6.672415999999999,0.04165111745575066,0.0
6.6748,0.04597954749254694,0.0
6.677196,0.050123518612240854,0.0
6.679583999999999,0.057200756038129935,0.0
6.681964,0.06176403603840448,0.0
6.684368,0.07116760275467299,0.0
6.686751999999999,0.0807109390978017,0.0
6.689136,0.09197683693362686,0.0
6.691532,0.1016599429036158,0.0
6.693919999999999,0.11134304887360473,0.0
6.6963,0.121957320403372,0.0
6.698696000000001,0.12949855600008386,0.0
6.701084000000001,0.130988800067303,0.0
6.703463999999999,0.12372710372431157,0.0
6.705868,0.11939867368751529,0.0
6.708256,0.11306814290430216,0.0
6.710640000000001,0.11153320954684083,0.0
6.713036,0.1082757146966831,0.0
6.715420000000001,0.10287634947324828,0.0
6.717804,0.09747698424981346,0.0
6.720199999999999,0.09300878458615698,0.0
6.722584,0.0886803545493607,0.0
6.72498,0.0832809893259259,0.0
6.7273760000000005,0.07587952335607424,0.0
6.729764,0.07127155406555755,0.0
6.732144000000001,0.061867987349289034,0.0
6.734547999999999,0.052324651006160315,0.0
6.736935999999999,0.04105875317033516,0.0
6.739316,0.0349126813042244,0.0
6.741712000000001,0.027695674251475094,0.0
6.7441,0.019547501638947484,0.0
6.746479999999999,0.016474465705892102,0.0
6.748883999999999,0.019407732012087273,0.0
6.751271999999999,0.02522640611610271,0.0
6.753652,0.033186950593395215,0.0
6.756056,0.0442205310037431,0.0
6.758444,0.05246061473475602,0.0
6.760824,0.055625561786296705,0.0
6.763228000000001,0.055625561786296705,0.0
6.7656160000000005,0.05562556178629671,0.0
6.767995999999999,0.05562556178629671,0.0
6.770392,0.05562556178629671,0.0
6.77278,0.05562556178629671,0.0
6.7751600000000005,0.05562556178629671,0.0
6.777556,0.05562556178629671,0.0
6.779944,0.05562556178629671,0.0
6.782324,0.05562556178629671,0.0
6.784724,0.05562556178629671,0.0
6.787108000000001,0.05208852768241855,0.0
6.789492,0.049622428765178916,0.0
6.7918840000000005,0.04715632984793927,0.0
6.794272,0.04268813018428279,0.0
6.796652000000001,0.03621782977420945,0.0
6.7990520000000005,0.03286525458743364,0.0
6.801436,0.028162204960298885,0.0
6.803820000000001,0.017128624549950996,0.0
6.806216,0.008888540818938074,0.0
6.808604,0.005723593767397385,0.0
6.810996,0.006978987871138282,0.0
6.813392,0.009165547534657498,0.0
6.815779999999999,0.011352107198176715,0.0
6.818164,0.016471933167891105,0.0
6.82056,0.01958965839118864,0.0
6.822947999999999,0.01991388693515122,0.0
6.825328,0.01991388693515122,0.0
6.827732,0.01991388693515122,0.0
6.83012,0.01991388693515122,0.0
6.8325000000000005,0.01991388693515122,0.0
6.8349,0.01991388693515122,0.0
6.837284,0.01991388693515122,0.0
6.839664,0.01991388693515122,0.0
6.842068,0.01991388693515122,0.0
6.844452,0.01991388693515122,0.0
6.846836000000001,0.01744778801791158,0.0
6.849239999999999,0.014190293167753831,0.0
6.851628000000001,0.014190293167753835,0.0
6.854007999999999,0.014190293167753835,0.0
6.856404,0.014190293167753835,0.0
6.858792,0.012934899064012937,0.0
6.861172000000001,0.01074833940049372,0.0
6.863575999999999,0.008561779736974504,0.0
6.86596,0.0034419537672601146,0.0
6.868344,0.00032422854396257656,0.0
6.870748,0.0,0.0
6.873131999999999,0.0,0.0
6.875512,0.0,0.0
6.877908000000001,0.0,0.0
6.880296,0.0,0.0
6.882675999999999,0.0015349333574613173,0.0
6.885079999999999,0.002138701155144314,0.0
6.887467999999999,0.0026026993259671005,0.0
6.889848,0.0026026993259671005,0.0
6.892248,0.002602699325967101,0.0
6.8946320000000005,0.002602699325967101,0.0
6.897016,0.002602699325967101,0.0
6.899412000000001,0.002602699325967101,0.0
6.901796,0.002602699325967101,0.0
6.904179999999999,0.002602699325967101,0.0
6.906576,0.002602699325967101,0.0
6.90896,0.002602699325967101,0.0
6.911344000000001,0.002602699325967101,0.0
6.91374,0.002602699325967101,0.0
6.916128,0.002602699325967101,0.0
6.918508,0.002602699325967101,0.0
6.920912,0.0026026993259671014,0.0
6.9233,0.006600576565061318,0.0
6.925680000000001,0.011947032386645252,0.0
6.928083999999999,0.024648369029969447,0.0
6.930472000000001,0.037163350898322026,0.0
6.932852,0.05461180396141739,0.0
6.935251999999999,0.07820443303275429,0.0
6.937639999999999,0.11185035926854833,0.0
6.94002,0.1502899870722249,0.0
6.942424,0.19673612200369972,0.01049080755185629
6.944807999999999,0.2485350370104979,0.02073719773858353
6.947188,0.3064781280255376,0.030715747422694423
6.949584000000001,0.36842352467554174,0.04079842687614838
6.9519720000000005,0.4320895869603731,0.05134758402580234
6.954351999999999,0.5026912211863641,0.06158815577778839
6.956756,0.5792972617937365,0.0716675949233509
6.9591400000000005,0.6620474784093503,0.08157188371122598
6.961524,0.7521525758467045,0.09118103742673693
6.963920000000001,0.8452362655606277,0.1008229317847944
6.966308000000001,0.9423694827377584,0.11039428931697938
6.968687999999999,1.043040370698899,0.11987599072081853
6.971092,1.143530591458676,0.12921627404256686
6.97348,1.2458378173676357,0.1384283620120694
6.97586,1.3411622495071924,0.1476926607084731
6.978255999999999,1.436860664556956,0.15686781312105239
6.980644000000001,1.529487939531533,0.16598594860999952
6.983024,1.6150398729380906,0.17518839006698733
6.985428,1.6891401762314573,0.18450844148596982
6.987812000000001,1.7601693394496376,0.1937382416726074
6.990192,1.825705952965634,0.19236036836432444
6.992596,1.8871930390184233,0.1912218308470103
6.994984,1.9431875753690289,0.19034863663865473
6.997364,1.9990442379506432,0.18913393306843093
6.999759999999999,2.055322105270708,0.18730313604210078
7.002147999999999,2.1025225302763353,0.18593054017334487
7.004528,2.1445099448335,0.18469313624487455
7.006924000000001,2.1839380759946763,0.1834585353181347
7.009312,2.218665053386587,0.18240211766854375
7.011696,2.253067165554403,0.18120087648640587
7.014092000000001,2.2855616206322886,0.17993879406841098
7.0164800000000005,2.315729109739663,0.17868042580547583
7.018859999999999,2.339146122503112,0.17771304733799725
7.021256,2.357255681161611,0.17700812542780467
7.023644,2.380580146126443,0.17599114101978627
7.026039999999999,2.401762740717998,0.17512886638168843
7.028444,2.4249474360559695,0.17417873314336868
7.030831999999999,2.451205167326997,0.17304422566165195
7.033212,2.4793252297175803,0.17179210821794055
7.035608000000001,2.5069334354289667,0.17055034300317262
7.037996000000001,2.5278837125950444,0.16964582821123866
7.040375999999999,2.5484619027087847,0.16870597779245292
7.042776000000001,2.571181963195802,0.1676506777272656
7.045164000000001,2.590037591816845,0.16683275725460345
7.047543999999999,2.6086136811841683,0.16608846420714984
7.04994,2.6334756120444625,0.16498960884587965
7.052328,2.6574063773449788,0.16393630199225864
7.054708000000001,2.6757501492868245,0.16314669153632988
7.057108,2.6935820645494726,0.16236307599236982
7.059492,2.7067581520132293,0.1617825225237767
7.061872,2.718863304290348,0.16127765514116574
7.064276,2.7314803132466636,0.16080805959639405
7.066664,2.7499638548153698,0.16006761560339194
7.069044000000001,2.7735225330635487,0.1590763983689747
7.07144,2.791633987579917,0.15832657194304542
7.073823999999999,2.8123066213501433,0.15741217317779604
7.076208,2.831908319933731,0.15658196899570578
7.078604,2.8513702488904586,0.15579260723484895
7.080991999999999,2.871903113033825,0.1549567579931431
7.083372,2.8901543371770546,0.15424729523568764
7.085768000000001,2.9139000068803367,0.1532362457655007
7.088156000000001,2.9380649854641994,0.1521857991278991
7.090535999999999,2.959716006622447,0.15121914424995622
7.09294,2.981227258153835,0.1502695518212519
7.095327999999999,2.999665473752167,0.14945826362718118
7.097708,3.0128887830441666,0.1488977666173803
7.100104000000001,3.025460466030108,0.14832903014182533
7.102492000000001,3.0391030842026883,0.1476980694832979
7.104888,3.0465996305091583,0.14733464751626188
7.107284000000001,3.056238047188905,0.14686199093214247
7.109668,3.062663658308736,0.1465447465513336
7.112048000000001,3.0673667079358706,0.1462781723059716
7.114451999999999,3.071138592003227,0.14605140999962785
7.116840000000001,3.0702546482716917,0.14598550217484638
7.119219999999999,3.065226733420463,0.14610641586237322
7.121616,3.057917178569097,0.14634555975896105
7.124004,3.046743191851757,0.14673347135565598
7.126384000000001,3.035708974761277,0.14709252204706164
7.128787999999999,3.026117779909774,0.14743618139795503
7.131176000000001,3.0194598513644646,0.14766849444065844
7.133556,3.0141051754312715,0.14790585399775433
7.1359520000000005,3.00726025543086,0.1482412034582803
7.13834,3.000135796176728,0.1486107079992069
7.140724,2.9940822721092344,0.1489322070931431
7.143120000000001,2.9889599136015192,0.14922756184542235
7.145504,2.9878417565866373,0.14936796460669122
7.147884,2.989237556997371,0.14945556241047908
7.150288000000001,2.995568724460716,0.14936607802464524
7.1526760000000005,3.0097685252828676,0.14899562238991956
7.155055999999999,3.027692988344133,0.14852474765401297
7.157452,3.05041304883115,0.14789594153523372
7.15984,3.073784735624225,0.14727402228894718
7.1622200000000005,3.0919415161109676,0.14685526574723248
7.164624000000001,3.113403649956243,0.1463734763582604
7.167012000000001,3.138869985294352,0.14572332641941663
7.169391999999999,3.1634051550726823,0.14509505151449253
7.171792000000001,3.1925961526499047,0.1443192480841747
7.174180000000001,3.2176431791074327,0.1437132437165454
7.176559999999999,3.240316017766207,0.14315323724481935
7.178956,3.2629888564249807,0.14260789988292466
7.181344,3.280866097658003,0.14222069604507567
7.183728,3.2998142740776637,0.1417898692502308
7.186132,3.3174119760569662,0.14143236943902177
7.18852,3.3370117787826845,0.14101366893612732
7.1909,3.358893221508541,0.14049395603231513
7.193295999999999,3.376770462741563,0.14012335319546612
7.195684000000001,3.3930649121087484,0.13977865284319446
7.198064,3.4012111888634076,0.13973043850829706
7.2004600000000005,3.402559767445897,0.1399023806000654
7.202848,3.400975079722192,0.1401661243328148
7.205228000000001,3.3958054993862334,0.14051495211279041
7.207631999999999,3.3904036016247976,0.14080784565071855
7.210019999999999,3.3920789412892507,0.14085880717929167
7.212404,3.3963154602075614,0.14078283174349698
7.214799999999999,3.401902453566231,0.14063732996164374
7.217187999999999,3.412983892484954,0.14028513786424243
7.219572,3.4227620787915605,0.1399268276640486
7.221976000000001,3.4388261065911383,0.1393600040187098
7.22436,3.4539589688309382,0.1388154233716643
7.226743999999999,3.466438104018263,0.13832744929525395
7.229147999999999,3.4824095840192237,0.13769463215567107
7.231535999999999,3.49558756734085,0.1371280694400152
7.233916,3.5103955643565556,0.13645973602396005
7.236312000000001,3.5205477335733693,0.13591046898070924
7.238700000000001,3.5289773412974865,0.13539737605804864
7.241079999999999,3.5396885890217415,0.13479539452141248
7.243476,3.5513310023057745,0.13417476322529576
7.245864,3.5672571563363604,0.13339154254111307
7.248244000000001,3.5883982166732804,0.13243174768482344
7.250644,3.6055350755173663,0.13158543571736547
7.253028,3.6237428695480904,0.1306981466143349
7.255412000000001,3.641391585071374,0.12987400912451486
7.257808,3.653453307235987,0.12919612014046955
7.260196,3.6576463960417938,0.12874660962050644
7.262576,3.6602094711535207,0.1283959341307305
7.264976,3.6571383310783343,0.12826186041223833
7.267359999999999,3.650714615816373,0.1282522733796097
7.269744,3.634280396822326,0.1285389433056239
7.272139999999999,3.6195687393209766,0.12879539181731903
7.274524,3.6048570818196257,0.12905359867437702
7.276903999999999,3.584790748385084,0.12950462884237285
7.279312,3.5684490771896544,0.12986502043015613
7.281695999999999,3.553318110807725,0.13016624268839308
7.28408,3.537907605172074,0.13050490406466803
7.286475999999999,3.521146625096064,0.1309130471055257
7.288863999999999,3.5010330698332783,0.13145331249633227
7.291244,3.4787776441972165,0.13207020446181086
7.293644,3.45824478005385,0.13264937394815113
7.296031999999999,3.4362216718432643,0.1333000998521008
7.298412,3.419273700312151,0.13379795948776768
7.300808000000001,3.4029773550870956,0.13430118326421875
7.303196000000001,3.3876121754218187,0.13478164483664645
7.305592,3.3728986220626,0.1352765696967116
7.307988000000001,3.3656343931816073,0.1355917022151512
7.310372,3.3595808691141134,0.13585392244793343
7.312755999999999,3.3535273450466203,0.1361198095427991
7.315152,3.3513382528450997,0.1362794056322733
7.31754,3.3565984851218067,0.13625354884980329
7.319920000000001,3.3607877822118746,0.13626676607462643
7.32232,3.3642782311676416,0.13635667032990983
7.324704,3.3785705797884105,0.13612606066475647
7.327088000000001,3.3896501228492637,0.13601185837573768
7.329491999999999,3.400542674455014,0.13599958052316607
7.331880000000001,3.413949183486378,0.135944743302304
7.334264,3.4272159228908823,0.13590138219963205
7.336659999999999,3.4454180293479997,0.13570716568278499
7.339047999999999,3.468555502857728,0.13536929591230124
7.341432,3.493834846740734,0.13497229130304408
7.343827999999999,3.5181830250639603,0.13459837996528046
7.346215999999999,3.542531203387188,0.1342368227593564
7.348596,3.5668793817104154,0.13387786462762405
7.350995999999999,3.592438264847142,0.1334750583419981
7.35338,3.6220013494767014,0.1329616038250435
7.355759999999999,3.64676883668051,0.1325771925323378
7.358163999999999,3.6735384246307343,0.13214743502964685
7.360551999999999,3.7055229188872922,0.13156570007293159
7.362932,3.7376471827707096,0.1309841049529406
7.365336,3.772612165161705,0.13029010834761232
7.367719999999999,3.8098587875528374,0.12952472931937575
7.370104,3.853950329944382,0.12853892652097995
7.372504,3.889242073417341,0.12778529658967372
7.374892,3.9313787368907116,0.12682247029911867
7.377272,3.971420751819049,0.12584806760467868
7.379676000000001,4.015234650814742,0.12475127793096866
7.38206,4.0637515994375715,0.12350735617607685
7.384440000000001,4.106681554701729,0.12237024790417753
7.386843999999999,4.144164286234077,0.12133864618643601
7.389228,4.174989089221118,0.12044715228677585
7.391608000000001,4.206372970715599,0.11950789226463338
7.394004,4.234963355530745,0.11862471038907707
7.396392,4.265463293293689,0.11765382795298764
7.398772,4.293309504004162,0.11672611588029036
7.401176,4.3195729228487965,0.11582242485112779
7.403564,4.3471868161337905,0.11486463492271565
7.405944000000001,4.371215816806531,0.11396627314164866
7.40834,4.388586888933964,0.11319219158857938
7.410728,4.403164464382061,0.112466966883056
7.413108,4.412247594270105,0.11189440334521841
7.415512,4.420399558598372,0.11134249921123855
7.4179,4.42054311994097,0.11095375784327338
7.420279999999999,4.425110191656983,0.11045239484595326
7.422676,4.424322587439803,0.110082436755072
7.425064,4.428470350275235,0.10962724062407911
7.427444,4.426751580498277,0.10927480928833122
7.429839999999999,4.4215404659076825,0.10901721897304087
7.432227999999999,4.421544257623421,0.10865280457203447
7.434608,4.42112874045858,0.10831870032828389
7.437012,4.424437885532852,0.10793256389910305
7.4394,4.429329822472958,0.10754611214982202
7.44178,4.433150824226427,0.10718081006216544
7.444176,4.430266675606344,0.10697945792701917
7.446563999999999,4.426311591799624,0.10680094093386021
7.448944,4.4199350983659045,0.10669236360863901
7.451348,4.414629540118824,0.10655962830038175
7.453736,4.407973507431385,0.10647259394830305
7.456116000000001,4.403971201796421,0.10635858211467503
7.458512,4.401691457654152,0.10623040719779167
7.4609,4.403415915004718,0.10602990016801807
7.46328,4.401927566795369,0.10590054743549646
7.465684,4.40374457194455,0.10575365763920146
7.468072,4.403279937093596,0.10566657431180546
7.470452000000001,4.398531561496087,0.1056751628930269
7.472848,4.387637114032469,0.10580391817784948
7.475236,4.378977084740743,0.10594044041515119
7.477616,4.366312853956184,0.1061544074673217
7.480020000000001,4.350807904664047,0.10647159184137359
7.482408,4.338236221678105,0.10674023357807501
7.484787999999999,4.325524769065304,0.1070179043995786
7.487184,4.307877949399889,0.10738358231104478
7.489572,4.2931643960406705,0.10769991616697146
7.491952,4.290323677533091,0.10780385394007463
7.494348,4.289857146824268,0.10790410994572622
7.496735999999999,4.2924636520484984,0.10794381387964147
7.499116,4.291298273205374,0.1081006064413536
7.501516,4.295068261414861,0.10817135363724133
7.503900000000001,4.297767314437709,0.10826608176078631
7.506284,4.297533101154363,0.1084106121764111
7.508679999999999,4.291572124885487,0.1086430583342202
7.511068000000001,4.287333710109307,0.10886302604664164
7.513464,4.282583438653929,0.10906133827960238
7.515859999999999,4.2775536279448305,0.10928243999155451
7.518244,4.279740824288482,0.10935607169474709
7.520624000000001,4.284069891005409,0.10938065318956236
7.523027999999999,4.286024769923582,0.10941013344197535
7.525416000000001,4.294917116640787,0.10931170953137408
7.527795999999999,4.3074415777984845,0.10910638050881406
7.530192,4.323039074889238,0.10884471763783507
7.53258,4.336774240860436,0.10860875071347395
7.534960000000001,4.354373838697608,0.10830713299410918
7.537356,4.372764832467696,0.1080080604893928
7.539748,4.381564631386281,0.10786391171512119
7.542124,4.390923508812309,0.10767668150333526
7.544531999999999,4.396417954372362,0.10754956896877714
7.546916,4.408897089559686,0.10724162233668029
7.549295999999999,4.415789231388342,0.10700651680423147
7.551692,4.426173718030633,0.10668264315283689
7.55408,4.4409817150463375,0.10625806506497536
7.55646,4.4597939135548765,0.10576241907271026
7.558864000000001,4.4803758953843555,0.10519220226087236
7.561248,4.504310452400609,0.10455322560079561
7.563628,4.527593383110807,0.1039022667100169
7.566024,4.548082817141667,0.10329419367970498
7.568408000000001,4.570714121545806,0.10264863435301719
7.570808,4.597349627442778,0.10194027820792999
7.573204,4.6246839814740515,0.10119769542040984
7.575591999999999,4.6490850691991294,0.1005072254052618
7.577972,4.6677593939386774,0.09989449081824993
7.580367999999999,4.689646524238141,0.09922413003017412
7.582756000000001,4.711021797858407,0.09853705687792491
7.585135999999999,4.731093818866557,0.09783548103605096
7.587535999999999,4.74902396950143,0.09716362143859705
7.589924000000001,4.766954120136304,0.09649752375159827
7.592303999999999,4.789819637823789,0.09576485051215562
7.5947,4.806259544391443,0.09515816633550125
7.597088,4.828426213944628,0.09448583364798961
7.599468000000001,4.848311243497673,0.09386891383347924
7.601864,4.866985568237221,0.09328906032735713
7.604256,4.885799662603629,0.09270507130257506
7.606635999999999,4.903403052156539,0.09215402723679197
7.609032,4.915372226522536,0.09171680204917575
7.61142,4.928272566448311,0.09127065627280025
7.613816000000001,4.942104071933864,0.09081863007823024
7.616212,4.953653937419279,0.09041547673867123
7.6186,4.965064033277834,0.09002728364215962
7.62098,4.973773180255673,0.08971659766522334
7.623375999999999,4.980340456860234,0.08943952699860362
7.625763999999999,4.990772165330768,0.0891223743116618
7.628144,4.997851298614527,0.08886720471896502
7.630540000000001,5.006373454137259,0.0886263993341198
7.632928000000001,5.01633863189897,0.0884005572795932
7.635307999999999,5.03310150783285,0.08810293967431583
7.637712,5.0477225133934525,0.08783959009667913
7.640099999999999,5.060061878953918,0.08762156484052577
7.64248,5.075986137126634,0.08738290252773555
7.644884,5.090559920858993,0.08718232609964228
7.647272,5.107507892390106,0.08698868806266734
