Time,Force,Position
26.678524,0.004975360857930726,0.0
26.680912,0.004975360857930726,0.0
26.683292,0.004975360857930726,0.0
26.685696,0.004975360857930727,0.0
26.688084,0.004975360857930727,0.0
26.690464,0.004975360857930727,0.0
26.692868,0.004975360857930727,0.0
26.695252,0.004975360857930728,0.0
26.697636,0.003410086989860626,0.0
26.700032,0.0026362090547086335,0.0
26.70242,0.0026362090547086335,0.0
26.7048,0.0026362090547086335,0.0
26.707204,0.0,0.0
26.709592,0.0,0.0
26.711972,0.0,0.0
26.714376,0.0,0.0
26.71676,0.0,0.0
26.719144,0.0,0.0
26.72154,0.0,0.0
26.723928,0.0,0.0
26.726308,0.000866425733769051,0.0
26.728708,0.005737052960371804,0.0
26.731096,0.010467910560114348,0.0
26.733476,0.016129933719635208,0.0
26.735872,0.023654287998712713,0.0
26.73826,0.03131841190465043,0.0
26.74064,0.0411244061838652,0.0
26.743044,0.05093040046307998,0.0
26.745428,0.06166756030207308,0.0
26.747812,0.07147355458128785,0.0
26.750208,0.0810000096067822,0.0
26.752596,0.09052646463227657,0.0
26.754976,0.09819058853821429,0.0
26.757372,0.10571494281729178,0.0
26.75976,0.11123719634995244,0.0
26.762144,0.11689921950947332,0.0
26.76454,0.12363217785563271,0.0
26.766928,0.12929420101515357,0.0
26.769307999999995,0.1380292601077298,0.0
26.771708,0.1478352543869446,0.0
26.774096,0.1566350533055301,0.0
26.776475999999995,0.1606392547983638,0.0
26.778876,0.1639918299851396,0.0
26.78126,0.16827557073169372,0.0
26.783643999999995,0.1657616133060792,0.0
26.786048,0.16510998700002127,0.0
26.788436,0.16245625994754653,0.0
26.790816,0.15873159770843326,0.0
26.793212,0.15142204285706692,0.0
26.7956,0.14383294875198013,0.0
26.797984,0.13773409871411255,0.0
26.80038,0.1334975797958015,0.0
26.802768,0.13619852867651944,0.0
26.805148,0.13903924718409755,0.0
26.807544,0.14281113125145398,0.0
26.809936,0.1420197353185359,0.0
26.812316,0.1380155338257022,0.0
26.814712,0.13908646901234073,0.0
26.8171,0.13415110195972868,0.0
26.819484,0.12814479972047813,0.0
26.82188,0.12348897192158652,0.0
26.824268,0.11841383524211428,0.0
26.826648,0.11226776337600353,0.0
26.829048,0.10232199946992854,0.0
26.831436,0.09924896353687315,0.0
26.833816,0.09223646593699333,0.0
26.836212,0.08508419871025333,0.0
26.8386,0.07958975315020046,0.0
26.840996,0.08047369688173564,0.0
26.843392,0.08377905024026829,0.0
26.845776,0.08494253322552388,0.0
26.84816,0.08238135397166618,0.0
26.850556,0.0726031676650592,0.0
26.852944,0.06403568617195096,0.0
26.855324,0.058541240611898075,0.0
26.85772,0.06161427654495346,0.0
26.860108,0.06589801729150759,0.0
26.862488,0.06324429023903284,0.0
26.864884,0.05944459819906861,0.0
26.867272,0.05564490615910439,0.0
26.869668,0.05063450930564142,0.0
26.872064,0.046834817265677196,0.0
26.874452,0.04489745634526962,0.0
26.876832,0.04489745634526962,0.0
26.879228,0.04296009542486204,0.0
26.881616,0.04296009542486204,0.0
26.883996,0.04296009542486204,0.0
26.886392,0.04237320894481341,0.0
26.88878,0.038061660225651495,0.0
26.891164,0.032539406692990845,0.0
26.89356,0.02794831872010851,0.0
26.895948,0.02521956186678282,0.0
26.898328,0.024632675386734193,0.0
26.900724,0.022835084093186818,0.0
26.903112,0.019035392053222598,0.0
26.905496,0.011091728893564459,0.0
26.907892,0.0040792312936846434,0.0
26.91028,0.0,0.0
26.912676,0.0,0.0
26.915071999999995,0.0,0.0
26.91746,0.0,0.0
26.91984,0.0,0.0
26.922236,0.0,0.0
26.924628,0.0005868864800486306,0.0
26.927008,0.0023844777735960022,0.0
26.929404,0.002384477773596002,0.0
26.931792,0.002384477773596002,0.0
26.934176,0.0023844777735960022,0.0
26.936575999999995,0.0023844777735960022,0.0
26.93896,0.0023844777735960022,0.0
26.94134,0.0023844777735960022,0.0
26.943736,0.0023844777735960022,0.0
26.94612,0.0023844777735960022,0.0
26.948504,0.0023844777735960022,0.0
26.9509,0.0023844777735960022,0.0
26.953288,0.0023844777735960022,0.0
26.95568,0.0024122857462037916,0.0
26.958079999999995,0.0024122857462037916,0.0
26.960464,0.0024122857462037916,0.0
26.962848,0.0027196329725320016,0.0
26.965244,0.0027196329725320016,0.0
26.967628,0.0027196329725320016,0.0
26.970012,0.002719632972532002,0.0
26.972408,0.002132746492483371,0.0
26.974792,0.00033515519893599925,0.0
26.977176,0.0006425024252642091,0.0
26.979572,0.0032314896517296908,0.0
26.981956,0.004889311318416852,0.0
26.984352,0.008549233731520863,0.0
26.986748,0.011277990584846556,0.0
26.989135999999995,0.014798143371090358,0.0
26.99152,0.02059993615747143,0.0
26.993916,0.026261959316992295,0.0
26.996303999999995,0.030061651356956515,0.0
26.998684,0.03479250895669906,0.0
27.00108,0.0387319706235235,0.0
27.003468,0.03957058838468476,0.0
27.005848,0.03957058838468476,0.0
27.008244,0.03957058838468476,0.0
27.010632,0.03926324115835655,0.0
27.013028,0.03926324115835655,0.0
27.015424,0.03926324115835655,0.0
27.017812,0.04106083245190392,0.0
27.020192,0.04378958930522961,0.0
27.022588,0.04572695022563719,0.0
27.024975999999995,0.048427899106355095,0.0
27.027356,0.04977837354671405,0.0
27.029751999999995,0.0543416535469886,0.0
27.03214,0.056763063173986064,0.0
27.03452,0.06318867429381725,0.0
27.036916,0.06975405504050865,0.0
27.039304,0.0759001269066194,0.0
27.041696,0.08325690358622892,0.0
27.0441,0.09447811213181193,0.0
27.046488,0.10784119105067198,0.0
27.048868,0.12385799702200678,0.0
27.051264,0.14401877411303549,0.0
27.053652,0.16411481137805495,0.0
27.056031999999995,0.1842108486430744,0.0
27.058428,0.20710038258742886,0.0
27.060816,0.22891898134514474,0.0
27.063196,0.2519482849163594,0.0
27.065591999999995,0.27103812682074957,0.0
27.06798,0.28933657279222164,0.0
27.070364,0.3124306161894455,0.0
27.072759999999995,0.33138068846697544,0.0
27.075144,0.3455351633187536,0.0
27.077524,0.3572682285435343,0.0
27.079924,0.36620779708898005,0.0
27.082308,0.3699324593280933,0.0
27.084703999999995,0.37179479044765,0.0
27.0871,0.3707238552610114,0.0
27.089488,0.36737128007423564,0.0
27.091868,0.36001450339462615,0.0
27.094263999999995,0.3435783885427107,0.0
27.096652,0.32362212090455145,0.0
27.099032,0.3025949180797537,0.0
27.101436,0.28249888081473423,0.0
27.103824,0.2624028435497149,0.0
27.106204,0.2395133096053604,0.0
27.108608,0.21883877997726472,0.0
27.110992,0.19937305930479857,0.0
27.113375999999995,0.18805361538699078,0.0
27.115772,0.1824590385968439,0.0
27.11816,0.17593140038904942,0.0
27.120543999999995,0.17824888707021444,0.0
27.12294,0.19113406013303524,0.0
27.125328,0.20699782547242507,0.0
27.127708,0.2320788027531119,0.0
27.130108,0.26409535197495837,0.009599071155050038
27.132496,0.30383886907088253,0.01896315381969109
27.134876,0.3490749358689903,0.028324689586113214
27.137272,0.40250450124999965,0.037239511126892125
27.13966,0.46077499002713473,0.04627673391440233
27.142044,0.5296131651859256,0.055290274502993134
27.14444,0.60332007171345,0.06448703013050501
27.146823999999995,0.6828916149954956,0.07364505203095119
27.149208,0.7723319965248957,0.08242280953849791
27.151604,0.8687079499954558,0.09110198474021922
27.153991999999995,0.9702043661158618,0.09966565370629651
27.156376,1.0718599657187635,0.1082306861027591
27.158772,1.1710960515525368,0.11679571849922168
27.161159999999995,1.2663298317513458,0.12522343642156472
27.163556,1.3546280400089952,0.1337331093711037
27.165952,1.4414379000572946,0.14218974390873004
27.16834,1.523918693388666,0.15062192064581081
27.17072,1.6003478585104127,0.15905554758672238
27.173116,1.6744500576616486,0.16751736471793582
27.175504,1.7413371456180045,0.17603195711500674
27.177888,1.804641236819976,0.17484125726724123
27.180284,1.8591474249612319,0.17401810213121668
27.182668,1.9137480567589737,0.17296538414405954
27.185052,1.9617379818396503,0.1724131784703432
27.187448,2.009682580949953,0.17159225867434158
27.189836,2.0558592925971855,0.17065571454513134
27.19222,2.1046916271547613,0.16923071859012134
27.194616,2.146588389771178,0.16790866055533732
27.197,2.17847654451338,0.16698997718150485
27.19938,2.201427026568005,0.16627863156438252
27.20178,2.2168356363457864,0.1658680899231405
27.204168,2.2295905190710936,0.16557650658756923
27.206564,2.242717488848738,0.16533658833410414
27.20896,2.2498381563871312,0.1654825577581155
27.211348,2.256958823925525,0.1656246729203229
27.213728,2.261285994784584,0.1659261663857867
27.216128,2.2651013089644456,0.16619855718804058
27.218512,2.269056392771166,0.16644303421202378
27.220896,2.273291015831608,0.16663323094032192
27.223292,2.281250301131163,0.1666186672520215
27.22568,2.28678817680372,0.16681121881708333
27.228064,2.2952593187824726,0.16682084382442147
27.23046,2.2953499707232203,0.167295600325926
27.232848,2.2932062044920745,0.16782571743107094
27.235228,2.289711963820569,0.1684727925773213
27.237628,2.2843553920295077,0.16920509143290313
27.240016,2.271130186879639,0.17037874718754273
27.2424,2.2599070824761864,0.17143289764647643
27.2448,2.2489635173264544,0.1724372016505211
27.247184,2.242163923296417,0.17317336019360993
27.249564,2.2397878396397934,0.17359613980625066
27.251964,2.240484791916225,0.17382463856499172
27.254352,2.2426719882598753,0.17390523051961185
27.256736,2.2507257172159174,0.17364399537485814
27.259132,2.262923417291652,0.17312373240666953
27.261516,2.2779618358749656,0.17234020650328477
27.263895999999995,2.2932797937119993,0.17152413950729903
27.266304,2.3048730893099196,0.1708821395930219
27.268692,2.31646638490784,0.17024668965205517
27.271072,2.3259178101324833,0.1697666540358407
27.273468,2.3364401705437654,0.16920849633730073
27.275856,2.3464506742758497,0.16863254590105148
27.278236,2.363538415433823,0.1676355399647617
27.280632,2.3834196532711314,0.1664904258060655
27.28302,2.401857868869464,0.16537466648181784
27.2854,2.4169435092810203,0.16448014757202417
27.287796,2.4358935815585503,0.1633694084237918
27.290184,2.4561941282764392,0.16217198135396138
27.29258,2.477565610180967,0.16092161314073972
27.294979999999995,2.498145696152576,0.1597316595518041
27.297368,2.5147215806313516,0.15876350297251082
27.299748,2.531856543617568,0.15773422209083074
27.302147999999995,2.545127074737811,0.15689406897641497
27.304536,2.5558836484324394,0.15614165867694535
27.306916,2.562915559887955,0.1555646091402003
27.309315999999995,2.5643132561565567,0.15534067341969557
27.311704,2.564220708357941,0.15524722830660137
27.314088,2.568504449104495,0.15499316212644135
27.316484,2.5737193554108266,0.1547025705958007
27.318876,2.5773514698513225,0.15444729946890837
27.321256,2.5804717276126206,0.15416461900047487
27.323656,2.5863854820532546,0.15377123428795805
27.326044,2.59108853168039,0.15347220637099845
27.328424,2.592439006120749,0.15336960423749763
27.33082,2.5975141428002213,0.15312104673901003
27.333208,2.609014890599524,0.15252757394102684
27.335592,2.61986401209277,0.15194196970319757
27.337988,2.6244272920930447,0.15167237860630875
27.340376,2.6265691624663217,0.15155842999679517
27.342756,2.6288035806382153,0.15153437430568056
27.345152,2.638627092915196,0.15121473727357335
27.347539999999995,2.6446787211248206,0.1511410780846487
27.349924,2.657528047506614,0.15079408638553185
27.35232,2.671680626500523,0.1504591391254187
27.354704,2.6852741269869904,0.15019888579232182
27.357088,2.707527656765184,0.14958875957865364
27.359483999999995,2.7288500209835997,0.14900105734317093
27.361872,2.751522859642373,0.14833675567911367
27.364256,2.770610805688894,0.14778788839273033
27.366651999999995,2.7915610828549715,0.14717040154772376
27.36904,2.8180983533797193,0.14637871107095715
27.371424,2.8399325742773316,0.14586420664077454
27.373819999999995,2.8562723496148923,0.14562147033275913
27.376208,2.877827031258785,0.1451320233465151
27.378588,2.8967279858502017,0.14474181111807477
27.380987999999995,2.9114849693219256,0.14454705812463717
27.383376,2.925822643913069,0.1444134697286315
27.38576,2.9470977863032406,0.14400430365765737
27.388155999999995,2.971445964626468,0.14346485023576633
27.390544,2.992349019964302,0.14300601194544973
27.392924,3.004731815637271,0.14285101460243751
27.395323999999995,3.021538121683655,0.14248314741073095
27.397712,3.0339681391848674,0.14224418740002123
27.400096,3.047748631126439,0.141928000748527
27.402491999999995,3.065673094187704,0.14144815976474062
27.40488,3.0788019598232177,0.141138482743451
27.407264,3.0942124654588685,0.1407202088668938
27.409659999999995,3.1058983088554064,0.14041685395042297
27.412052,3.1243818504241117,0.1398987029795407
27.414432,3.144076096806317,0.13933208221798857
27.416827999999995,3.156832875389494,0.13900680628838696
27.419216,3.171079898039889,0.1385832116303857
27.421596,3.188027869571002,0.13798945701096885
27.423995999999995,3.2012511788630014,0.13750894534712263
27.42638,3.212332617781725,0.13711557563057433
27.428764,3.224624761513946,0.1366640830467466
27.431168,3.2359857396863894,0.1362396858609785
27.433552,3.2454843867392755,0.13587680527416401
27.435936,3.2501874363664105,0.13565734844548255
27.438332,3.2587549178595183,0.13531729434746764
27.44072,3.2751910327114335,0.1347263642060246
27.443104,3.2897648164437925,0.13419946282378045
27.4455,3.305781622415127,0.1336798161468378
27.447888,3.318865162080267,0.1332528849942364
27.450268,3.3310175361856285,0.1328616590894326
27.452664,3.3473138814106838,0.13234028353795957
27.455051999999995,3.365332788128436,0.13180017317824796
27.457432,3.387355896339021,0.13114805143351335
27.459836,3.4013706015639396,0.13073806626137785
27.462224,3.4151057675351377,0.130367104880207
27.464604,3.4327053653723083,0.12989511825876143
27.467008,3.4493737976497014,0.1294422944659953
27.469396,3.4725603888455425,0.12885586517391664
27.471776,3.4988200159744385,0.12818297770073073
27.474172,3.525219412730195,0.1274873062162662
27.47656,3.550408104672452,0.1268454676998634
27.47894,3.5789493718014858,0.1260954857185952
27.48134,3.6073508693036587,0.1253685595506215
27.483728,3.6446919353512777,0.12441617844379121
27.486108,3.6800309006524805,0.12352544075316464
27.488508,3.707361462968015,0.12285739760883979
27.490896,3.7314792197236346,0.12228646466695567
27.493276,3.749590674240003,0.12186873933178985
27.495676,3.7704956254357067,0.12139376457156302
27.498064,3.787256605511717,0.12103964221441516
27.500444,3.7972198874155585,0.12085381654963623
27.502848,3.8025273415205083,0.12076584111192185
27.505236,3.8059724645059014,0.12071836940075802
27.507616,3.8124906234243494,0.12058418827628592
27.510012,3.8160755160366024,0.120521712286188
27.512404,3.8159357464097416,0.12053567625502697
27.514784,3.8165873727157997,0.12054446257923718
27.51718,3.8108606097302697,0.12067013687746644
27.519568,3.8060650123045177,0.12077381802103275
27.521947999999995,3.8031317459983223,0.1208414330375499
27.524344,3.8014091845056255,0.12086381905209012
27.526736,3.7935405511468185,0.12104718010431446
27.529115999999995,3.783018190735536,0.1212713308220253
27.531512,3.765558362525226,0.12165093497659965
27.5339,3.749588778382134,0.12195703112970252
27.536283999999995,3.737763165358736,0.12215686232037774
27.53868,3.7282191923354757,0.12228373400365061
27.541064,3.7238901256185475,0.12226968819061289
27.543448,3.717838497408923,0.12227719739795236
27.545848,3.715139444386075,0.12217759778686121
27.548236,3.716165053602339,0.1220057499625061
27.550619999999995,3.7198443898710787,0.12179251561700422
27.553016,3.7231044172592367,0.12162146575132897
27.5554,3.7294374805804513,0.12137294040806797
27.557784,3.7348393783418876,0.12113898344404665
27.560184,3.7439659383424364,0.12083323433423993
27.562568,3.754163433529624,0.12049680693602327
27.564952,3.765943720582648,0.12015263208330557
27.567352,3.7727886405830593,0.11992612691959639
27.56974,3.7799130998371915,0.11967535745851676
27.572123999999995,3.787037559091324,0.11942712064419365
27.57452,3.7998887813309863,0.11906200464272922
27.576908,3.8160453569291817,0.11866691522071299
27.579288,3.8331330980871545,0.1182527257363267
27.581684,3.848078968871851,0.11790253564218782
27.584072,3.860091573350352,0.11761652061244274
27.586452,3.872104177828853,0.11733154761409555
27.588852,3.884256551934214,0.11703740156950151
27.591235999999995,3.897060552345633,0.1167539377828551
27.593632,3.9106559486899704,0.11647227233689608
27.596032,3.921597617981833,0.11622636897750148
27.59842,3.932167200221358,0.1159469470965618
27.6008,3.940362594662129,0.11567702904170417
27.603196,3.9465558883564835,0.11545676986482217
27.605584,3.9570329227973913,0.11512247065759583
27.607964,3.9660669349993243,0.11478514130162965
27.610368,3.9745890905220587,0.1144277540826286
27.612756,3.9812489149252364,0.11410123949251084
27.615136,3.9907022360077486,0.11372715916915055
27.617536,3.997082521157206,0.11342458259404654
27.619924,4.004533741493302,0.11309806379729084
27.622304,4.005606572537809,0.11286473589933167
27.6247,4.004305215783562,0.1126397458475072
27.627088,3.9988598879096218,0.11251298458963317
27.629468,3.9939264167148787,0.11240885024586365
27.631864,3.9922057510800517,0.11221918167975707
27.634256,3.992347416564781,0.11199948677431763
27.636636,3.9951428091019854,0.11175022991866584
27.639032,3.9974263449599916,0.11147941729510727
27.64142,3.997847549698441,0.11123963685968243
27.643804,4.001062251116227,0.1109555424271974
27.6462,4.005859744399848,0.11066950145711313
27.648588,4.015173295855501,0.11032602606752898
27.650968,4.023276142497654,0.11002218127237999
27.653368,4.030168284326309,0.1097605260648091
27.655756,4.035570182087746,0.10956066740292297
27.658136,4.040552770968601,0.10939755970843097
27.660532,4.046466525409234,0.10922011316376698
27.66292,4.053311445409646,0.10903084143420792
27.665316,4.066022898022449,0.10873890827263802
27.667712,4.074730149142416,0.10852522155157204
27.6701,4.090886724740612,0.1082054470893468
27.672484,4.107974465898585,0.10787220471228562
27.674888,4.133629688549666,0.10733810470133069
27.677271999999995,4.159704220081329,0.10676731889335192
27.679656,4.18521967310555,0.1062500029182972
27.682052,4.207801859823576,0.10578681626459817
27.684436,4.223586348369434,0.10544015614179783
27.68682,4.239882693594488,0.10511747009365555
27.689215999999995,4.25790160031224,0.10478382519984296
27.691604,4.2767119029629095,0.10445353519966448
27.693988,4.292309400053664,0.10419609283901236
27.696383999999995,4.304694091584502,0.104012625650453
27.698772,4.31828948792884,0.10379480547880743
27.701152,4.331605345019457,0.10360136627517455
27.703551999999995,4.348134007669989,0.10333876607568668
27.70594,4.369598037373135,0.10300057700166271
27.70832,4.393203937449557,0.10262058420763309
27.710716,4.41508727603328,0.10225637590036804
27.713104,4.431895477937534,0.10198676213195762
27.715484,4.450566010961343,0.10169212887196852
27.71788,4.465372112119179,0.10145841163927885
27.720268,4.484973810702767,0.10116461967347787
27.722648,4.502154099659358,0.10094372582872442
27.725044,4.520405323802587,0.10070412793963013
27.727432,4.5418693535057315,0.10040768866602696
27.729816,4.566406419141932,0.10006230084601843
27.732212,4.5920144199647694,0.09968913221067449
27.734604,4.616179398548632,0.09930602347438612
27.736984,4.6356885493336035,0.09897362185009453
27.73938,4.653475138625878,0.09865411130691798
27.741768,4.674754072731788,0.09825350985124562
27.744164,4.693658819038944,0.09784815303972702
27.746559999999995,4.709770068666765,0.09747372976479377
27.748948,4.725369461615389,0.09707985400725637
27.751332,4.739897919377374,0.09671122591627679
27.753732,4.745626578220772,0.09646494001094987
27.75612,4.749073597064034,0.09627056939393407
27.7585,4.749587349601101,0.09611511769032755
27.760895999999995,4.750240871765028,0.09594858872278682
27.763284,4.753176033929092,0.09573222950524798
27.765664,4.757321900906655,0.09548626584812042
27.768063999999995,4.751736803405855,0.09536917850752302
27.770448,4.74321843959886,0.09529153288254708
27.772832,4.734560306165004,0.09522352634475743
27.775228,4.718964704932119,0.09525243626983003
27.777615999999995,4.701227233325957,0.09531894569939234
27.779996,4.6892165247053255,0.09531813913262827
27.782396,4.67892837757739,0.09530810068048043
27.784783999999995,4.67744002936804,0.09518553770441221
27.787164,4.67581191153183,0.09507289997734142
27.78956,4.670039822575926,0.09502586962216544
