Time,Force,Position
9.125044,0.0,0.0
9.127427999999998,0.0,0.0
9.129824,0.0,0.0
9.132208,0.0,0.0
9.134604,0.0,0.0
9.137,4.949353686351571e-05,0.0
9.139388,0.0013096918872257722,0.0
9.141768,0.001638724677809708,0.0
9.144172,0.002898923028171964,0.0
9.14656,0.0042988910053944306,0.0
9.14894,0.00956329084859039,0.0
9.151336,0.013756755505147815,0.0
9.153724,0.019021155348343775,0.0
9.156104,0.025216720751318054,0.0
9.158507999999998,0.030341350967653804,0.0
9.160896,0.03546598118398955,0.0
9.163276,0.03979921546740719,0.0
9.165679999999998,0.04520338493746335,0.0
9.168067999999998,0.0496763888477412,0.0
9.170448,0.05307845757138052,0.0
9.172852,0.05307845757138053,0.0
9.175235999999998,0.05354725998882467,0.0
9.177616,0.053596753525688184,0.0
9.180011999999998,0.05359675352568819,0.0
9.182399999999998,0.05359675352568819,0.0
9.18478,0.05354725998882467,0.0
9.187176,0.052287061638462425,0.0
9.189564,0.051958028847878486,0.0
9.191944,0.05069783049751623,0.0
9.19434,0.04929786252029376,0.0
9.196728,0.044033462677097804,0.0
9.199108,0.039839998020540376,0.0
9.201504,0.034575598177344416,0.0
9.203892,0.028380032774370137,0.0
9.206271999999998,0.023255402558034384,0.0
9.208668,0.018130772341698638,0.0
9.211056,0.013797538058280998,0.0
9.213452,0.008393368588224828,0.0
9.215851999999998,0.00392036467794698,0.0
9.218236,0.000518295954307662,0.0
9.22062,0.000518295954307662,0.0
9.223015999999998,4.9493536863515715e-05,0.0
9.225404,0.0,0.0
9.227784,0.0008408894697816256,0.0
9.23018,0.0036838796859801023,0.0
9.232568,0.006526869902178579,0.0
9.234952,0.007367759371960204,0.0
9.237344,0.007367759371960204,0.0
9.239732,0.0073677593719602055,0.0
9.242112,0.0073677593719602055,0.0
9.244512,0.0073677593719602055,0.0
9.2469,0.0073677593719602055,0.0
9.24928,0.00820864884174183,0.0
9.251676,0.010911869431080096,0.0
9.254064,0.010911869431080098,0.0
9.256456,0.010911869431080098,0.0
9.25886,0.010911869431080098,0.0
9.261247999999998,0.010911869431080098,0.0
9.263628,0.010911869431080098,0.0
9.266023999999998,0.010911869431080098,0.0
9.268411999999998,0.010911869431080098,0.0
9.270792,0.010911869431080098,0.0
9.273188,0.010911869431080098,0.0
9.275576,0.010070979961298472,0.0
9.277956,0.0072279897450999945,0.0
9.280352,0.004384999528901518,0.0
9.28274,0.005083847663202568,0.0
9.28512,0.009696621200340629,0.0
9.28752,0.01738243067053407,0.0
9.289904,0.02520800976758772,0.0
9.292288,0.03303358886464137,0.0
9.294684,0.04193010314833355,0.0
9.297068,0.0459815264694104,0.0
9.299468,0.04616851792451376,0.0
9.301863999999998,0.052131765902010775,0.0
9.304251999999998,0.057024078692869254,0.0
9.306636,0.06177662185686752,0.0
9.309031999999998,0.06853126576728265,0.0
9.311419999999998,0.07421497449105924,0.0
9.313804,0.08069007914775393,0.0
9.316199999999998,0.08516308305803177,0.0
9.318587999999998,0.08963608696830962,0.0
9.320968,0.08963608696830962,0.0
9.323363999999998,0.08963608696830962,0.0
9.325751999999998,0.08963608696830962,0.0
9.328132,0.08963608696830962,0.0
9.330536,0.08809634936422694,0.0
9.332919999999998,0.08348357582708889,0.0
9.3353,0.07579776635689545,0.0
9.337704,0.0679721872598418,0.0
9.340092,0.06014660816278816,0.0
9.342472,0.05125009387909597,0.0
9.344867999999998,0.0463577810882375,0.0
9.347255999999998,0.04346756904379587,0.0
9.349636,0.03750432106629886,0.0
9.352031999999998,0.03261200827544038,0.0
9.35442,0.02785946511144211,0.0
9.3568,0.02110482120102699,0.0
9.359196,0.0154211124772504,0.0
9.361584,0.008946007820555699,0.0
9.363979999999998,0.004473003910277849,0.0
9.366376,0.0,0.0
9.368759999999998,0.0,0.0
9.371144,0.0,0.0
9.373539999999998,0.0,0.0
9.375923999999998,0.0,0.0
9.378308,0.0,0.0
9.380707999999998,0.0,0.0
9.383095999999998,0.0,0.0
9.385476,0.0,0.0
9.387871999999998,0.0,0.0
9.390259999999998,0.00042158058920099497,0.0
9.39264,0.0004215805892009949,0.0
9.395036,0.0004215805892009949,0.0
9.397424,0.0017743267381803104,0.0
9.399819999999998,0.003266842514019836,0.0
9.402216,0.004899127916719571,0.0
9.404604,0.0056002477596409864,0.0
9.406983999999998,0.0056002477596409864,0.0
9.409384,0.008535785774456522,0.0
9.411768,0.01142410196102891,0.0
9.414148,0.01649961449125226,0.0
9.416552,0.027998842283437568,0.0
9.41894,0.04443154127036564,0.0
9.421319999999998,0.0698019129448702,0.0
9.423716,0.10359810062775353,0.0
9.426104,0.14102450689326385,0.0
9.428484,0.18408323248781805,0.0077745743352931225
9.430879999999998,0.23184311185163772,0.015576254471960295
9.433267999999998,0.2797408649844484,0.024173143045889765
9.435648,0.3304302189387247,0.03323507824953445
9.438052,0.3873540249912393,0.0422007315760509
9.440435999999998,0.452705918760753,0.050862162869503874
9.44282,0.5278341029790046,0.058980604376853624
9.445216,0.6030978892576266,0.06741474984046514
9.447603999999998,0.6806414196785168,0.07607787513852034
9.449984,0.764049586853928,0.08470722708107814
9.452388,0.855184721903417,0.09327607067971175
9.454776,0.9579607502298206,0.10148637846584571
9.457155999999998,1.0634335598704525,0.10963980821113238
9.459552,1.172631031750198,0.11773205350522649
9.461939999999998,1.2840175958314635,0.1256454278514703
9.46432,1.3851160127847935,0.1337662441474218
9.466715999999998,1.4803497929836023,0.1419347815045217
9.469103999999998,1.5647835693752783,0.1502011891003093
9.4715,1.6413033864377728,0.15849595052732013
9.473896,1.7176381079030338,0.16664806976370128
9.476284,1.7912737763454456,0.16686346379735092
9.478663999999998,1.8640727228845655,0.16685555347540695
9.48106,1.9398068315877497,0.16588525288964076
9.483448,2.0168933105891624,0.1642323484946111
9.485827999999998,2.0885344617166344,0.1625970001005961
9.488224,2.1510981705296697,0.1613231459176469
9.490612,2.20146417926697,0.1607537010073704
9.492992,2.2511332357278384,0.15985245720552094
9.495387999999998,2.2991741743524967,0.15870633910241774
9.497775999999998,2.339208605849356,0.15769227585965212
9.500172,2.3727267742856375,0.15669447694873076
9.502568,2.394513773355007,0.1560716714396598
9.504956,2.4133221801478077,0.1554135587074563
9.50734,2.4308273343284927,0.15477056061913597
9.509736,2.443816430337146,0.15432767611167336
9.512124,2.4643946204508858,0.15353548363843755
9.514504,2.4851125801914864,0.15270960616661192
9.5169,2.5067617054918645,0.15182088421326534
9.519288,2.5278989741130458,0.15090380842869547
9.521667999999998,2.5443804149353353,0.15020705011835547
9.524064,2.555646949451292,0.1498105364085403
9.526452,2.5596964769144996,0.14981561281192832
9.528831999999998,2.563466465123987,0.14986944963515664
9.531228,2.56323225184064,0.15011902961857884
9.533616,2.5588540674375997,0.15058757090418864
9.535999999999998,2.5554070485943376,0.1510213255819839
9.538396,2.5541019001243526,0.15133878375305407
9.540779999999998,2.553727917214146,0.1516137577982038
9.543176,2.5514916031843824,0.15196740595126215
9.545572,2.554982052140149,0.1520642259212368
9.54796,2.5600552929617524,0.1521294123132392
9.550339999999998,2.5647092249027743,0.15225885537126504
9.552736,2.5668491994181823,0.1524589363037973
9.555124,2.5664752165079756,0.1527266344331123
9.557508,2.567963564717326,0.1529187270874062
9.559912,2.5653079418069815,0.15331657704719145
9.562296,2.5651662763222522,0.153646439733058
9.564676,2.5707513738230534,0.15374178416403594
9.567076,2.5780590328165505,0.15378885790863955
9.569464,2.5887192669968235,0.1536528339136632
9.571848,2.6015213715503736,0.1533981227455574
9.574244,2.6192588431565356,0.15291179986158954
9.576632,2.6349942140162805,0.15253100576009082
9.579012,2.6515209808089435,0.15214034500699905
9.581408,2.6748454457737756,0.1514684167233031
9.583796,2.699240845925246,0.1507444231225781
9.586175999999998,2.7249867205170752,0.1499281093119073
9.588572,2.7510121343626244,0.14909562099289558
9.59096,2.7816933760070657,0.14810798416362103
9.593356,2.81172299134545,0.1471662155874078
9.595755999999998,2.8408214411240555,0.14627480322513967
9.59814,2.873552005343157,0.14518720199928511
9.600524,2.9050718647487592,0.14416201999899245
9.60292,2.9388733641544995,0.1430340839447938
9.605308,2.968810431694266,0.14204171739704138
9.607692,3.00130867848789,0.14090425289543063
9.610088,3.033946694908374,0.1397734026540645
9.612476,3.0608579483433287,0.1388655789588978
9.614856,3.08418430916603,0.13805390524311423
9.617252,3.105229029988594,0.1373639124212838
9.61964,3.129346786744213,0.13656684126003657
9.622024,3.1529526868206346,0.1357569341340464
9.62442,3.1756274213372775,0.13497570603012324
9.626808,3.196160285480644,0.13428129967479557
9.629192,3.2108266170116204,0.1337919087771286
9.631588,3.2237703870498997,0.13334020122485754
9.633976,3.2355034522746804,0.13295200558970238
9.636356,3.2440237119395454,0.1326962117544018
9.638759999999998,3.2460258126859625,0.13262623360694345
9.641147999999998,3.239600201566131,0.1328914507354136
9.643528,3.2322434248865215,0.1331821892399908
9.645931999999998,3.222325468953054,0.1336061098454725
9.648315999999998,3.213478448206225,0.1339891586148658
9.6507,3.2002079170859816,0.13456528981070998
9.653092,3.1890792563390153,0.13506021434212165
9.65548,3.1773915170846085,0.13561349788063243
9.65786,3.1627705115240063,0.13626153396057172
9.660256,3.1481495059634046,0.13691591524306346
9.662644,3.1387434067091347,0.13736299951965047
9.665024,3.1285459115219476,0.13782243296761787
9.66742,3.1184881859616205,0.1382500305879174
9.669808,3.1093616259610712,0.13864529321939806
9.672204,3.099583439654465,0.13903449341504429
9.674599999999998,3.0920868933479952,0.1393248026109412
9.676987999999998,3.0879429222283017,0.13947437115140865
9.679368,3.0887343181612197,0.13946626755285393
9.681772,3.0928782892809132,0.13932272483650623
9.68416,3.1013060011471616,0.13902235544253186
9.68654,3.11574001525266,0.13853290558863987
9.688944,3.1358082445450717,0.13779083452071905
9.691332,3.153874373091066,0.13710658298757888
9.693711999999998,3.1710093360772826,0.13644173316188501
9.696112,3.186142198317082,0.13583690275762905
9.698496,3.204767405370518,0.1350667938949809
9.700876,3.224184008356872,0.1342900683072686
9.703271999999998,3.239224322798054,0.13360319164990914
9.705659999999998,3.255475342052735,0.13285321887999768
9.708044,3.272797296494055,0.13205771263928584
9.710439999999998,3.2875580716815174,0.1314148020160662
9.712827999999998,3.305391882802035,0.13066841588911055
9.715208,3.3181505572430803,0.1301008567724578
9.717607999999998,3.3299780661243474,0.129567146870715
9.719991999999998,3.3435281364983114,0.12900193549934502
9.722372,3.353353544633161,0.12853093424345294
9.72478,3.3616887087007923,0.12815229210284362
9.727168,3.3648089664620913,0.127961468470207
9.729547999999998,3.365507814596392,0.1278828015040397
9.731944,3.3631336267976377,0.1279033129852171
9.734331999999998,3.357826172692688,0.12800380388786373
9.736715999999998,3.3563831504537123,0.12800081527711915
9.73912,3.3561508330282352,0.12794610459132427
9.741504,3.3579206163491744,0.12783304736131007
9.743883999999998,3.3627634356031693,0.12762394724524287
9.74628,3.367466485230304,0.12743267216225537
9.748668,3.372728613364879,0.12718339553502578
9.751048,3.3858593748582617,0.1267271849192821
9.753443999999998,3.3999213019114234,0.12625397833043467
9.755831999999998,3.4149143945243625,0.12576413477434348
9.758212,3.429116091204383,0.1252811133136561
9.760616,3.4410361478842675,0.12488694364254839
9.762999999999998,3.4541669093776504,0.12443769174990267
9.765384,3.4632934693782005,0.12409612440956704
9.767779999999998,3.4704179286323327,0.123809867465187
9.770163999999998,3.4808477412449976,0.12348275822237138
9.772544,3.4912775538576626,0.12315447279323456
9.774947999999998,3.5007762009105483,0.1228416753006701
9.777335999999998,3.5076211209109602,0.12257597923849467
9.779716,3.5133951057247335,0.12234561839055585
9.782111999999998,3.521683047964121,0.12208477934904918
9.784499999999998,3.522614213523899,0.12206367293988936
9.786884,3.5251281709495137,0.12203055728723643
9.789276,3.524708862068933,0.1220760514004556
9.791664,3.527222819494548,0.12204414049834149
9.794059999999998,3.5314593384128585,0.12198779197889571
9.796464,3.5329949084504517,0.12205968363017876
9.798848,3.525451140315739,0.1223840686012664
9.801227999999998,3.5177676025541658,0.12271998746142343
9.803624,3.5078024247924557,0.1231395425143267
9.806012,3.49476421109769,0.12365544023901404
9.808391999999998,3.4829367022164233,0.12411973303624446
9.810788,3.4736231507607704,0.12455136792761749
9.813176,3.468174031171092,0.12489132204189747
9.815556,3.4660774867681887,0.12511082349387276
9.817951999999998,3.4644002512458663,0.12528544594343236
9.820339999999998,3.4668669868432374,0.12533727001706227
9.82272,3.4722669887468043,0.1253161060721246
9.825124,3.480600256956566,0.12522166350235236
9.827507999999998,3.4921463307262433,0.12502675434740837
9.829892,3.497174245577473,0.12496699016001757
9.832292,3.508767541175393,0.12468871436743338
9.83468,3.521571541586812,0.12436650412795236
9.837063999999998,3.5394506786777042,0.12390742749152801
9.83946,3.5522546790891236,0.12359249258741435
9.841848,3.559471686141873,0.12339047339941184
9.844228,3.5711122035680365,0.12304493550899502
9.846623999999998,3.5866171528601734,0.12260032513297568
9.849011999999998,3.6010511669656715,0.12219036561002863
9.851392,3.6186979866310858,0.12168131206343535
9.853792,3.6403490077893332,0.12105904683460152
9.856175999999998,3.6577162882010272,0.12056609772476012
9.85856,3.673361007120025,0.12010156933913875
9.860955999999998,3.689936891598801,0.119623862189004
9.86334,3.7028806616370797,0.11929087354624258
9.86574,3.715684662048499,0.11897564492343268
9.868136,3.723693065034167,0.11877277125882045
9.870524,3.7326326335796125,0.11855445631291311
9.872903999999998,3.7414324324981982,0.11835219500057548
9.8753,3.7490215266032845,0.11819814001605919
9.877688,3.76326854925368,0.11790527112299566
9.880071999999998,3.7740232270904386,0.11773775422821604
9.882468,3.7839865089942797,0.1175779138459709
9.884856,3.790085359032147,0.11750082571751612
9.887235999999998,3.7983260794432914,0.11736402743212838
9.889636,3.808429130973993,0.11719039239342702
9.892024,3.8135968154520823,0.11712924708775863
9.894403999999998,3.821046139930309,0.11699620993223649
9.8968,3.8315685003415907,0.11678969785159227
9.899188,3.8388780551929576,0.11667196753203735
9.901568,3.849400415604239,0.11647185896060795
9.903963999999998,3.8683504878817687,0.11605860421567783
9.906351999999998,3.8914445312789936,0.11555487460123585
9.908744,3.910534373183384,0.11513659108638434
9.911144,3.9321853943416323,0.11462321160385876
9.913532,3.952905249940102,0.11412734320885634
9.915912,3.974276731844629,0.11363929530277218
9.918308,3.993925652256461,0.11317413609462434
9.920696,4.011292932668154,0.11277526197124792
9.923075999999998,4.0277290475200695,0.11239331289098532
9.925472,4.04165120494637,0.11203738809225564
9.92786,4.057575463119089,0.11164136690023713
9.930243999999998,4.073220182038085,0.11127414130514336
9.93264,4.089516527263141,0.11091535368906884
9.935028,4.103019375808862,0.11060073409669462
9.937407999999998,4.122528526593832,0.11016929808225331
9.939804,4.144831174058138,0.10969253049623896
9.942192,4.166062886335805,0.10925019551420256
9.944588,4.183709706001219,0.10885764391998626
9.946988,4.202986539360713,0.10839003782332872
9.949372,4.215186135294316,0.10807068390482061
9.951756,4.222310594548449,0.10786128201084141
9.954152,4.2212868811900535,0.10781741153228744
9.956536,4.222824347085516,0.10768759725352745
9.95892,4.223290877794339,0.10758337331298647
9.961316,4.225899278876441,0.10743025291244612
9.963704,4.230789319958679,0.1072174123355222
9.966084,4.235539591414057,0.10701637445644709
9.968488,4.2419198765635135,0.10674336934422861
9.970872,4.245506665033637,0.10650745453924211
9.973256,4.24788274869026,0.10630789899369764
9.975652,4.24667393973463,0.10614923308809844
9.978036,4.2437425692863044,0.1060050379896337
9.98042,4.242953069211255,0.10581203313271668
9.982816,4.2426754258154045,0.10563987397153056
9.985204,4.236251710553442,0.10559310856053344
9.987583999999998,4.232109635291618,0.1054859093996176
9.989988,4.226896624843155,0.10540268136587004
9.992372,4.22247501032761,0.10531808430876692
9.994751999999998,4.218705022118122,0.10524368512192513
9.997156,4.2158661994684135,0.10515655995845063
9.999544,4.211025276072288,0.10510617806163323
10.001924,4.21419275566183,0.10490775334001955
10.00432,4.2190827967440665,0.10469775491856682
10.006708,4.225974938572722,0.10445360059763364
10.009092,4.229654274841461,0.10428116017302885
10.011488,4.227327308870949,0.1042157012334016
10.013876,4.223138011780882,0.10417478768548291
10.016255999999998,4.221602441743288,0.10410857284330416
10.018656,4.224862469131447,0.10397018655598007
10.021044,4.231195532452661,0.1037736375589112
10.023424,4.242324193199627,0.10350754140276437
10.02582,4.257177516185707,0.10319689195877682
10.028208,4.27030827767909,0.10290182716241501
10.030592,4.284929283239692,0.10254927057346197
10.032988,4.297827727307597,0.10220396030574581
10.03538,4.30551126506917,0.10196452666239966
10.03776,4.315196903577161,0.10169238878413406
10.040156,4.325813707644929,0.10141026403236675
10.042544,4.338292842832253,0.1011098428923998
10.044928,4.35584711469905,0.10072163082803119
10.047324,4.376055113618322,0.10030868581482164
10.049712,4.391327745484983,0.09997869342841462
10.052108,4.404458506978365,0.09969548932728889
10.054507999999998,4.415447398098471,0.09945814802171944
10.056895999999998,4.429649094778493,0.09915738909228222
10.059276,4.448786158511126,0.09877754868657049
10.061676,4.472858589296372,0.09832434067841485
10.064063999999998,4.4944170626560025,0.0978888514579224
10.066444,4.515044370455856,0.09746926548091484
10.068839999999998,4.531527707136014,0.09712363951661022
10.071227999999998,4.544006842323339,0.09684305364884481
10.073612,4.551690380084912,0.09662469983593358
10.076007999999998,4.557883673779266,0.09645806966383114
10.078395999999998,4.566730694526095,0.09627414296501757
10.080776,4.5822356438182315,0.09601146780376467
10.083171999999998,4.600813629043424,0.09569714319775455
10.08556,4.615806721656365,0.09541341305499884
10.08794,4.6297288790826645,0.09515122209960361
10.090339999999998,4.6399263742698516,0.09493008586990104
10.092724,4.649332473524121,0.09471280047192296
10.095108,4.657947176845472,0.09449500381836762
10.097507999999998,4.666561880166824,0.09427598489557923
10.099896,4.677178684234592,0.09402966828295728
10.102276,4.686724553115721,0.0938019052814823
10.104672,4.693057616436935,0.09363346444538873
10.107063999999998,4.7011132412508445,0.09345888133794804
10.109444,4.707306534945199,0.09330494193861912
10.11184,4.710007483825917,0.09322690831747925
10.114228,4.7114977278931365,0.09317799784823387
10.116608,4.717923339012968,0.09306480688985953
10.119011999999998,4.726351050879215,0.09292406268585801
10.121396,4.737851798678519,0.09273673198744653
10.12378,4.750842790545041,0.09249985011243078
10.126176,4.761971451292009,0.09228394213947547
10.128564,4.770306615359639,0.09209725363329234
10.130944,4.780643880173687,0.09188691473334183
10.13334,4.7953574335329066,0.09165571664115951
10.135728,4.812212857265402,0.0913910603441311
10.13812,4.831722008050374,0.0911128112344016
10.14052,4.848809749208346,0.09089135677464247
10.142907999999998,4.8652458640602605,0.09065891007112863
10.145288,4.883032453352536,0.09039029680262914
10.147688,4.900027646711892,0.09012367160291307
10.150071999999998,4.920235645631163,0.08980651925950595
10.152448,4.945006924550709,0.0894060097041526
10.154844,4.9683351812312795,0.08899881223156247
10.157228,4.990592502725212,0.08861103999816315
10.159624,5.017413104219419,0.08813658709823242
10.162019999999998,5.0467948849674835,0.08760552977685254
10.164404,5.073383169036212,0.08710180400410243
10.166784,5.099040287545163,0.08660779568255039
10.169187999999998,5.122695305307698,0.08613893788328444
10.171571999999998,5.150214754936205,0.08564080830188094
10.173952,5.174800938258518,0.08517186092851342
10.176355999999998,5.196453855274636,0.08473209917206083
