Time,Force,Position
11.475996,0.17187090143648442,0.0
11.478391999999998,0.16502598143607264,0.0
11.480783999999998,0.16046270143579808,0.0
11.483164,0.15310592475618853,0.0
11.485559999999998,0.148542644755914,0.0
11.487948,0.14411913438249968,0.0
11.490328,0.13555165288939144,0.0
11.492724,0.12584750804138933,0.0
11.495112,0.1144208017006908,0.0
11.497512,0.10392526091977056,0.0
11.499908,0.09605662756096334,0.0
11.502296,0.08818799420215616,0.0
11.504675999999998,0.07938819528357063,0.0
11.507076,0.07338189304432008,0.0
11.509464,0.07151956192476343,0.0
11.511843999999998,0.07552376341759712,0.0
11.51424,0.07366143229804048,0.0
11.516628,0.07207864043220426,0.0
11.519011999999998,0.07450005005920175,0.0
11.521408,0.0750591285666426,0.0
11.523796,0.07748053819364006,0.0
11.526175999999998,0.08246312707449524,0.0
11.52858,0.08395337114171442,0.0
11.530968,0.08865642076884916,0.0
11.533347999999998,0.09042620408978874,0.0
11.535752,0.09419808815714519,0.0
11.538136,0.101043008157557,0.0
11.540515999999998,0.10888482188600247,0.0
11.54292,0.11258266449475404,0.0
11.545308,0.11258266449475404,0.0
11.547688,0.11209762744591807,0.0
11.550084,0.11054165521044357,0.0
11.552472,0.10898568297496905,0.0
11.554852,0.10556737961993791,0.0
11.557248,0.09907604033185138,0.0
11.559636,0.08965143473756969,0.0
11.562015999999998,0.08409126100926148,0.0
11.564412,0.07946225284073159,0.0
11.5668,0.07176020873914633,0.0
11.56918,0.06391839501070086,0.0
11.571576,0.05621635090911558,0.0
11.573963999999998,0.04730360199403157,0.0
11.57636,0.03960155789244631,0.0
11.578756,0.03161997453714062,0.0
11.581144,0.027336233790586497,0.0
11.583524,0.022121327484254053,0.0
11.585928,0.01797735636456014,0.0
11.588312,0.014252694125446854,0.0
11.590692,0.018955743752581605,0.0
11.593092,0.030429671921523307,0.0
11.595476,0.04004126897090836,0.0
11.59786,0.05072380120693195,0.0
11.600256,0.06047516788317723,0.0
11.602644,0.06529116750681048,0.0
11.605023999999998,0.06917600157066539,0.0
11.60742,0.07334037488824074,0.0
11.609808,0.078156374511874,0.0
11.612187999999998,0.08325191338922766,0.0
11.614584,0.08820768263972112,0.0
11.616972,0.09130112077065794,0.0
11.619364,0.09532572446137308,0.0
11.62176,0.09921055852522802,0.0
11.624144,0.09921055852522802,0.0
11.626523999999998,0.09921055852522802,0.0
11.628924,0.0975148166628933,0.0
11.631312,0.09567930517369838,0.0
11.633691999999998,0.09277285849786493,0.0
11.636088,0.08865570700853272,0.0
11.638476,0.0802548147726464,0.0
11.640872,0.06878088660370468,0.0
11.643268,0.05916928955431963,0.0
11.645656,0.04848675731829605,0.0
11.648036,0.038735390642050775,0.0
11.650432,0.03454419769411371,0.0
11.65282,0.0343099844107672,0.0
11.6552,0.03598342821735124,0.0
11.657604,0.036910802061391065,0.0
11.659992,0.0443544389660099,0.0
11.662372,0.06082829635682228,0.0
11.664768,0.08935818833864043,0.0
11.667156,0.129012949351686,0.008236783994150964
11.669536,0.17993234902281927,0.01629528985854172
11.67194,0.24721192622939386,0.02403329704085795
11.674328,0.323521723922162,0.031728640827906586
11.676708,0.40914128135484407,0.039325421429063916
11.679108,0.5015094192735825,0.04709556206070432
11.681496,0.6020691599173531,0.05499719271172696
11.683876,0.7088184025397393,0.0631349664056327
11.686279999999998,0.8237592478871576,0.07136157795540068
11.688664,0.9485217096536875,0.07950614030393484
11.691048,1.0770994856000786,0.08789348274893834
11.693452,1.2159181868461622,0.09613345095495487
11.69584,1.359623137458745,0.10453035130466631
11.69822,1.5143872289343001,0.11277871454800871
11.700615999999998,1.6730138564179595,0.1210810231810595
11.703003999999998,1.8399737521113808,0.12923676906866854
11.705384,2.0178753170966646,0.13715259487696238
11.707779999999998,2.1910757283126827,0.14506121488668733
11.710167999999998,2.355804997549948,0.15292448508751172
11.712548,2.5070352099572317,0.1608530143167933
11.714944,2.6435556607210344,0.16061486230151562
11.717332,2.7678803072669718,0.16059988201494163
11.719712,2.8814521718340202,0.16086293019865244
11.722115999999998,2.988228234086767,0.16114491554452054
11.724503999999998,3.0894191988387147,0.16141422339205708
11.726888,3.189076489410938,0.16131909845540027
11.729283999999998,3.2800303205789314,0.1610745704645733
11.731671999999998,3.367355829022167,0.1604718393717537
11.734052,3.4474209003001484,0.1597557409591779
11.736451999999998,3.5180364422113564,0.15915379995734683
11.738836,3.5862796921816784,0.15830251405507703
11.74122,3.644793873531506,0.15761634761701138
11.743624,3.7025657766345286,0.1566367721877585
11.746012,3.7466516314524645,0.15586635794731324
11.748392,3.7810556394781503,0.15511414896976186
11.750787999999998,3.8029370822040063,0.1545719856628275
11.753175999999998,3.8124810552272668,0.15435229342417914
11.755556,3.8233755026908858,0.15406777067606317
11.757951999999998,3.8360850594458187,0.15381098983721694
11.76034,3.8547536966117586,0.153430505303174
11.76272,3.875284664897255,0.15299004005969025
11.765116,3.894232841316916,0.15256349500299357
11.767504,3.909316585870603,0.15225733384248877
11.769888,3.9229573081853144,0.15196398010009138
11.772291999999998,3.9323142897534717,0.1518386081752832
11.774679999999998,3.936176825761576,0.1519328010283616
11.777064,3.942413549568435,0.15199432354955913
11.779459999999998,3.940874187815103,0.1523644786888637
11.781843999999998,3.938403660501993,0.1527591632920622
11.784228,3.936631981323184,0.15308071996122663
11.78662,3.9360710069578744,0.15334534541524805
11.789008,3.9357895718462848,0.15358089996634683
11.791388,3.9310846263612813,0.15398136449547337
11.793784,3.9328052919961083,0.1541512524008351
11.796172,3.9405322598701855,0.15413647860335483
11.798567999999998,3.9497494718114825,0.15404104604528102
11.800972,3.960596697446859,0.1538495378632752
11.80336,3.9679988000968427,0.15373006598930583
11.805739999999998,3.9753083549482087,0.15355532623969725
11.808136,3.9801039523739603,0.15342571462076082
11.810528,3.9856909457326304,0.1532859809616735
11.812907999999998,3.994862831703553,0.15306487703112748
11.815308,4.009389393607669,0.15266043083043748
11.817696,4.024055725138645,0.1522453528996298
11.820075999999998,4.041283235923479,0.1517182569717295
11.822476,4.0606526170815895,0.1511210063904313
11.824864,4.078951063053061,0.15056631241511556
11.827244,4.1078190912640595,0.14966362493792384
11.829644,4.135895723542138,0.14876819033530506
11.832032,4.163972355820217,0.14788227675394816
11.834412,4.191537131419098,0.14699776605670653
11.836812,4.218310511085062,0.14612458103717027
11.8392,4.24229039407169,0.1453043760824871
11.84158,4.259425357057906,0.14474258078709876
11.843984,4.274697988924567,0.14423656582591926
11.846372,4.291413643030202,0.1437281789410903
11.848752,4.309991628255395,0.14318265955410697
11.851148,4.3273589086670885,0.14268054442966635
11.853536,4.33965105239931,0.1423224817966985
11.855916,4.353525987997368,0.1419504405530292
11.858312,4.37047395952848,0.141496110462101
11.8607,4.389703571059731,0.14097248939742477
11.863079999999998,4.404928981098148,0.14056092994211478
11.865484,4.419642534457367,0.14013549305452905
11.867868,4.431422821510391,0.1397837161001919
11.870247999999998,4.4393386766974405,0.13952280501428221
11.872652,4.447394301511351,0.13925116894702785
11.87504,4.451957581511627,0.13910391397265337
11.87742,4.459314358191236,0.13890129579491267
11.87982,4.466950674124567,0.1386774724664707
11.882208,4.469511853378423,0.13858121599769269
11.884588,4.475146068565336,0.13840792482614883
11.886984,4.4867865859915,0.13808958486081604
11.889372,4.502990383417938,0.13762626073575
11.891752,4.514630900844102,0.13730485043932675
11.894156,4.522406986404292,0.1370672899338846
11.896544,4.526318640098508,0.13691634768535474
11.898924,4.528647501926889,0.13677706537046233
11.90132,4.530836594128409,0.13664731635909763
11.903708,4.5303719592774545,0.13656412709807772
11.906088,4.527765454053222,0.13654396208074074
11.908484,4.5219461432690755,0.13661564452288
11.910872,4.516918228417846,0.13668069394139484
11.913251999999998,4.508537738379841,0.13685180222855758
11.915652,4.499365852408919,0.13703188052205878
11.91804,4.494058398303969,0.13712305944536737
11.920419999999998,4.48889071382588,0.137201133166423
11.922816,4.482791863788012,0.1372968824425185
11.925204,4.472828581884171,0.1374796360585017
11.927583999999998,4.460443890353331,0.13774718362665878
11.92998,4.452203169942187,0.13790485594034502
11.932368,4.438887312851572,0.13819143863599553
11.934751999999998,4.425711225387814,0.1384580852968134
11.937156,4.411324433110558,0.13876202282698186
11.939544,4.401361151206717,0.13893754158310873
11.941923999999998,4.39554184042257,0.1390059930229109
11.944316,4.392935335198339,0.13898430639505735
11.946704,4.393401865907163,0.1388838511755842
11.949084,4.401876799601654,0.13859083327136143
11.951488,4.411282898855923,0.13827855076356274
11.953876,4.420688998110192,0.13796831980983137
11.956255999999998,4.431305802177961,0.13761824084744062
11.958656,4.443133311059228,0.137228728903702
11.961044,4.459896186993107,0.13672438199158968
11.963423999999998,4.48010418591238,0.1361713469243882
11.96582,4.500451954458511,0.13561504591132298
11.968208,4.517726687071588,0.1351335639193922
11.970588,4.532487462259049,0.1346816205297337
11.972984,4.547388007073372,0.13421233844661615
11.975371999999998,4.5593552855815,0.13380094083578956
11.977764,4.573045125582323,0.13337182998891034
11.980168,4.589016605583284,0.13286823409141857
11.982556,4.597119452225438,0.13254428284135056
11.984936,4.6028481110688375,0.13223940629331077
11.987339999999998,4.609368165845154,0.13193168722897644
11.989724,4.616539846927529,0.13163286841911961
11.992108,4.623012679875605,0.13139424915989878
11.994504,4.63414134062257,0.1310749326105218
11.996892,4.63768090726445,0.13090482371032633
11.999272,4.644573049093105,0.130642084110794
12.001668,4.648951233496144,0.13040606000454805
12.004056,4.652118713085686,0.13020988390696145
12.006436,4.655286192675228,0.13001524571729317
12.00884,4.657662276331852,0.12982730392295472
12.011224,4.660457668869055,0.12960842693126765
12.013604,4.660739103980645,0.12941511227325003
12.016011999999998,4.664093575025291,0.12915307283905533
12.018399999999998,4.66982223386869,0.1288767559769462
12.02078,4.683139986817175,0.12847115476367282
12.023175999999998,4.705816617191688,0.1278558448025501
12.02556,4.72383741976731,0.1273192694729689
12.027944,4.74143891346235,0.1268155110496918
12.03034,4.768771371635753,0.12612938985427666
12.032728,4.800200579100609,0.12541488662796602
12.035108,4.830698621005685,0.12472400582355087
12.037504,4.858682705485148,0.1240599449740002
12.039892,4.887365638098911,0.12334805541622232
12.042272,4.9061778366074495,0.12282341627209324
12.044676,4.928435158101382,0.12225850982353165
12.047064,4.948271069968317,0.12177343146117944
12.049444,4.971691874447504,0.12124371067590407
12.05184,4.9953922181804105,0.12069439718739375
12.054228,5.0188130226595975,0.12017057766003765
12.056608,5.043025223071703,0.11965007309001144
12.059012,5.065235322737392,0.11917219310674165
12.0614,5.0878175094554186,0.11872135855647344
12.06378,5.111470631360084,0.11825305996936054
12.066176,5.135682831772188,0.1177485351831833
12.068564,5.15109523326571,0.11739677456139412
12.070948,5.161013189199176,0.1171743629061453
12.073344,5.1727934762522,0.11692571659601826
12.075732,5.184713532932085,0.11666686275100115
12.078112,5.192629388119134,0.11648236434572017
12.080508,5.197100120320792,0.11632873923795628
12.082896,5.199289212522313,0.11622884957466735
12.085276,5.205994362895864,0.11607877901894197
12.08768,5.20906739882892,0.11602288463081273
12.090068,5.22187139924034,0.11581572743677321
12.092452,5.235886104465257,0.11557921560998581
12.094848,5.2508319752499535,0.11533294079751692
12.097236,5.262565040474736,0.1151516029023458
12.099616,5.273878796818934,0.1149991486799132
12.102019999999998,5.283190452416718,0.11487987036914413
12.104407999999998,5.289568841708305,0.11480633886553515
12.106788,5.2938053606266156,0.11477526959511489
12.109191999999998,5.3011149154779815,0.11469018400880826
12.111575999999998,5.308144931075627,0.11462545585661402
12.113956,5.314476098538972,0.11460821887005508
12.116352,5.327604964174485,0.11449205403273156
12.11874,5.339942433877081,0.11437732268697832
12.12112,5.354933630632151,0.11423928442823787
12.123516,5.371787158506778,0.11407966529424667
12.125904,5.387569751194767,0.11394093296106138
12.128284,5.406937236495009,0.11376793055136623
12.130684,5.427655196235609,0.11355480075097625
12.133072,5.4446484937370965,0.11339005800452186
12.135452,5.466996467171776,0.11312439040796571
12.137852,5.487621879113759,0.11287961983879792
12.140236,5.509457995869242,0.11261212234583069
12.14262,5.524496414452555,0.11243352742460914
12.145016,5.544889508969061,0.11215997540738325
12.147404,5.568355639418622,0.11183996321677978
12.149796,5.59396364024146,0.11148137669673745
12.152191999999998,5.6223651377436346,0.11109260344626805
12.15458,5.652768735992225,0.11067101365243055
12.15696,5.680099298307758,0.11030209633739084
12.159356,5.706638464690376,0.10993851783701628
12.161744,5.729592738460739,0.1096040021019706
12.164124,5.747891184432212,0.10932442088546758
12.16652,5.767120795963462,0.10903379138820105
12.168908,5.78169457969582,0.10879507429521497
12.171292,5.793614636375706,0.10857904398651812
12.173688,5.803951901189753,0.10836481959557856
12.176076,5.810704273391548,0.10818368366470592
12.178472,5.818527580779982,0.10798468679190425
12.180867999999998,5.8282132192879725,0.10776704893691993
12.183255999999998,5.832963490743349,0.10761694207935536
12.18564,5.830916064026558,0.10755304733157467
12.188036,5.825795601376711,0.10753552128560852
12.190419999999998,5.829754476899171,0.10738765566173203
12.1928,5.82770705018238,0.10732391555864629
12.195199999999998,5.820864026039838,0.10731655694417853
12.197587999999998,5.812158670777739,0.10732807381086273
12.199968,5.8026619195827225,0.10733997275233823
12.202364,5.795586578014702,0.10729879798077988
12.204755999999998,5.789210084580984,0.10721546168036597
12.207136,5.781390568908289,0.10712505467489813
12.209531999999998,5.778925729168786,0.10694675127489323
12.21192,5.779254386108618,0.10674140003946195
12.2143,5.781864683048588,0.106493981037691
12.216699999999998,5.785685684802058,0.10621972783250659
12.219088,5.7945818232349975,0.1058782075464124
12.221472,5.807482163160773,0.10548556412782768
12.223867999999998,5.8223846038329645,0.10506784611089551
12.226256,5.8383579796917955,0.10463741489585131
12.228636,5.846462722191818,0.1042980105560965
12.231032,5.853636299132063,0.10396420687671913
12.23342,5.866816178311558,0.10355107248126943
12.235804,5.8781337263714954,0.10315471425043385
12.2382,5.884655677005683,0.10281428121768556
12.240588,5.894390433199785,0.10242252598704535
12.242968,5.907198225326943,0.1019875140855371
12.245368,5.920937183013879,0.10154340604459179
12.247752,5.929880543275064,0.10114942743734551
12.250151999999998,5.935471328349472,0.1008166183082282
12.252548,5.9385009341700234,0.100542240932342
12.254936,5.940691922229412,0.10031728246348846
12.257319999999998,5.9404615006618045,0.10014399577787299
12.259716,5.9355752512953055,0.10001370079021686
12.262104,5.9274761963688904,0.09993400183925766
12.264483999999998,5.922962034054727,0.09982843107916602
12.26688,5.913232965434232,0.09979740980619968
12.269268,5.901362026440461,0.09979843597013811
12.271651999999998,5.888420152260051,0.0998150792786464
12.274048,5.874127803639282,0.09986281741974593
12.276436,5.868914793190819,0.09979782692915781
12.278816,5.870639250541385,0.09965234955707397
12.281211999999998,5.873155103824868,0.09950856486104058
12.283599999999998,5.878464453787688,0.09934119504834354
12.28598,5.884565199683423,0.09917402016651922
12.288384,5.889315471138802,0.09903920211964815
12.290772,5.894857138527097,0.09890576844908323
12.293152,5.901329971475171,0.0987652443241117
12.295547999999998,5.913669337035636,0.0985629356625932
12.297935999999998,5.933085940021989,0.09828031071430737
12.300316,5.9557153485682575,0.09795135496713533
12.302711999999998,5.978764065995108,0.09759677659794738
12.305099999999998,6.001952553048818,0.09723469039574142
12.307484,6.029005471968502,0.09683401373590735
12.309879999999998,6.058200261261463,0.09640336915789914
12.312267999999998,6.08474132350195,0.0959915967145954
12.314664,6.1103512201826575,0.09558441641064037
12.31706,6.136892282423144,0.09517160759737073
12.319448,6.16357311429049,0.09475225484095028
12.321827999999998,6.187739988732222,0.09433921090945711
12.324232,6.208973596867759,0.09396044896724229
12.326616,6.22634277313732,0.0936227237754704
12.328995999999998,6.240918452727548,0.09330909463474292
12.3314,6.254562966757999,0.09300348600872556
12.333788,6.268067711161588,0.09270575985872173
12.336168,6.280920829259119,0.09239946433746388
12.338572,6.291120220304176,0.09210722395888492
12.34096,6.300667985043175,0.09180782370889953
12.34334,6.308353418662618,0.09152351503002286
12.345736,6.307239053363475,0.09132248169567468
12.348124,6.305053752877693,0.09113574218312111
12.350508,6.305941488324966,0.09091531321454095
12.352911999999998,6.307760389332017,0.09068901138030774
12.355296,6.309439520712209,0.09047102398525633
12.35768,6.309116551345984,0.09027305704239881
12.360079999999998,6.30786241641998,0.09008114415240515
12.362467999999998,6.310892022240531,0.08983530288250684
12.364848,6.313409771381885,0.08957431626554017
12.367252,6.316998455709877,0.08930086650996392
12.36964,6.321378535970786,0.0890277620064066
12.37202,6.323616745858418,0.08878073747877195
12.374424,6.324784020559413,0.08854692302019096
12.376812,6.322738489700491,0.0883523774916833
12.379191999999998,6.322695059587986,0.08813915204937743
12.381588,6.322931168729202,0.08791130553204453
12.383976,6.324889839363114,0.08767917460625824
12.386356,6.327639905929945,0.08744837799707547
12.388756,6.329970663616194,0.08723985190204143
12.391144,6.336305622795278,0.08699569985788687
12.393524,6.346365244213475,0.08672809219761166
12.395928,6.355353930445033,0.08647320468673134
12.398316,6.360990041489815,0.08626526588261163
12.400695999999998,6.365974526228539,0.08604922071862921
12.4031,6.370027845407486,0.08583931602227765
12.405484,6.377014430892628,0.08560623701019124
12.407863999999998,6.384652642683827,0.08538194712098249
12.41026,6.391871545594445,0.08518137002259984
12.412648,6.40025393149032,0.08500684667054823
12.415027999999998,6.408217008505614,0.0848546434599185
12.417432,6.4209756829466595,0.08467063866277681
12.41982,6.438529954813457,0.08445427704336872
12.422199999999998,6.461950759292643,0.0841961707696982
12.424604,6.4923090315708585,0.08388247762559249
12.426992,6.519594267916019,0.08359929040231201
12.429372,6.54659996500746,0.0833307242540585
12.431768,6.572394957285403,0.08308163448905335
12.434156,6.598189949563344,0.08283319267104267
12.436535999999998,6.625055877027925,0.08257374093787888
12.438932,6.646567128559313,0.08237573917366607
12.44132,6.66793861046384,0.08218572580803306
12.443699999999998,6.69438522904784,0.08195349984117334
12.446104,6.724324192445476,0.0816745320719506
12.448492,6.754775012522308,0.08141293341029686
12.450872,6.787227933345559,0.08113753910577583
12.453272,6.81874968860903,0.08087000391889487
12.455656,6.853344479805557,0.08057806388938718
12.458035999999998,6.886076939882528,0.08029707155963059
12.46044,6.91936847846694,0.07999272182112216
12.462828,6.95373095223799,0.07967968648142687
12.465208,6.983158058956428,0.07940384070225738
12.467604,7.009931438622392,0.0791367557542999
12.469992,7.030698516049104,0.0789167779518932
12.472371999999998,7.048672096796482,0.07871186921314041
12.474768,7.070649879036694,0.07847939252080087
12.477156,7.097051171650319,0.07820253014812885
12.479535999999998,7.128015744264219,0.07787570944242996
12.48194,7.162193122438034,0.07752220387437325
12.484328,7.1957188743057925,0.07716205965116694
12.486707999999998,7.229663935054131,0.07678224223941946
