Time,Force,Position
12.658583999999998,0.0,0.0
12.660971999999996,0.0,0.0
12.663352,0.0,0.0
12.665751999999998,0.0,0.0
12.668139999999998,0.0,0.0
12.67052,0.0,0.0
12.672915999999995,0.0,0.0
12.675303999999995,0.0,0.0
12.677684,0.0,0.0
12.680083999999995,0.0,0.0
12.682471999999995,0.0,0.0
12.684852,0.0,0.0
12.687251999999996,0.002433161116045363,0.0
12.689636,0.005937257418729256,0.0
12.692035999999998,0.008230648907914409,0.0
12.694432,0.011455205956877884,0.0
12.69682,0.01575069819247989,0.0
12.699199999999998,0.022979456734277065,0.0
12.7016,0.026948187887915497,0.0
12.703983999999998,0.03096224501192784,0.0
12.706367999999998,0.03911837739776485,0.0
12.708764,0.05192844172462423,0.0
12.711151999999998,0.0707429124328649,0.0
12.713535999999998,0.09719180321656626,0.0
12.715932,0.13034394851595,0.0
12.71832,0.1643328157186257,0.0
12.720703999999998,0.20302283669056698,0.0
12.7231,0.2427818969912775,0.0
12.725488,0.2908270036735066,0.00879996254645641
12.727871999999998,0.34259487673697975,0.01792917893823657
12.730272,0.40050692580869446,0.026908937758899788
12.732656,0.46498245976923125,0.03563079241161718
12.735035999999996,0.531586216756128,0.044349301245646164
12.73744,0.6007492571390133,0.05314583255861644
12.739824,0.6775467175973592,0.06178447323690251
12.742203999999996,0.7584862533175298,0.07045977963784257
12.744599999999998,0.844219490605583,0.07913481954451974
12.746983999999998,0.9331636375956824,0.08774887705811073
12.749367999999995,1.0335613105568422,0.0960316037127188
12.751767999999998,1.1402920468392161,0.1039938558992923
12.754155999999998,1.2493063189795965,0.11154630598217426
12.756539999999998,1.3542257376863953,0.11900483538151146
12.758936,1.4542116851984515,0.1264005423988612
12.761319999999998,1.5469352996873844,0.13384924784678154
12.763703999999995,1.6349105385788087,0.14131768342410295
12.766099999999998,1.7269372007913102,0.1486705349770221
12.768483999999996,1.814634796286883,0.1560734855972947
12.770879999999998,1.8994010213341304,0.16355128673607353
12.773284,1.9749500344400803,0.1622673964801366
12.775672,2.0470558204185068,0.16060970337804964
12.778052,2.11380882632161,0.1590856555063725
12.780448,2.1723683336418116,0.15796957844571424
12.782836,2.2279492486854444,0.15682350535242273
12.785215999999998,2.2814827370122863,0.15556690426721542
12.787612,2.3285925100771663,0.15446819381669227
12.79,2.3729106823205806,0.1531937824310449
12.792379999999998,2.4104330522496955,0.1519561599765436
12.794776,2.444744512476764,0.15065057200280324
12.797164,2.4767290067333207,0.14943506311507354
12.799543999999996,2.501776033190849,0.14861945874184002
12.801944,2.5169051037149104,0.1484162509266885
12.804327999999998,2.5325460309181693,0.14825188196841588
12.806711999999996,2.541109720695539,0.1484293712922411
12.809116,2.5495808626742917,0.1485105038494353
12.8115,2.5534433986823957,0.1486645096234392
12.813883999999998,2.5484135879732976,0.14914079551393766
12.816288,2.5447342517045577,0.14950739791231557
12.818676,2.550646110287323,0.14944953025054425
12.821056,2.5544160984968096,0.1495066543011997
12.823452,2.5577667778257163,0.14963007797140884
12.82584,2.5613969964083427,0.1497100022134003
12.828219999999998,2.5695904949912443,0.14950944774374433
12.83062,2.575921662454589,0.1493841404551165
12.833004,2.5823925995447943,0.14924118875881656
12.835383999999998,2.592588198874113,0.14896172800277527
12.837788,2.599291453389795,0.14889508783430855
12.840176,2.6061344775323376,0.14880578455990479
12.842555999999998,2.6052486379429336,0.14904436969193496
12.844952,2.5954232298080835,0.14968157279995578
12.84734,2.585085964994035,0.15030093516836732
12.849719999999998,2.581034541672959,0.15060077827347046
12.852124,2.5754928742846626,0.15102089546943193
12.854512,2.5770284443222558,0.15110195167322457
12.856891999999998,2.5772135399194895,0.15128639130513608
12.859288,2.5841963336888925,0.15116483550123094
12.861676,2.5981165952573235,0.15071048203919182
12.864059999999998,2.6132475616392545,0.15019497840477855
12.866463999999995,2.6163659235426837,0.1502460629907709
12.868851999999997,2.6226970910060285,0.15012329365844335
12.871232,2.634243164775706,0.14974981176372087
12.873628,2.6425764329854675,0.1495411751468595
12.876016,2.645182938209699,0.1495658309873776
12.878396,2.6490001482474295,0.14951381413469034
12.880799999999995,2.651094796792463,0.14951194720264965
12.883187999999995,2.649325013471524,0.14966695915679795
12.885568,2.6487659349640826,0.1497481857358419
12.887971999999998,2.649789648322478,0.14980132372829824
12.890359999999998,2.6584024557859602,0.1495543976191877
12.89274,2.6720903999289143,0.1490655318494176
12.895135999999995,2.6900620848184227,0.14836441154858723
12.897523999999995,2.7043091074688186,0.1478107125534065
12.899904,2.7191152086266546,0.1471728888601302
12.902303999999996,2.737925511277325,0.14639283460409014
12.904691999999995,2.755944417995076,0.14560991126967437
12.907072,2.7656753824734395,0.14521622247151825
12.909467999999997,2.773544015832247,0.1448989970679097
12.911856,2.7775482173250805,0.14473309473043433
12.914236,2.787046864377967,0.14428195528241317
12.916639999999996,2.79812830329669,0.14381053357393947
12.919024,2.7999906344162473,0.14374665943076204
12.921404,2.8030636703493026,0.1436089759771857
12.923807999999998,2.809861368521471,0.14333668793626686
12.926195999999996,2.814656965947223,0.14315033483648093
12.928576,2.818241858559476,0.1430356263229013
12.930971999999995,2.8221062904254492,0.14288086232117037
12.933359999999997,2.8259707222914225,0.14272609831943942
12.93574,2.8290437582244783,0.14258556357334992
12.938136,2.827321196731782,0.14263245572324867
12.940524,2.8245277000524465,0.14273038681490163
12.942908,2.8183816281863363,0.14299887608780884
12.945311999999998,2.813026952253143,0.1432568023697122
12.947699999999998,2.8075325066930903,0.1435336610855187
12.95008,2.7937501188936498,0.14417743110596007
12.952475999999995,2.782621458146684,0.14474913999250655
12.954863999999995,2.7793614307585255,0.1450076621070333
12.957244,2.776892799303285,0.14524988476036685
12.959647999999998,2.7742843982211842,0.1455139002697564
12.962035999999998,2.7693943571389457,0.14589937757035273
12.964416,2.7639924593775103,0.14625290205219413
12.966811999999996,2.764596863855325,0.14636277562749814
12.969199999999995,2.7698570961320312,0.14631580981490858
12.97158,2.7749775587818766,0.1462888309676168
12.973979999999996,2.7800980214317237,0.14625984154732555
12.976367999999995,2.7865689585219284,0.14614047959797744
12.978748,2.7947624571048304,0.1459803315195977
12.981147999999996,2.8038871212475103,0.14579051973408333
12.983532,2.8145945772560266,0.14557853344894728
12.985916,2.8262331988243203,0.14532766560938057
12.988319999999998,2.8349385540864196,0.14518868939171972
12.990703999999996,2.8436439093485184,0.14504839386576046
12.993088,2.855422300543673,0.14477999184649945
12.995483999999998,2.8687834836046635,0.14448946005785654
12.997871999999996,2.8892219040915434,0.143904254268931
13.000252,2.912873130138339,0.14319348740036977
13.002651999999998,2.9318685283862433,0.14264605441219874
13.005039999999996,2.9469994947681735,0.14223464301970157
13.00742,2.9644121011502413,0.1417100500843105
13.009815999999995,2.984897743465364,0.1410634819347543
13.012203999999995,3.00296197615349,0.14054923802815897
13.014588,3.019163877722059,0.1401000594064723
13.016991999999998,3.030709951491736,0.1398022947861567
13.019379999999998,3.0433269604480517,0.1394639790320415
13.021763999999996,3.0619502716436187,0.138918673467969
13.024159999999998,3.0842982450782976,0.13828193726762966
13.026543999999998,3.1047838873934204,0.13770567285802576
13.028927999999995,3.1282027960147394,0.1370538915248498
13.031323999999998,3.1493872864641634,0.1364156716056746
13.033711999999998,3.1776490143394764,0.13555863789630726
13.036095999999995,3.2080526125880673,0.1346086276914842
13.038491999999998,3.237804584530599,0.13364564512967894
13.040879999999998,3.2616900238607416,0.1328677104453645
13.04326,3.284132440951907,0.13209692826063954
13.045655999999996,3.3037813613637383,0.13142045458050222
13.048043999999996,3.315421878789902,0.13099936293563108
13.050428,3.3281333314027037,0.13053700581165156
13.052823999999998,3.344197359202282,0.12993764584324916
13.055211999999996,3.3610527829347787,0.129342407135592
13.057596,3.3780479762941344,0.12874592098508209
13.059991999999998,3.398255975213406,0.12803600793263542
13.062379999999996,3.415530707826483,0.12740008586466628
13.06476,3.4338763756261983,0.12672315088874464
13.067155999999995,3.4475662156270217,0.12615970595903872
13.069543999999995,3.4535271918958985,0.12581731560202195
13.071939999999998,3.4546925707390232,0.12560662403736786
13.074344,3.452784913649093,0.12549347692789756
13.076732,3.446221428760271,0.12549239359375378
13.079112,3.4395181742445877,0.12550687305029978
13.081508,3.4238753511834608,0.12577894231264772
13.083896,3.410234628868749,0.12598645045039744
13.086275999999998,3.4013895039797895,0.12606707829570787
13.088672,3.398550681330081,0.12597603806438626
13.09106,3.3965032546132896,0.12587917255744133
13.093439999999998,3.3923139575232213,0.12585399679850576
13.095844,3.3949223586053225,0.12565187471668407
13.098228,3.3964598245007847,0.12548548110271485
13.100607999999998,3.3993005430083634,0.12534001802022757
13.103004,3.4015821830085002,0.12525536852191416
13.105391999999998,3.401162874127919,0.12529936906660546
13.107771999999995,3.401255421926536,0.1253664328885077
13.110167999999998,3.4098682293900184,0.1252443874871096
13.112555999999998,3.419644519838757,0.12515548580446276
13.114939999999995,3.43794106995236,0.12488391376525962
13.117335999999998,3.461824613424633,0.12449764343711715
13.119723999999998,3.48850165357624,0.12405633453276793
13.122107999999995,3.5199742911536003,0.12349745048590444
13.124512,3.554752282089492,0.12290861661389671
13.1269,3.5937667919436946,0.12227468195325263
13.129283999999998,3.6383682951565683,0.12152065469722471
13.13168,3.6813397846753615,0.12086724127517659
13.134068,3.7190963678878233,0.1203750806770236
13.136451999999998,3.7564336422197036,0.11994378585974884
13.138848,3.7945623124845027,0.11951516309204178
13.141236,3.836415644988415,0.11901798706481814
13.143615999999998,3.878268977492326,0.11853939170799499
13.146012,3.923707202608492,0.11800951680366624
13.1484,3.9674228662319604,0.11751170226658252
13.150779999999996,4.008624572429815,0.11703520140889948
13.153184,4.051456292321748,0.11647463149933232
13.155572,4.0917740547880666,0.11594492710488986
13.157951999999998,4.125713427962798,0.11553276343052163
13.160348,4.158629087779133,0.11507920348306648
13.162736,4.185678214983079,0.1147585881555253
13.165115999999998,4.211656407000385,0.11447331801414316
13.16752,4.237774368644552,0.11418312720778975
13.169904,4.269107236595052,0.11378922769710992
13.172283999999998,4.2968552119332974,0.11344183698494043
13.174692,4.32222899947279,0.11310915523835242
13.17708,4.346951160706223,0.11277485323932812
13.17946,4.373303335633737,0.11237361417232189
13.181856,4.399655510561249,0.11196571202422319
13.184244,4.420420692130093,0.11163944538598036
13.186623999999998,4.438811685900182,0.11132210334058523
13.189024,4.45268662149824,0.11106252682421523
13.191408,4.462836894857185,0.11085915286060483
13.193791999999998,4.471404376350294,0.11066289204888936
13.196188,4.476898821910345,0.11052821412816086
13.198576,4.483743741910758,0.11034593744409472
13.200955999999998,4.489937035605112,0.110155986924755
13.203352,4.495338933366548,0.10996771902379822
13.20574,4.504605262993958,0.10971748106138438
13.208119999999996,4.51186949187495,0.10950410405518436
13.21052,4.519413260009662,0.10926829259326744
13.212903999999998,4.523651674785842,0.10905158986598126
13.215287999999996,4.52416542732291,0.10888744487074593
13.217683999999998,4.5112235531425,0.10893854057745588
13.220071999999998,4.496559117469393,0.10900712874625634
13.222455999999998,4.479101185116951,0.10911523730992065
13.224851999999998,4.457918590525396,0.1092752044232545
13.227239999999998,4.436596226306981,0.10944074857413218
13.229623999999998,4.417555502088703,0.10954744980914012
13.23202,4.405731784923175,0.1095068431740521
13.234403999999998,4.394559694063704,0.10947544244196446
13.236784,4.388462739883705,0.1093467014245878
13.239199999999997,4.3857183608904835,0.10913619331423373
13.241588,4.382042816337482,0.10893838097181055
13.243968,4.382790782157896,0.10863640752531581
13.246364,4.385401079097865,0.10831194334970838
13.248748,4.387172758276675,0.10805286189441335
13.251131999999998,4.391877703761679,0.10774790988221586
13.253528,4.391787051820931,0.10751443281017871
13.255916,4.396491997305935,0.10721221102018344
13.258295999999998,4.398263676484744,0.10695435739661292
13.260696,4.399755816409832,0.10671626065298306
13.26308,4.4009684170812005,0.10649806079321038
13.265463999999998,4.407628241484377,0.10621110381494536
13.26786,4.418292267380389,0.10584954648170107
13.270248,4.430818624395957,0.1054610029707435
13.272644,4.445067542904221,0.10505611600822727
13.275039999999995,4.452378993613457,0.10477276647438998
13.277427999999995,4.4590388180166345,0.10448141382877674
13.279808,4.458341865740202,0.10434894354415883
13.282204,4.457505143836911,0.1042278351209501
13.284592,4.452524450813924,0.1041914593515144
13.286972,4.440838607417388,0.10432232369362275
13.289372,4.430083929580628,0.10443927623710718
13.29176,4.414114345437536,0.10466456703623514
13.294144,4.391858919801474,0.10502615099113347
13.29654,4.373235608605907,0.10527745466159052
13.298928,4.348745764797951,0.10562872181546587
13.301312,4.328771979162026,0.10592604129083644
13.303707999999997,4.306656323152823,0.10626445595187607
13.306096,4.287334163822956,0.10656946095967354
13.308476,4.27266783229198,0.10681119724708166
13.310875999999997,4.262797098186756,0.10697942679413516
13.31326,4.258932666320781,0.10703889238939424
13.315639999999998,4.2538575296413095,0.107132023759556
13.31804,4.250365184827673,0.10722275119271957
13.320424,4.2437998040809815,0.10737308620787885
13.322807999999998,4.24417189113332,0.10740561900870799
13.325208,4.245055834864854,0.10745941022723747
13.327592,4.249012814529446,0.10745391885084843
13.329975999999998,4.252178398261119,0.1074493424808667
13.332372,4.256135377925709,0.10744339038552594
13.33476,4.266657738336991,0.10728139878480494
13.337144,4.277040329121413,0.10713237462973146
13.33954,4.2923582869584465,0.10689699647686711
13.341928,4.316103956661728,0.1064814573015916
13.344312,4.3358454248721765,0.10614439010651174
13.346708,4.363175987187711,0.10569731628867891
13.349096,4.384779786517716,0.10533541775732255
13.35148,4.404521254728165,0.10499835056224267
13.353876,4.42626482368503,0.1046286602200555
13.35626,4.443492334469863,0.10431081835814104
13.358659999999997,4.458997283762,0.10401088712407255
13.361055999999998,4.468775470068607,0.10379727938744862
13.363443999999998,4.481626692308269,0.1035303995058596
13.365824,4.493966057868734,0.10324555234485519
13.368219999999996,4.514593365668587,0.10280978129294352
13.370607999999995,4.535360443095299,0.10237079941464701
13.372992,4.556407059775732,0.1019147446703714
13.375387999999996,4.577453676456165,0.10145868992609577
13.377775999999995,4.603575429816071,0.10092422009661031
13.38016,4.628254160937,0.10037708918957187
13.382555999999996,4.650930791311512,0.09986826870680335
13.384943999999996,4.67081392500669,0.0993894426910101
13.387328,4.689626123515228,0.09893608797223448
13.389723999999998,4.702152480530797,0.09859928871062863
13.392111999999996,4.714539067919505,0.09827127249679872
13.394492,4.723200993069099,0.09798756854095063
13.396891999999998,4.737217594151886,0.09760318410786806
13.399279999999996,4.754307231167729,0.09717066267349239
13.40166,4.7704657026237935,0.0967524766411591
13.404055999999995,4.789417670759193,0.09630484781186158
13.406443999999995,4.808509408521452,0.09585129568362423
13.408828,4.827461376656852,0.09540580747664384
13.411223999999995,4.844411244045834,0.09499572250120929
13.413611999999995,4.860429945875038,0.09459794626204465
13.415996,4.872584215838269,0.09425504607513038
13.418391999999995,4.882736385055083,0.09394215071826126
13.420779999999995,4.894471346137733,0.09363488554477241
13.42316,4.909419112780298,0.09327698304964029
13.425563999999998,4.92022290830317,0.09298521877190154
13.427951999999998,4.934471826811435,0.09267994362103657
13.430335999999995,4.950303537185537,0.09237942365969823
13.432731999999998,4.971210384239109,0.09201255658575012
13.435119999999998,4.9903946697999855,0.09165294694932363
13.437503999999995,5.014654092040333,0.09122677103435009
13.439895999999996,5.040915615027099,0.09077581502078283
13.442283999999995,5.068108303573643,0.09031935781621324
13.444668,5.092600043239468,0.08993777196169014
13.447063999999996,5.115741308464935,0.0895951614278199
13.449451999999996,5.142886775183236,0.0892122362778649
13.451836,5.174967608954148,0.08878488567570023
13.454231999999998,5.203835637165145,0.08840556828193664
13.456619999999996,5.234426226868839,0.08802001122018581
13.459,5.261943780639478,0.08767312780347537
13.461395999999995,5.290904356649093,0.08734102567149725
13.463783999999997,5.318374688591487,0.08705368419787976
13.466168,5.347567582026579,0.08676328250466643
13.468567999999998,5.373035813222557,0.08650280833577312
13.470955999999996,5.395291238858619,0.08629297148852308
13.473339999999997,5.419548765241098,0.08606253202688505
13.475735999999998,5.4410127949442435,0.08585319175850206
13.478123999999998,5.461545659087609,0.0856524635701075
13.480504,5.477655012857562,0.08552271197591585
13.482903999999998,5.5005620647996825,0.0853339439408644
13.485291999999998,5.5233293471149425,0.08515822854988261
13.487672,5.5468880253631205,0.08498664155534912
13.490067999999996,5.570306933984439,0.08482482131447289
13.492455999999995,5.595076317046116,0.08463218287151811
13.49484,5.618262908241957,0.08443534365044773
13.497235999999996,5.631438995705714,0.0843415003933385
13.499623999999995,5.636606680183802,0.08433002038110289
13.502008,5.646709731714504,0.08427238053067969
13.504407999999998,5.659234192872202,0.08417172166769847
13.506795999999998,5.676694021082513,0.08402585182345959
13.509179999999995,5.69163989186721,0.08388181670514708
13.511584,5.7065857626519065,0.08373728637473661
13.513972,5.721019776757404,0.08357637215828764
13.516355999999998,5.736384956422682,0.08340924996793399
13.518756,5.751889905714819,0.08323435236957591
13.52114,5.766743228700898,0.08305152952951227
13.523523999999998,5.784809357246893,0.08282920251246641
13.52592,5.80222385948683,0.08259773096973132
13.528308,5.822990936913543,0.08231844906889194
13.530691999999998,5.836029150608309,0.08210225861065924
13.533088,5.843480370944404,0.08191884891405625
13.535476,5.8474864682951075,0.08174150167391317
13.537859999999998,5.849909773779974,0.08155937063423366
13.540256,5.8526126185185605,0.08136262844157152
13.542644,5.8575971032572856,0.08113271196916082
13.545028,5.873151170235534,0.08078263091289108
13.547428,5.889124546094366,0.08040667897518486
13.549816,5.9008614030348845,0.08003517372036735
13.552196,5.909804763296069,0.07968205596032027
13.554588,5.9145116046389425,0.07933192642466405
13.556971999999998,5.922571021168592,0.07893843618093264
13.559351999999995,5.9313292858325415,0.07850746420866307
13.561751999999998,5.937014514563438,0.07810592285279781
13.564139999999998,5.9433985914286325,0.0776672519392197
13.566519999999995,5.950062207547548,0.077214161753812
13.568911999999996,5.956865593293324,0.07675639419523486
13.571299999999995,5.963808748665961,0.07629554926442844
13.57368,5.967958407359262,0.07584609949556073
13.576096,5.971596209373366,0.07538184347006097
13.57848,5.974442615454552,0.07491104194958464
13.580859999999998,5.980362057468794,0.0744109961020258
13.583256,5.9902857009758685,0.07388064188476812
13.585639999999998,6.001280279669582,0.07333907858333343
13.58802,6.007059952056963,0.07284572927756658
13.590424,6.009626818884429,0.07238706963370764
