Time,Force,Position
13.270668000000004,0.16384910138449904,0.0
13.273064000000002,0.16273094436961735,0.0
13.275451999999998,0.1533346781753432,0.0
13.277836000000004,0.1431470160481509,0.0
13.280232000000002,0.13281958429409846,0.0
13.282619999999998,0.12142121735340748,0.0
13.285,0.10615841854674297,0.0
13.287395999999998,0.09089561974007851,0.0
13.289784,0.07777469130669107,0.0
13.292168,0.06976628832102368,0.0
13.294563999999998,0.06064956138046995,0.0
13.296952,0.054466100746111405,0.0
13.299336,0.04735147455197453,0.0
13.301731999999998,0.04223894910425451,0.0
13.304116000000004,0.03619525809675617,0.0
13.306496,0.029360171156339716,0.0
13.308896,0.023316480148841377,0.0
13.311284000000004,0.016621162835285135,0.0
13.313664,0.010996780708367421,0.0
13.316064,0.0075142689547267735,0.0
13.318452000000004,0.0032403612681680145,0.0
13.320832,3.738876824778642e-05,0.0
13.323235999999998,3.738876824778642e-05,0.0
13.325624,3.738876824778642e-05,0.0
13.328004000000004,3.738876824778642e-05,0.0
13.3304,3.738876824778642e-05,0.0
13.332788000000004,3.738876824778642e-05,0.0
13.335168,3.738876824778642e-05,0.0
13.337564000000004,3.738876824778642e-05,0.0
13.339952,0.0,0.0
13.342332000000004,0.0,0.0
13.344736,0.0,0.0
13.347124000000004,0.0,0.0
13.349504,0.0,0.0
13.351900000000004,0.0004566976488284173,0.0
13.354288,0.0037068919769917955,0.0
13.356672,0.009098956678432236,0.0
13.359068000000004,0.012349151006595612,0.0
13.361456,0.014807949401840883,0.0
13.363836000000004,0.01847745261058489,0.0
13.366236000000004,0.022286725446189114,0.0
13.368624,0.028098099028210186,0.0
13.371004000000005,0.03390947261023126,0.0
13.3734,0.038649911005613796,0.0
13.375792,0.044181745333914446,0.0
13.378172000000005,0.05343824190132838,0.0
13.380568,0.06469683921515916,0.0
13.38296,0.07674683246190805,0.0
13.385340000000005,0.09280102720149065,0.0
13.387736,0.10657358194093597,0.0
13.390128,0.11815704447886108,0.0
13.392508000000005,0.1288546674273818,0.0
13.394904,0.14490507045122591,0.0
13.397296,0.16709964948331152,0.0
13.399676000000005,0.19563333318086817,0.0
13.402075999999996,0.22365326434135788,0.0
13.404460000000004,0.2539529396441156,0.0
13.406844000000005,0.28923330796985924,0.0
13.40924,0.3298664563709263,0.008447805392102044
13.411628000000004,0.3717084137276229,0.017292535210792652
13.414012000000003,0.4195547774657008,0.02600354373450383
13.416416000000002,0.4732657779582998,0.03446395017573169
13.418803999999998,0.5340521200189187,0.04277133086267898
13.421184,0.6001912421548607,0.0511831032728011
13.423579999999998,0.6713110573137889,0.059461999441758465
13.425968,0.7435471336297296,0.06769252104080783
13.428352,0.8182027237147984,0.0759797184476493
13.430747999999998,0.8975594675691329,0.0842260860677362
13.433136,0.9778454811253763,0.09255484223659824
13.43552,1.0693508073693334,0.10069073136164615
13.437915999999998,1.1690968540244353,0.10869831244709187
13.440304,1.2747566551201706,0.11653376248372263
13.442684000000003,1.3722701794612475,0.12450296413760537
13.445083999999998,1.4608460311147482,0.13261266351772125
13.447472,1.5415551452673106,0.1407967541797796
13.449852000000003,1.6224984727032197,0.14888764656652134
13.452248,1.6984611071161428,0.1570802659576798
13.45464,1.773679567424391,0.16525602201871165
13.457020000000004,1.8467108313889882,0.16491864793668007
13.459416,1.9211870134504305,0.16398333716012226
13.461808,1.9915211202500482,0.16307454033868815
13.464188000000004,2.0513347624962535,0.1625193932016325
13.466584,2.105004228734217,0.1620746323925871
13.468972000000004,2.1569058075091108,0.16144688524502554
13.471356000000004,2.2074115858732704,0.16079879621706145
13.473752,2.2535882975205026,0.16022612990712146
13.476144,2.291059653905635,0.1598456594198005
13.478524000000004,2.3219675254019467,0.15957096039578222
13.480923999999998,2.347150529770597,0.1592333510710779
13.483312000000002,2.3615335303321134,0.15917565643828366
13.485692000000004,2.3717272338035627,0.1591592221969956
13.488088,2.378475814289619,0.1592762129430226
13.490475999999996,2.3914630144404034,0.15914054519168372
13.492860000000004,2.4100372079498573,0.15874698785243338
13.495256,2.429170479966752,0.15825257439201423
13.497648000000002,2.4449983986251147,0.15786810295477763
13.500028000000004,2.46045423023114,0.157420791809128
13.502424,2.475677744411687,0.15691313092440795
13.504816000000002,2.4873163659799817,0.15655273028326758
13.507196000000004,2.494811016428582,0.15643714288159444
13.509595999999998,2.4981616957574886,0.15655358148646478
13.511984000000002,2.507099368445065,0.15642479780953794
13.514368,2.5131037748264466,0.1564401176328105
13.516763999999998,2.513660957476018,0.1566809276618501
13.519147999999998,2.5056978804607244,0.15732202184326838
13.521532000000004,2.4968036378856526,0.15800842817459523
13.523936000000004,2.4969887334828864,0.15819865884684642
13.526320000000002,2.5003866346400363,0.15819433400403757
13.528700000000004,2.505367327663022,0.1581518466155362
13.5311,2.5112791862457864,0.15806347127932951
13.533488000000002,2.5165394185224925,0.15797650353430412
13.535868000000004,2.5171438230003074,0.15809806015749608
13.538268,2.5172363707989245,0.1581909209870907
13.540656000000002,2.514675191545067,0.15837895804535748
13.543036000000004,2.514348430463104,0.1585355578543587
13.545436,2.5129507341945017,0.158755531636992
13.547819999999998,2.515417469791873,0.1587956980887208
13.550204000000004,2.5150907087099097,0.15895207293842903
13.552600000000002,2.515974652441445,0.159026512295519
13.554987999999998,2.519000466546257,0.15897971648100878
13.557372000000004,2.5271014173305413,0.15867520558818124
13.559768000000002,2.5332002673684086,0.15847672327833878
13.562160000000002,2.5413012181526935,0.15817677689456733
13.564539999999996,2.555548240803089,0.15756441009527705
13.56694,2.5759413353195946,0.15661841324231884
13.569328000000002,2.597033277970402,0.1555609811918261
13.571707999999996,2.61118775282218,0.15485656295147687
13.574108,2.620127321367625,0.15442610095487366
13.576496000000002,2.629486198793651,0.1539384425200705
13.578880000000002,2.6399160114063163,0.15338939295154502
13.581276,2.648995349578622,0.15294621487326587
13.583664000000002,2.6643605292438988,0.1521721699763477
13.586043999999998,2.675861277043202,0.1515787691361429
13.588444,2.6890845863352015,0.15094194067027755
13.590832000000002,2.699514398947866,0.15041525845309262
13.593211999999998,2.71059583786659,0.14988140307237666
13.595612,2.7178128449193393,0.1495224655496951
13.598000000000004,2.7259610175318665,0.149124532698231
13.600379999999998,2.7379736220103674,0.14857391697215705
13.60278,2.7461217946228955,0.14818587930872998
13.605168000000004,2.749986226488869,0.1480241883889967
13.607547999999998,2.752779723168204,0.14791869467563126
13.609948,2.757435550967095,0.1477452270255314
13.612336000000004,2.7567367028327943,0.14784548319674015
13.614720000000002,2.756037854698494,0.14794385859395945
13.617116,2.7550594673104722,0.14808130889068863
13.619504000000004,2.757154115855506,0.14807957593942456
13.621888000000002,2.7679087936922655,0.14774166288851487
13.624284,2.7783839322753043,0.14744908175802113
13.626676,2.7924439634705958,0.14705832801815075
13.62906,2.803850267613413,0.14673558438558634
13.631456000000004,2.811764226942594,0.14661071388082111
13.633844,2.821400747764472,0.1464410505192197
13.636228,2.8270330670935153,0.14643517971403905
13.638624000000004,2.8334567823554777,0.14641453927125953
13.641016000000004,2.8449556342969116,0.14618033952017181
13.643400000000003,2.8581770477310426,0.14590065382899178
13.645816,2.871118921911452,0.14565713340492634
13.6482,2.8760523931061956,0.14574460530840125
13.65058,2.882848195420495,0.14576575463413133
13.652972000000002,2.891925637734931,0.14566176176639598
13.655356,2.9019342456091466,0.1455249856294446
13.657736000000003,2.9119428534833616,0.14539448341838615
13.660152,2.9288889291566056,0.14499049156294877
13.662536,2.9424824296430736,0.1447568773760067
13.664916000000002,2.957658721995377,0.14450055877200826
13.667312,2.974837115094098,0.1441755767673456
13.669695999999998,2.98628874520729,0.14405962180191495
13.672072000000004,2.99746083606676,0.14398078611665988
13.674488,3.003697559873619,0.1440828488177752
13.676876000000004,3.0141708025987883,0.14409205150007026
13.679252000000002,3.0269256853240956,0.14399210981675747
13.681648,3.0370268409969277,0.1439590891982273
13.684036000000004,3.051923594095512,0.1437624245785969
13.686412,3.070172922380871,0.1434156454699842
13.688807999999998,3.0865599195466737,0.14314208401960601
13.691191999999996,3.102946916712477,0.14287095493353474
13.693572,3.121615553878417,0.14249829039329284
13.695964,3.1513656299630806,0.14173777242868482
13.698352000000003,3.1840489723539385,0.1408925260683086
13.700728000000002,3.2159409188118784,0.14006426348863238
13.703124,3.2471812389637607,0.1392340480325327
13.705512000000002,3.2773506239290047,0.13845879875392755
13.707891999999998,3.298580440348803,0.13798093544197548
13.710288000000002,3.3202295656491816,0.13744377423254794
13.712675999999998,3.340435668710584,0.13691417629105443
13.715056,3.3555666350925146,0.13656322731945983
13.717472000000004,3.372559932594002,0.1361640733848704
13.719856000000004,3.3887618341625707,0.13577356328932666
13.722236,3.4083163109179155,0.13524492786065756
13.724652000000004,3.4296405709941995,0.13461085684640733
13.727036000000002,3.4480315647642885,0.13407061765343004
13.729416000000004,3.4701472207734914,0.13343240729919573
13.731832,3.4906800849168573,0.13282418942259325
13.734216,3.508791539433226,0.13233655285556686
13.736596000000002,3.5258320587629557,0.13189558223656841
13.738988000000004,3.5422209517866277,0.1314493923226396
13.741376,3.557818448877382,0.13101983020739014
13.743756,3.5664784781691075,0.13079981206357616
13.746168,3.573276176341276,0.13062564734666202
13.748556000000004,3.583658767125698,0.13038795556925176
13.750936,3.5976262505223726,0.13008974306378993
13.753332000000004,3.6118732731727676,0.12976661162460423
13.755716000000003,3.632406137316134,0.12924911917587767
13.758095999999998,3.655872267765696,0.12866100356541968
13.760492000000005,3.678267463028619,0.12810539304284177
13.76288,3.704806629411235,0.12742584953275324
13.76526,3.7269695072486817,0.12681613749996093
13.767672,3.7494119243398476,0.12617817200890027
13.770060000000004,3.766639435124681,0.1256953090601763
13.77244,3.7795832051629605,0.12535401871957097
13.774852,3.7962516374403528,0.12493709626724753
13.777240000000004,3.813991004904384,0.12449745697853548
13.779619999999998,3.8317303723684155,0.1240633537441516
13.782024000000003,3.8490976527801095,0.12359568761070105
13.784408000000004,3.861389796512331,0.12325670719505256
13.786792000000002,3.8754045017372487,0.12289692541739988
13.789188,3.8899310636413644,0.12256432312891967
13.791572,3.9005931936795064,0.12231468215546662
13.793955999999998,3.910603697411591,0.12205877285981424
13.796352000000002,3.9133046462923087,0.1219398601628038
13.798736000000002,3.9112099977472754,0.12192808658362993
13.801116000000004,3.906182082896046,0.12198549864985023
13.803520000000002,3.897941362484901,0.1221380067919249
13.805908,3.886767375767561,0.12235782256086562
13.808288,3.8783868857295563,0.12252182660072723
13.810692,3.866002194198718,0.12278558774171228
13.813076,3.8581335608399105,0.12297191919893403
13.815456,3.849985388227383,0.12318503260558795
13.81786,3.8449102515479106,0.12331867445936837
13.820244,3.8401146541221585,0.1234262658577293
13.822624,3.830663228897515,0.12362697812899784
13.825024000000004,3.818138767739816,0.12390720280877168
13.827408000000002,3.8053347673283966,0.1242116412354713
13.829792,3.792111458036397,0.12455565235558984
13.832196,3.786244925424007,0.12469228280575924
13.83458,3.7785160616920597,0.12486398966551515
13.836963999999998,3.7672023053478596,0.1250954919730855
13.839368000000004,3.7633378734818863,0.12518181386388477
13.841752000000003,3.75970575904139,0.12531628939672967
13.844131999999998,3.7590994587057063,0.12544612116187628
13.846536000000004,3.7607747983701594,0.12549815710573967
13.848920000000003,3.7661748002737263,0.1254756729872716
13.851299999999998,3.77357690292371,0.12540213015529714
13.853692,3.7834929629993077,0.12529950002687124
13.856080000000002,3.792338087888267,0.12523049258084767
13.858476,3.803976709456561,0.125104362397152
13.860879999999998,3.812821834345521,0.12503468983760582
13.863263999999996,3.822737894421119,0.12493343068355396
13.865648000000004,3.8355872208029123,0.12476686734058089
13.868044,3.852952605356737,0.12452729739348468
13.870428,3.8731114865898966,0.1242322245035786
13.872808000000004,3.89154780633036,0.12395631274067102
13.875212,3.9063992334585693,0.12373703889868264
13.877599999999996,3.9235323005869165,0.12344453600137985
13.87998,3.937312792528488,0.12326404973352523
13.882383999999998,3.952024450029838,0.12306682659408708
13.884767999999998,3.972742409770438,0.12272921612191723
13.887148,3.9882926850329485,0.1224611991260699
13.889544000000004,4.00575251324326,0.12209099979552966
13.891932,4.0283346999612855,0.12153495231825656
13.894312000000005,4.047704081119396,0.12106607444218288
13.896708,4.064140195971311,0.12066112312393547
13.899096000000004,4.081787015636726,0.12022079304263138
13.901476,4.096268251570468,0.11979602182863885
13.903879999999996,4.110377400451871,0.11934037976150957
13.906264000000004,4.123974692654078,0.11886580553326494
13.908644,4.138642920042924,0.1183615516583039
13.911044,4.151728355565933,0.11786592445428007
13.913428,4.163230999223106,0.11738587303483218
13.915812,4.167424088028912,0.11701902563995256
13.918208000000003,4.171896716088439,0.11663032938625983
13.920592000000005,4.180373545640799,0.11615652431004611
13.922971999999998,4.191783641499353,0.11562010769771357
13.925376000000004,4.202122802171271,0.11511745924539983
13.927764,4.210879170977352,0.114618184219073
13.930148,4.21605064717118,0.1141660421543768
13.932544000000004,4.21307395075248,0.11389840106839277
13.934928000000005,4.21568424769245,0.11354103941323951
13.937312000000002,4.2130796383260884,0.11330730676232596
13.939708,4.2049805833996725,0.11321999247839734
13.942092,4.2010254995929515,0.11303807143171499
13.944472,4.199631595040088,0.11276724653559068
13.946872000000004,4.195304424181029,0.11255213626124355
13.94926,4.195772850747723,0.1122544862878719
13.95164,4.197963838807112,0.11194265015916084
13.954052,4.203088093172697,0.11158155890541295
13.956440000000004,4.208352117165142,0.111209671561561
13.95882,4.214407537090504,0.11083570723710473
13.961223999999998,4.220183417762147,0.1104878377227907
13.963612,4.231406522165599,0.11006990839889937
13.965992000000004,4.240627525822634,0.10969132167577512
13.968388,4.246775493546615,0.1093768822164747
13.970776000000004,4.252923461270595,0.10906297404472497
13.973156,4.2550672275017405,0.10882298340527653
13.975559999999998,4.263077526345278,0.10848424637504493
13.977948,4.273741552241289,0.10811511325476619
13.980328000000004,4.287478614070356,0.10767566202098977
13.982732000000002,4.294278208100393,0.1073665982361524
13.985116,4.304802464369544,0.10700185880203891
13.987496000000004,4.316118116571615,0.10663372384150045
13.989892,4.324360732840628,0.10633134265705356
13.992279999999996,4.3332549754156995,0.10604366645434177
13.99466,4.341869678737051,0.10577739568507738
13.997063999999998,4.34512970612521,0.10563560373006761
13.999452000000002,4.346108093513231,0.10555513019619425
14.001832000000004,4.343873675341337,0.1055476304698119
14.004228,4.341080178662002,0.1055856800793567
14.006615999999998,4.340940409035142,0.10559697418853188
14.008996,4.339589934594782,0.1056432105646768
14.011399999999998,4.3383792297812835,0.10567770596707082
14.013788000000002,4.337959920900703,0.10571120973758868
14.016168000000004,4.339542712766539,0.10570913742903984
14.018572000000002,4.3429878357519325,0.10568316222134853
14.020956000000002,4.3502973906032985,0.10559693722914387
14.023336000000004,4.352392039148333,0.1056163411092347
14.025740000000004,4.3584908891862,0.10556717884692009
14.028128,4.368593940716902,0.10545084015245246
14.030508,4.384423755233134,0.10525364360889364
14.032903999999998,4.401184735309143,0.1050474029959156
14.035292000000002,4.423020852064625,0.10475752081474797
14.037672000000004,4.447790235126302,0.10442507787246286
14.040068000000002,4.469067273374343,0.10418003056048977
14.042455999999998,4.492346412368801,0.10390136579966466
14.044836,4.52056091841587,0.10354512254914204
14.047231999999996,4.544771222970106,0.10324766798785065
14.04962,4.566839657151067,0.10299135925389329
14.052004,4.5914692705858835,0.10266088476502788
14.054399999999998,4.615307488087782,0.10233814867298979
14.056784000000004,4.637283374470125,0.1020344151209025
14.05918,4.654184124172995,0.10181837684914663
14.061576,4.6738783705552,0.10157099547081916
14.063959999999998,4.69636611361674,0.10129639499206705
14.066344000000004,4.717503382237921,0.10106675886222685
14.068748000000005,4.737989024553045,0.10082916994716079
14.071136,4.763410033920779,0.10052006135476399
14.073516,4.786968712168957,0.10024133785915391
14.075912,4.809456455230497,0.09998973396753319
14.078300000000002,4.829430240866422,0.0997519536846253
14.080679999999996,4.847821234636511,0.09951666399248547
14.083076000000002,4.856341494301377,0.09941887291194401
14.085463999999998,4.864070358033324,0.09932253307671948
14.087844,4.8726378395264325,0.0991663944097488
14.090239999999998,4.884557896206316,0.09894627392547453
14.092628,4.894243534714306,0.09871835995428069
14.095008000000004,4.913288050648322,0.09834120983150892
14.097412000000002,4.939689343261948,0.09784703751713054
14.099796,4.9647401614352145,0.09739641438727564
14.102176000000004,4.986345856623089,0.09696468666413333
14.104580000000002,5.0130266884904335,0.09646221629727103
14.106967999999998,5.043060095544556,0.09589057013542146
14.109348,5.070719314799923,0.09532391278253867
14.111748000000002,5.087856173644011,0.0948690460319335
14.114132,5.105971419876117,0.09435182192154463
14.116516,5.125157601294863,0.09382029492258012
14.11892,5.137965393422021,0.09334156415430268
14.121308000000004,5.145558279242846,0.09294152982177772
14.123687999999998,5.151288833944115,0.09256043145841944
14.126084000000002,5.1570193886453835,0.09218017016206334
14.128472,5.165683209652847,0.09176979642415277
14.130852,5.18170380733992,0.09124456993023576
14.133252000000002,5.197584635400133,0.0907322613855502
14.13564,5.21569988163224,0.09023463237050315
14.13802,5.228600221558016,0.08981794794244014
14.140424,5.240941482976351,0.08943890536559565
14.142812000000005,5.246205506968796,0.08915273624746631
14.145191999999998,5.244392293535351,0.08895650357005983
14.147588000000002,5.243929554542266,0.08872748829707891
14.149976,5.242907737041739,0.08853260615805678
14.152359999999998,5.2381612573020995,0.08836739249618807
14.154756000000004,5.236348043868655,0.08817274193267706
14.157144,5.232253190435073,0.08801801602888439
14.159524,5.236818366293217,0.08777977941461448
14.16192,5.244688895509892,0.0875439615679463
14.164303999999998,5.252000346219128,0.08734438875868289
14.166700000000002,5.261825754353978,0.08714069295534158
14.169100000000004,5.2779370039818,0.08685221480897472
14.171488,5.297121289542677,0.08652959233389156
14.173868000000002,5.317096971036472,0.08621093607613903
14.176260000000005,5.331578206970213,0.08597817008041148
14.178648,5.343498263650097,0.08580345302077998
14.181028,5.3563494858897585,0.08562410076112402
14.183432,5.368688851450224,0.085427298352423
14.185820000000003,5.3799572818240495,0.08524375823523639
14.188199999999998,5.392017108130794,0.08506253085697149
14.190592,5.4110144022365665,0.08481372310268825
14.192980000000002,5.431874027461896,0.08455085527195468
14.195364,5.4481703726869535,0.08436444712348148
14.19776,5.469262315337761,0.08413793241146604
14.200143999999998,5.491797280227543,0.08392453300479562
14.202540000000004,5.5129817706769675,0.08374679960174833
14.204936,5.538822088925283,0.0835386920343071
