Time,Force,Position
13.659864,0.0017614700305900568,0.0
13.662244,0.0017614700305900568,0.0
13.664647999999998,0.0017614700305900568,0.0
13.667035999999998,0.0004850370488359732,0.0
13.66942,0.0004850370488359732,0.0
13.671812,0.0,0.0
13.6742,0.0,0.0
13.676584,0.0,0.0
13.67898,0.0,0.0
13.681364,0.0,0.0
13.683748,0.0,0.0
13.68614,0.0,0.0
13.688528,0.0,0.0
13.690912,0.0,0.0
13.693308,0.0,0.0
13.695692,0.0030462163026936644,0.0
13.698071999999998,0.0071633677920258584,0.0
13.700476,0.012211684841136373,0.0
13.702864,0.01926210263666374,0.0
13.705244,0.027103916365109216,0.0
13.707644,0.032803859720277634,0.0
13.710032,0.03543076714239067,0.0
13.712412,0.03712650900472539,0.0
13.714808,0.03803085493414199,0.0
13.717196,0.03803085493414199,0.0
13.719575999999998,0.03803085493414199,0.0
13.721976,0.03803085493414199,0.0
13.72436,0.03803085493414199,0.0
13.726756,0.039354509744139225,0.0
13.729152,0.04146956048705457,0.0
13.73154,0.050661848655859,0.0
13.733924,0.06092507201130196,0.0
13.736316,0.07239900018024367,0.0
13.738704,0.07986872685635167,0.0
13.741088,0.08934055427887652,0.0
13.743484,0.09669733095848602,0.0
13.745872,0.10312294207831721,0.0
13.748252,0.10554435170531469,0.0
13.750652,0.10382179021261825,0.0
13.75304,0.1013078327870037,0.0
13.75542,0.10414855129458181,0.0
13.757816,0.1100623057352153,0.0
13.760204,0.11783839129540545,0.0
13.7626,0.12747680797515223,0.0
13.764995999999998,0.1418840024502891,0.0
13.76738,0.15522026173878745,0.0
13.76976,0.17069839140056287,0.0
13.772163999999998,0.18096161475600578,0.0
13.774551999999998,0.18883024811481303,0.0
13.776932,0.1909721184880901,0.0
13.779327999999998,0.18189278031578415,0.0
13.781715999999998,0.17162955696034118,0.0
13.7841,0.1601556287913995,0.0
13.786495999999998,0.15545257916426472,0.0
13.788883999999998,0.14598075174173986,0.0
13.791264,0.13557775875943667,0.0
13.79366,0.1250349961502733,0.0
13.796048,0.11756526947416532,0.0
13.798428,0.11223741317133437,0.0
13.800824,0.10690955686850345,0.0
13.803212,0.0983688950057569,0.0
13.805592,0.08982823314301039,0.0
13.807996,0.08035640572048555,0.0
13.810384,0.06981364311132217,0.0
13.812768,0.05540644863618529,0.0
13.815163999999998,0.04207018934768694,0.0
13.817552,0.02991023181084865,0.0
13.819936,0.03204262289477949,0.0
13.82234,0.03780523256133733,0.0
13.824728,0.057068794915746186,0.0
13.827111999999998,0.08624841734575298,0.0
13.829508,0.11889166910116483,0.0
13.831896,0.15725978798423756,0.0
13.834276,0.1947216650800245,0.0
13.836671999999998,0.24588999265877798,0.010298160016038295
13.839059999999998,0.30334226587263324,0.02026586026548141
13.84144,0.3684289591619491,0.029722498568109833
13.843835999999998,0.43993936771322695,0.03894521226459214
13.846223999999998,0.5188046570862451,0.04789429137409894
13.848604,0.6036743528406445,0.056789298364151884
13.851003999999998,0.6941291460958446,0.06573506505041114
13.853391999999998,0.7924506768519826,0.07451033793323283
13.855772,0.8948217350713283,0.083252964271021
13.858168,1.0014293122089848,0.09180097706604178
13.860556,1.1101787597199184,0.10019027473091831
13.86294,1.2182765809247942,0.10857787296262579
13.865336,1.3213336685120363,0.11704324759987413
13.867724,1.4171756449043986,0.1254042281223092
13.870104,1.5097594897664712,0.13389898909938044
13.872504,1.5942896056725027,0.14242161662410366
13.874892,1.6718369278091314,0.15105190819271477
13.877276,1.7504570809902678,0.15934257520760653
13.879671999999998,1.821909344804767,0.1676548369203941
13.88206,1.8927118781710779,0.17586579255352178
13.884444,1.9515037029167568,0.17385378927581177
13.886839999999998,2.001450402773476,0.17240781501752933
13.889228,2.0462766399803494,0.1713700312689014
13.891623999999998,2.088403824164374,0.1703688301832159
13.89402,2.1253179978999355,0.16949822569487716
13.896408,2.153574038201641,0.1687968785803589
13.898787999999998,2.1777352250697644,0.16789808722852903
13.901184,2.194821070369869,0.1671487628028759
13.903572,2.2105111152592403,0.16632289547508672
13.905955999999998,2.2255495338425533,0.16554580787736706
13.90836,2.2403084131721465,0.16484642004072786
13.910744,2.2575812499273544,0.1640701231701825
13.913123999999998,2.2765766481752583,0.16321604989409627
13.915528,2.291567844930328,0.16259015567419163
13.917916,2.309399760192976,0.16170669605828245
13.920296,2.3304444810155402,0.160644957002465
13.9227,2.3532117633308007,0.15950286868432
13.925088,2.370065291205427,0.15882342605029223
13.927468,2.387290906132392,0.15818242092579632
13.929871999999998,2.397299514006607,0.15795505009551877
13.932259999999998,2.4094499922540993,0.15758675394321625
13.93464,2.426023980875006,0.1568999695298705
13.937036,2.437942141697021,0.15644519334816342
13.939424,2.4449249354664233,0.1562775165483777
13.941804,2.44855515404905,0.15634445529339078
13.9442,2.4546993300572915,0.1563200805769105
13.946588,2.459353261998314,0.15644239040153557
13.948968,2.4624244020735,0.15660702592038417
13.951372,2.46377298065599,0.15683568027656627
13.95376,2.460186192185868,0.15732784928593394
13.95614,2.4581821955815815,0.15776837963493276
13.958536,2.4544556374845987,0.15826412977993282
13.960924,2.454081654574392,0.15854135110410847
13.963304,2.456268850918043,0.15862754052921288
13.965704,2.4604581480081107,0.1586167265341048
13.968088,2.45784974692601,0.15891503778437932
13.970472,2.4590132299112657,0.1589478975430111
13.972868,2.4656711584565745,0.15867519963810653
13.975256,2.4752623533080786,0.15827513205403693
13.977636,2.4957952174514446,0.15736397959391096
13.980032,2.514325980848393,0.15654949973449508
13.98242,2.5311341827526466,0.15579874922712716
13.984804,2.553017521336372,0.1548089941860253
13.9872,2.575971795106735,0.15374817235687116
13.989588,2.5999970040637375,0.15261450004929067
13.991967999999998,2.6290973497002113,0.15127593571698475
13.994368,2.656195594590269,0.1500119677559234
13.996756,2.6852959402267436,0.1486620255251591
13.999135999999998,2.7134651203034394,0.14735725390423085
14.001532,2.7432643140742146,0.14589875588604156
14.00392,2.764822787433846,0.14473490999028385
14.006299999999998,2.789174757472812,0.14348866473429708
14.008696,2.8089634475115033,0.14252649940007062
14.011084,2.8283328286696134,0.14163158102354712
14.013464,2.8414163683347535,0.14105410320428527
14.015868,2.860925519119724,0.14015570973528044
14.018256,2.8758713899044204,0.13953206704571147
14.020635999999998,2.8860216632633646,0.1391014276973392
14.02304,2.8963117062491692,0.13866276179409429
14.025424,2.904879187742278,0.13828712101060453
14.027808,2.9140982955414443,0.1379158275118835
14.030212,2.922526007407692,0.13755525509174002
14.0326,2.927089287407967,0.13733171444350586
14.03498,2.9359363081547953,0.13693091490300846
14.037376,2.9447833289016243,0.13652865952027307
14.039764,2.9476240474092026,0.13635076814389327
14.042148,2.9533980322229754,0.13607223958967454
14.044544,2.9615462048355035,0.13577416415537064
14.046932,2.970485773380948,0.13546819141755922
14.049312,2.9779350978591745,0.13525683172968392
14.051708,2.9919025812558497,0.1348504702078359
14.054096,3.0026572590926084,0.13458339737451663
14.056475999999998,3.0162054336087025,0.1342346484045754
14.058872,3.0334782703639105,0.13378983861758578
14.06126,3.056897178985228,0.13312529695981135
14.063643999999998,3.078686073912467,0.1325944805788754
14.06604,3.09861263772015,0.13210257072401987
14.068428,3.117840353393531,0.13168637967021005
14.070807999999998,3.1367885298131926,0.1313153632542941
14.073208,3.152104591792357,0.13112743524845571
14.075596,3.1656980922788245,0.1309670680506818
14.077992,3.1825969461238253,0.13076079567376922
14.080388,3.198936721461386,0.1306143140371207
14.082772,3.207919720119336,0.1307481164820199
14.085156,3.217973653963925,0.13083982228369126
14.087552,3.2276082789279332,0.1309788815395415
14.08994,3.237894530197999,0.13112633214733727
14.09232,3.2445958888558124,0.13135800508795856
14.094723999999998,3.2526477219539847,0.13151578054465646
14.097108,3.2640521302389325,0.13153529547337967
14.099492,3.274665142590962,0.13156440381393672
14.101888,3.2872802556894087,0.1315294511657787
14.104276,3.300454447295296,0.13143482810385204
14.106656,3.3106953725949886,0.13142936552573423
14.109056,3.3157213915883483,0.13159973345221337
14.11144,3.3159518131559564,0.1318984619938096
14.11382,3.3201864362163978,0.13207529007595448
14.116216,3.327773634463615,0.13212055856176394
14.118604,3.3333587319644162,0.13222660510486095
14.120988,3.338292203159159,0.13232349633950302
14.123384,3.3481610414065135,0.13227452877388232
14.125772,3.354305217414755,0.1323174449640508
14.128164,3.365012673423271,0.13217713720277627
14.130563999999998,3.3797243309246205,0.13190844817122127
14.132948,3.3973692547321654,0.13156607023159722
14.135332,3.4174355881667084,0.13111260875431147
14.137731999999998,3.4392717049221906,0.1305607356944026
14.140119999999998,3.4569638505579783,0.13013088922526303
14.1425,3.4723743561936296,0.12979725829903618
14.144899999999998,3.488296718508478,0.12949696057020768
14.147287999999998,3.5040793111964663,0.12921432718039189
14.149668,3.515345845712423,0.129022701874603
14.152067999999998,3.5224684091086855,0.12896279998298263
14.154455999999998,3.5258663102658354,0.12898862943769426
14.156836,3.5294039810498457,0.12899858028813205
14.159231999999998,3.538808184446246,0.12884345205540368
14.16162,3.5483521574695067,0.1286778347440046
14.164,3.558175669746487,0.12848766972187814
14.166396,3.568418490904049,0.12825263013424368
14.168784,3.5820138872483858,0.12789726994739664
14.171164,3.5957490532195835,0.12753977190060886
14.173571999999998,3.6134884206836153,0.12707584440704048
14.175959999999998,3.629085917774369,0.12669014884281754
14.17834,3.644031788559065,0.12629772900364733
14.180739999999998,3.655904623410706,0.12599935102571408
14.183123999999998,3.6691279327027058,0.12564673156373446
14.185508,3.6765772571809334,0.12549813210388217
14.187907999999998,3.694037085391244,0.12509767801369895
14.190295999999998,3.711776452855275,0.12466995932021993
14.192679999999998,3.7287244243863884,0.12425563314273262
14.195075999999998,3.7450207696114437,0.1238343699193327
14.197463999999998,3.7659729426353903,0.12332044078636296
14.199844,3.791720713085089,0.1227033573701332
14.202244,3.8222640809605393,0.12197666947703878
14.204627999999998,3.8558804847690453,0.12117082535031853
14.207012,3.885911995965298,0.12043304749898381
14.209407999999998,3.9139414064151334,0.11975213859033738
14.211795999999998,3.938618241678194,0.11918056560049813
14.214176,3.965297177687671,0.1185689493451981
14.216575999999998,3.992348200749485,0.11800735310158103
14.218963999999998,4.013253151945189,0.11759918010356715
14.221344,4.028431340155362,0.1173056616401157
14.223743999999998,4.042818132432618,0.1170179074133724
14.226131999999998,4.0581360902696515,0.11671603530446574
14.228512,4.073873356987265,0.11637931906547715
14.230911999999998,4.086258048518104,0.11614437306504619
14.233299999999998,4.104416724862717,0.11572895444615103
14.23568,4.1140551415424635,0.11547525316461194
14.238075999999998,4.123414018968489,0.11524648786693689
14.240463999999998,4.127185903035846,0.11511121146375326
14.242844,4.134682449342316,0.11491600438748986
14.245243999999998,4.142318765275646,0.11471174248203421
14.247628,4.146090649343003,0.11458125217401087
14.250012,4.151073238223858,0.1144144994859042
14.252408,4.152982791171657,0.11431611685048612
14.254796,4.154612804865737,0.11424121770264863
14.25718,4.155171883373178,0.1141929431883007
14.259576,4.155870731507478,0.11413215465787996
14.261964,4.155079335574561,0.11413497659364687
14.264348,4.149771881469611,0.11420000275046535
14.266744,4.151681434417411,0.11410126944368663
14.269132,4.1590382110970205,0.1139257081291579
14.271527999999998,4.165184282963131,0.11378844021629923
14.273924,4.173984081881716,0.11362233349349374
14.276312,4.181712945613663,0.1134839745794954
14.278691999999998,4.194796485278803,0.11321907073706852
14.281092,4.2034565145705285,0.11307116582195355
14.28348,4.218494933153842,0.112839213058927
14.285859999999998,4.233812890990876,0.11258405466473935
14.288256,4.255649007746357,0.11223055022883094
14.290644,4.2725497574492275,0.11197316831139537
14.293027999999998,4.287727945659401,0.11173506237808112
14.295424,4.304908234615991,0.11145796089054673
14.297812,4.3196671139455844,0.11125733249649927
14.300192,4.336847402902175,0.11098576614088189
14.302587999999998,4.359102828538238,0.11061885615102758
14.304975999999998,4.383500124547578,0.11020318257556291
14.30736,4.414183262049887,0.10966313400769681
14.309755999999998,4.442352442126583,0.10913573517711263
14.312143999999998,4.472383953322837,0.10857823115312656
14.314528,4.496269392652978,0.10814891385872968
14.316923999999998,4.517920413811227,0.10771943668619934
14.319311999999998,4.544926110902668,0.10717935997631972
14.321695999999998,4.568486685008714,0.10667532833452545
14.324091999999998,4.592047259114762,0.10617273262246733
14.326479999999998,4.609321991727839,0.10580085907091617
14.32886,4.628598825087332,0.10539386535086293
14.33126,4.643359600274794,0.1050394401175106
14.333647999999998,4.6570494402756175,0.10470680054057722
14.336028,4.66622322210441,0.10442323043553664
14.338423999999998,4.677027017627283,0.10407485918730264
14.340811999999998,4.69034477057577,0.10371691567749868
14.343196,4.7020797316584195,0.10336147674136172
14.345591999999998,4.711580274569175,0.1029970192582704
14.347984,4.719590573412712,0.10268766945287781
14.350364,4.724527836323194,0.10243684419361451
14.352772,4.7306758040471735,0.1021571556165741
14.35516,4.728955138412346,0.10199545978572289
14.357544,4.7323096094569905,0.10175105876733542
14.35994,4.733801749382079,0.10152670456318658
14.362328,4.738366925240221,0.10124949772494692
14.364712,4.742512792217784,0.1010035436857438
14.367112,4.740372817702377,0.10087245299218935
14.369496,4.738093073560109,0.10075149258603523
14.37188,4.731669358298148,0.10070258679104013
14.374276,4.726037038969104,0.1006538384019021
14.376664,4.718682158147364,0.10061601563513692
14.379048,4.714260543631819,0.10053564399627635
14.381444,4.715705461728664,0.10037284027286587
14.383832,4.7208750420646215,0.10016891434632416
14.386216,4.7262769398260565,0.10000647446708581
14.388612,4.727814405721519,0.09989544430727097
14.391004,4.733867929789014,0.0997455180487382
14.393388,4.743366576841901,0.09957620630187758
14.395796,4.755798490200982,0.09936872321151606
14.398184,4.766228302813647,0.09919061788896533
14.40056,4.775167871359092,0.09906388449283705
14.402955999999998,4.78834395882285,0.09891736540412732
14.40534,4.797096535913192,0.09886016773535748
14.40772,4.812367271921984,0.09873689149538523
14.410112,4.827498238303914,0.09862475414941102
14.4125,4.843560370245623,0.09850367930460731
14.414879999999998,4.8613450636800275,0.09837108329737831
14.417272,4.876848117114296,0.09828572108478931
14.41966,4.9020821350269275,0.09807520208318311
14.422052,4.9336019944325304,0.09776302821699465
14.424456,4.9667046457039685,0.09745124679064716
14.426844,4.996734261042351,0.09718995699763024
14.429224,5.021828509328123,0.09700042712785524
14.431623999999998,5.0477141535468135,0.09681589218607763
14.434012,5.073599797765502,0.09663188699653816
14.436392,5.100696146797691,0.09641913977994293
14.438795999999998,5.1248592295236834,0.09624711324046059
14.44118,5.149162081876537,0.09606919239183687
14.44356,5.167738171243862,0.09595216934436752
14.445952,5.189806605424821,0.09576481516665618
14.44834,5.211083643672862,0.09557709133242027
14.450715999999998,5.229567185241568,0.09541422848500537
14.45312,5.249261431623773,0.09522281836411467
14.455508,5.264579389460807,0.09505977215703082
14.457888,5.280037116924701,0.09488901851394677
14.460292,5.2944239092019565,0.0947359878080286
14.46268,5.312163276665987,0.09452338677207477
14.46506,5.332044514503296,0.0942737229833832
14.467463999999998,5.348201090101489,0.09406346229560175
14.469848,5.356349262714017,0.09395490656310804
14.472228,5.364776974580265,0.09382930720785225
14.474624,5.371062816073235,0.09373604221661944
14.477012,5.377348657566206,0.09364277722538665
14.479392,5.38191193756648,0.09355781623123595
14.481788,5.385032195327779,0.09346240844171676
14.484172,5.3912254890221325,0.09332694482140699
14.486568,5.397838091597068,0.09316638962195685
14.488972,5.398723931186471,0.09306050733656777
14.491355999999998,5.406826777828625,0.09285763769027659
14.49374,5.410506114097365,0.09272932817914743
14.496135999999998,5.413673593686908,0.09258252024674608
14.49852,5.422475288463363,0.09233900199193064
14.500904,5.433558623239955,0.09205659623463028
14.503299999999998,5.444781727643407,0.09176684670615086
14.505684,5.4540027313004416,0.09150049664224284
14.508064,5.463782813464919,0.09120033114717752
14.51046,5.469978003017143,0.0909225640399367
14.512848,5.4775236670097245,0.09061337124386488
14.515228,5.477480236897219,0.09036738544953946
14.517624,5.4817205475312685,0.09005792391828868
14.520012,5.480373864806649,0.08978959448922443
14.522408,5.4843818580152215,0.08944170975939494
14.524812,5.486946828984817,0.08908146039925312
14.5272,5.4857871377153,0.08874904735223976
14.52958,5.485558612005562,0.08840917086775746
14.531984,5.478252848869933,0.08815370853011258
14.534372,5.46787404980125,0.08793638523659358
14.536751999999998,5.462710157038899,0.08764746170704939
14.539156,5.451539962037297,0.08742723283458616
14.541544,5.442651407035833,0.08716632973551144
14.543924,5.4333435431537875,0.08693062770472733
14.54632,5.416027276286076,0.08678440710883634
14.548708,5.395777743112169,0.08666608482087512
14.551087999999998,5.374177735497902,0.08657966224135014
14.553492,5.355930303070412,0.08643728373493208
14.55588,5.340476367322258,0.08627389013379018
14.55826,5.326744993066797,0.08610512064900099
14.560664,5.313805014744257,0.08593802769376656
14.563052,5.308733669780524,0.08569377783225104
14.565432,5.302451620003292,0.08547297824428371
14.567828,5.305900534704422,0.08516492380980906
14.570212,5.307487118285998,0.08487087445046414
14.572591999999998,5.313729529666464,0.08454826660405787
14.574996,5.320763336979848,0.0842251216045084
14.57738,5.326726209106593,0.08391633263446219
14.579764,5.33897492272631,0.08352869789451257
14.58216,5.351083866719166,0.08314662687673068
14.584544,5.36370466739122,0.08278771062807237
14.586923999999998,5.377396403249913,0.0824129796787932
14.589324,5.392019304668384,0.08203441467980063
14.591708,5.407713141273494,0.08164104430442928
14.594091999999998,5.428202575304356,0.08120817311369717
14.596488,5.4484124700814975,0.08079124649857611
14.598871999999998,5.466620264112223,0.0803906747468593
14.601252,5.482406648515949,0.08003937030544649
14.603652,5.488973925120509,0.0797905003026301
14.606035999999998,5.493539100978653,0.07956242643144629
14.608416,5.4948914712768815,0.07937798912527143
14.61082,5.495964302321389,0.07921204762055777
14.613207999999998,5.496757594112177,0.0790629916855834
14.615588,5.491404814036855,0.07898184944146419
14.617983999999998,5.488565991387145,0.07890106637227602
14.620371999999998,5.481443427990883,0.07887488680129683
14.622752,5.476462734967897,0.07882128366952097
14.625156,5.472413207504689,0.07876217285854144
14.627544,5.465802500787624,0.07875478948956029
14.629924,5.463335765190252,0.07870156249885656
14.632328,5.459798094406243,0.07866183992944982
14.634712,5.459985085861347,0.07860181098089974
14.637095999999998,5.458169976570033,0.07855997255607948
14.639492,5.458217198398275,0.07850832176920017
14.64188,5.460126751346075,0.07844742776094996
14.64426,5.465109340226929,0.07835642572254224
14.646655999999998,5.478379871347172,0.07818093055412176
14.649043999999998,5.489927840974718,0.07800632791129346
14.651424,5.514838889521124,0.07770033417610933
14.653823999999998,5.5416122691870875,0.07738584720834234
14.656207999999998,5.57001566254713,0.07702751321483524
14.658588,5.597767429601115,0.07666232251480179
14.660984,5.626078275162541,0.07626648722114687
14.663372,5.6605351925900775,0.07581810832635862
