Time,Force,Position
16.063764,0.09306416383699295,0.0
16.066148,0.08179346175454645,0.0
16.068552,0.07331625635143489,0.0
16.07094,0.06376811576168481,0.0
16.07332,0.050215773679101024,0.0
16.07572,0.03652366196965703,0.0
16.078108,0.0257648165664082,0.0
16.080488,0.016076906349797904,0.0
16.082888,0.009322262439382785,0.0
16.085272,0.0036385537156061946,0.0
16.087656,0.0008881112980247768,0.0
16.090052,0.0,0.0
16.09244,0.0,0.0
16.09482,0.0,0.0
16.097216,0.0,0.0
16.099608,0.0,0.0
16.101988,0.0,0.0
16.104392,0.0012601983503622565,0.0
16.10678,0.0053138933800594736,0.0
16.10916,0.00936758840975669,0.0
16.111556,0.012350348252815377,0.0
16.113944,0.014262172909235534,0.0
16.116324,0.01510306237901716,0.0
16.118728,0.015943951848798786,0.0
16.121116,0.0166450716917202,0.0
16.123496,0.018417126721280146,0.0
16.125892,0.022191282497256944,0.0
16.12828,0.02768799976593017,0.0
16.130664,0.03025145072840823,0.0
16.13306,0.030812800944469435,0.0
16.135448,0.030812800944469435,0.0
16.137832,0.032445086347169166,0.0
16.140228,0.032445086347169166,0.0
16.142616,0.03244508634716917,0.0
16.144996,0.03244508634716917,0.0
16.147396,0.03244508634716917,0.0
16.14978,0.03244508634716918,0.0
16.152164,0.031184887996806916,0.0
16.15456,0.027131192967109696,0.0
16.156948,0.02307749793741248,0.0
16.159328,0.020094738094353793,0.0
16.161728,0.01818291343793364,0.0
16.164116,0.01734202396815201,0.0
16.1665,0.016501134498370387,0.0
16.168896,0.01580001465544897,0.0
16.171284,0.014027959625889024,0.0
16.173664,0.010253803849912226,0.0
16.17606,0.004757086581238998,0.0
16.178448,0.002193635618760941,0.0
16.180827999999998,0.001632285402699736,0.0
16.183228,0.001632285402699736,0.0
16.185616,0.0,0.0
16.188012,0.0,0.0
16.190407999999998,0.0,0.0
16.192795999999998,0.0,0.0
16.195176,0.0,0.0
16.197571999999997,0.0,0.0
16.19996,0.0007011198429214153,0.0
16.20234,0.004335505992038002,0.0
16.204739999999997,0.009040827327793119,0.0
16.207127999999997,0.01574824940996509,0.0
16.209508,0.023386837051915375,0.0
16.211907999999998,0.02515889208147532,0.0
16.214292,0.02721048636475569,0.0
16.216676,0.029122311021175844,0.0
16.219072,0.030102970117817682,0.0
16.22146,0.033085729960876366,0.0
16.22384,0.03327499312460009,0.0
16.22624,0.035326587407880465,0.0
16.228628,0.04138238318399453,0.0
16.231008,0.04543607821369175,0.0
16.233404,0.0507004780568877,0.0
16.235792,0.05489394271344514,0.0
16.238176,0.058156241810224246,0.0
16.240576,0.05941644016058651,0.0
16.24296,0.06281850888422583,0.0
16.245344,0.06314754167480977,0.0
16.24774,0.06244642183188835,0.0
16.250132,0.05881203568277177,0.0
16.252512,0.054106714347016645,0.0
16.254908,0.04739929226484467,0.0
16.2573,0.039760704622894376,0.0
16.25968,0.03798864959333443,0.0
16.262079999999997,0.03877246209477557,0.0
16.264468,0.04942511284357151,0.0
16.266848,0.06687356590666688,0.0
16.269244,0.08646199348517006,0.0
16.271635999999997,0.11699019449766657,0.0
16.274016,0.15072930521220942,0.0
16.276415999999998,0.1841869808151626,0.0
16.278803999999997,0.22802535134466834,0.011158232361054512
16.281188,0.27637788418833614,0.022105390287341983
16.283583999999998,0.33194552822688406,0.0327208082679314
16.285975999999998,0.39272618271389514,0.043297448864156665
16.288356,0.4656573154483983,0.05314105088633028
16.290756,0.541240279377507,0.06302443211428915
16.293139999999998,0.6296253478601657,0.0724785766825228
16.29552,0.7279287481270426,0.08161866126919184
16.297924,0.8370321522010528,0.09039109534408174
16.300307999999998,0.9523269541115476,0.09898076810460414
16.302688,1.0757227068063266,0.10719708707746091
16.305084,1.2036345176731373,0.11522396489414898
16.307468,1.3352709907790614,0.12309157467573537
16.309863999999997,1.4623494956075673,0.13101597416649494
16.31226,1.5796989318155785,0.13894037365725453
16.314648,1.6901127960824303,0.14692657117649688
16.317028,1.7961050458337369,0.15495671483096124
16.319432,1.8926005443900265,0.1630948477786712
16.32182,1.984814198057631,0.17121345952787057
16.324199999999998,2.073025546090271,0.17937659575708736
16.326596,2.1531378391964955,0.17633697514523217
16.328984,2.2279445740556403,0.173442005684045
16.331364,2.2984694640261,0.17079795491281324
16.333768,2.3644329698541546,0.16823610798772604
16.336156,2.4208997244871915,0.1664105733849208
16.338535999999998,2.4715018423657074,0.1646074768114078
16.34094,2.512794200504309,0.16316812591431215
16.343328,2.5409123670370235,0.16218593987831934
16.345708,2.5574391338296865,0.161591418980339
16.348104,2.5694970642785617,0.16111753045931496
16.350492,2.571963799875933,0.16114965112606586
16.352876,2.568564002860914,0.1614839124440096
16.355272,2.559856751740945,0.16202096740702554
16.357656,2.5543623061808924,0.1623635786285428
16.360035999999997,2.5463539031952247,0.16279368842068212
16.36244,2.538345500209558,0.16323170591008984
16.364828,2.53182734129111,0.16353250313885975
16.367207999999998,2.5275908223727983,0.16368038780705707
16.369604,2.5196296412153747,0.16400869292038917
16.371992,2.51343824337889,0.16415103256613606
16.374371999999997,2.5052447447959882,0.164405770543435
16.376776,2.4954212325190075,0.16482239612967037
16.379164,2.4815935187491927,0.16546659551301898
16.381543999999998,2.4737721072186285,0.16575922824606504
16.38394,2.4634367382624496,0.16614005138553808
16.386328,2.4563141748661863,0.1663203252005398
16.388707999999998,2.4497034681491217,0.16652185050225854
16.391104,2.4477485892309483,0.16651378832646124
16.393492,2.4464453366188326,0.1665086173028338
16.395875999999998,2.4446302273275187,0.16647732113849278
16.398272,2.44737839803648,0.16614571326692978
16.400655999999998,2.452547978372438,0.16564006999962141
16.403036,2.4588810416936524,0.16515603995930903
16.405431999999998,2.4657259616940643,0.16470986040859312
16.407819999999997,2.4760160046798685,0.1641379850333064
16.410216,2.4893790835987284,0.16340084071608132
16.412612,2.504324954383425,0.16264911785027036
16.415,2.518339659608343,0.16194231825178643
16.417384,2.538360667072512,0.16093175865248827
16.41978,2.5579623656561,0.16000992757397692
16.422168,2.583430596852078,0.1588358065657031
16.424547999999998,2.612111633607972,0.15748707790723665
16.426944,2.646938742229976,0.15583959432143207
16.429332,2.6731058215602563,0.15460438831625467
16.431711999999997,2.7029975631296486,0.15321976865482803
16.434108,2.7326097654453205,0.1519169508794483
16.436495999999998,2.7610112629474943,0.15069369848524722
16.438892,2.7880622860093087,0.14957238492103272
16.441288,2.81739494907126,0.14833701843344146
16.443676,2.8452373680659924,0.14722483025038896
16.446056,2.8677251111275326,0.14638995162497578
16.448452,2.8903526238159323,0.14555233798628342
16.45084,2.9147499198252724,0.1445690789476843
16.453219999999998,2.9370053454613356,0.14370306966692306
16.45562,2.958050066283899,0.14291024554592074
16.458008,2.9792345567333234,0.1421233815914641
16.460388,2.9945525145703575,0.1415620458026718
16.462792,3.012012342780668,0.14091017746020817
16.465176,3.0251884302444245,0.1404636299835848
16.46756,3.0372935825215426,0.1400697949737424
16.469956,3.040039857372635,0.14007737341982748
16.472344,3.039713096290671,0.14021304742094065
16.474724,3.03137793222304,0.14066538955850733
16.477128,3.026907200021383,0.1409810907077778
16.479516,3.0187118055806117,0.14142017477872046
16.481896,3.0086540800202846,0.1419157890530101
16.484299999999998,2.9971533322209813,0.1424235782267994
16.486687999999997,2.9871428284888966,0.1428233653859549
16.489068,2.977923720689731,0.14319799591818744
16.491464,2.9720571880773403,0.14340762245267819
16.493855999999997,2.9706141658383634,0.14341181432997432
16.496236,2.9679604387858887,0.14348007712127087
16.498635999999998,2.9676808995321684,0.14351500134768486
16.50102,2.9686120650919468,0.14348752914184495
16.503404,2.972756036211641,0.14332766714558043
16.5058,2.975409763264115,0.14326500026285094
16.508188,2.9829988573692017,0.14303295123973
16.510568,2.9910998081534865,0.14283237610942479
16.512964,3.0033447300574645,0.14248026231444152
16.515356,3.0153101127077226,0.14216006575062803
16.517736,3.035283898343648,0.14155184408336122
16.520132,3.060053281405325,0.14080356123894924
16.52252,3.0905494274525327,0.13986158430538928
16.5249,3.1211853431266,0.1389153597609446
16.527296,3.1566168562264196,0.13782534210015923
16.529684,3.191908599699379,0.1367499772773464
16.532064,3.2326475669041477,0.13554522753577006
16.534464,3.2728274556014756,0.13442154197907796
16.536852,3.30900314280597,0.13344863976563986
16.539232,3.3399639237041314,0.1326760178344928
16.541628,3.370645165348573,0.13195775319984396
16.544016,3.4029091988588505,0.13122741917911404
16.546395999999998,3.429306699756738,0.13068082094345568
16.5488,3.4524913950947096,0.13025074901762143
16.551188,3.4726030544996256,0.12993282200591919
16.553568,3.4959275194644577,0.12950837259038153
16.555972,3.518320818869511,0.1291151205438218
16.558356,3.537129225662312,0.12880143643786848
16.56074,3.5522129702159995,0.1285831088576494
16.563143999999998,3.5686471892100453,0.12829790227798524
16.565528,3.585360947457812,0.12799527277483455
16.567912,3.5954167771602705,0.12785789405289205
16.570308,3.6077542468628656,0.12764193130198695
16.572696,3.6208831124983796,0.1274243664138058
16.575076,3.6320098773874765,0.12726626862397555
16.577472,3.642205476716795,0.12712616292350307
16.57986,3.650538744926556,0.12703017882486387
16.582244,3.6580806172034004,0.12693928573060595
16.58464,3.6654827198533835,0.1268602246476568
16.587028,3.6768890239962007,0.12667308498840932
16.589408,3.6820094866460464,0.12667368582726907
16.591804,3.6875492581764733,0.12663304800476277
16.594192,3.6961620656399554,0.12650315818199132
16.596576,3.707847909036493,0.12628252137853646
16.598972,3.7206046876196686,0.1260281583161042
16.60136,3.727355163963594,0.12593840251537267
16.603756,3.7368991369868545,0.12579294298118357
16.606151999999998,3.7501677722492284,0.12557172869789035
16.608539999999998,3.7650191993774387,0.1253393314322165
16.610924,3.7795910872519283,0.12513703049264638
16.613328,3.788016903260307,0.12510455331210574
16.615712,3.802309251881076,0.12492968277581415
16.618095999999998,3.809524363075956,0.12494406557641569
16.6205,3.815668539084198,0.12499150836605002
16.622884,3.8228836502790777,0.1250077955175461
16.625263999999998,3.833171797407013,0.12494240269443806
16.627664,3.838524577482336,0.12499533234695195
16.630048,3.847881559050493,0.12494934307966557
16.632427999999997,3.862453446924983,0.12476235664884987
16.634824,3.875302773306777,0.12460063280916704
16.637211999999998,3.8980700556220365,0.12413705801406572
16.639592,3.9160417405115453,0.12377447831461975
16.641992,3.934153195027915,0.12340292816957654
16.644375999999998,3.9534753543577814,0.12299475787101347
16.646756,3.972145887381591,0.12258136153241536
16.649155999999998,3.9903045637262036,0.12213671616851163
16.651543999999998,4.002876246712145,0.12179999553941336
16.653924,4.009721166712557,0.12157980147484812
16.656319999999997,4.014563985966553,0.12140652899514477
16.658708,4.018894948541349,0.12121269857040627
16.661088,4.030442918168896,0.12083485314597399
16.663491999999998,4.037986686303609,0.12055364042366826
16.665879999999998,4.048743259998237,0.12017834385577832
16.668264,4.055914941080612,0.1198570417637549
16.670659999999998,4.056009384737099,0.11970912262851652
16.673047999999998,4.051308230967833,0.11966341310665933
16.675432,4.049028486825565,0.11952852794673766
16.677836,4.041301518951488,0.11948838549699073
16.680224,4.025705917718602,0.11963093370702266
16.682603999999998,4.012112417232134,0.11972125283698548
16.685008,3.9900912048794184,0.12003719975083625
16.687396,3.9691409277133407,0.12033007539836243
16.689776,3.9455369234947884,0.12066222831378008
16.692176,3.920582444835877,0.12104467595264735
16.69456,3.8953484269232455,0.1214513328610095
16.696944,3.8759809416230038,0.12172452518073452
16.69934,3.8607574274424565,0.12188832183347913
16.701728,3.850748819568242,0.12191500492280663
16.704107999999998,3.845303491694301,0.1217957495130407
16.706504,3.837716293447084,0.12173566330793908
16.708892,3.824122792960616,0.12181262256136591
16.711271999999997,3.8109486013547285,0.12185193264837356
16.713668,3.7968432441890623,0.12190774440103336
16.716056,3.7884646500089265,0.12185002935176074
16.718436,3.7862321276949014,0.12163910020956753
16.720831999999998,3.7909370731799052,0.12127141141135292
16.723219999999998,3.795222709784329,0.1209410243940558
16.7256,3.7989492678813113,0.12065952362402191
16.727995999999997,3.8045381570978503,0.1203364767072592
16.730384,3.8079851759411123,0.1200782743447679
16.732779999999998,3.815296626650348,0.11973316367699435
16.735176,3.828195070718254,0.11928499330309973
16.737564,3.8423967673982755,0.11885143805831468
16.739943999999998,3.8519426362794054,0.118502447711544
16.742344,3.8634906059069514,0.11810705740613006
16.744728,3.8736881010941393,0.11777803517160339
16.747111999999998,3.879601855534773,0.11757231867614266
16.749508,3.8830942003484092,0.11745540639416222
16.751891999999998,3.882302804415491,0.11745913347135424
16.754275999999997,3.886307005908324,0.11736661126916523
16.75668,3.8931047040804927,0.11722350996655014
16.759068,3.904418460424693,0.11701401169949453
16.761447999999998,3.920388044567784,0.1167276337969383
16.763844,3.933424362404681,0.11650608157576697
16.766232,3.9484627809879944,0.11624662646465858
16.768611999999997,3.9572153580783365,0.11614378368323275
16.771008,3.9690409711017343,0.11597117593196984
16.7734,3.9860814904314648,0.11567421674565014
16.775779999999997,4.0091283120004455,0.11525332639570428
16.778176,4.0311041983827876,0.11485730340972612
16.780564,4.052288688832212,0.11446655865047578
16.782947999999998,4.069608747415662,0.11415425781546286
16.785344,4.090421150812749,0.11374274549398067
16.787732,4.118171022008865,0.11319176350876142
16.790112,4.142056461339007,0.11271227825397923
16.792512,4.1640795695495925,0.11226546162049367
16.7949,4.188244548133455,0.11176180324401558
16.79728,4.211618130784399,0.11125782617651059
16.799675999999998,4.238995914928177,0.11067731510514371
16.802068,4.260507166459565,0.11020786255465193
16.804448,4.283089353177591,0.10971836141370467
16.806848,4.2999447769100865,0.10932950223629899
16.809236,4.312004603216831,0.10902611267729366
16.811616,4.3243439687772955,0.10870015985134587
16.814011999999998,4.3346812335913425,0.10841824857923305
16.816399999999998,4.349162469525085,0.10804758429376062
16.818783999999997,4.363923244712546,0.1076610388762795
16.82118,4.375750753593814,0.10732960815519069
16.823567999999998,4.384644996168885,0.10705309733078884
16.825951999999997,4.393818777997677,0.10675247780964216
16.828348,4.405925826132665,0.1064074632438221
16.830735999999998,4.4203145142677895,0.10600837445353746
16.833132,4.429628065723442,0.10570496613196768
16.835528,4.4360083508729,0.10545130361491205
16.837916,4.445182132701692,0.10516153480794263
16.840296,4.451282878597429,0.1049265949883908
16.8427,4.459245955612723,0.1046697109281344
16.845088,4.469350903001293,0.10436791694585812
16.847468,4.476243044829947,0.10413653160257783
16.849868,4.489793115203911,0.1038134368135588
16.852256,4.503343185577875,0.10349520354239393
16.854636,4.519546983004313,0.10315188850671124
16.857032,4.538684046736946,0.1027651980807113
16.85942,4.55647063602922,0.10242147414376172
16.861804,4.574117455694635,0.10209124875047142
16.8642,4.591764275360049,0.10176643477129037
16.866588,4.606710146144746,0.1015288260094147
16.868972,4.6224474128623605,0.10129204016688613
16.871368,4.636042809206697,0.10109800643861316
16.873756,4.654154263723066,0.10086312396578036
16.876136,4.669052912679519,0.1006941115848077
16.878532,4.680319447195477,0.10061914068789043
16.880924,4.696381579137185,0.1004822360809469
16.883304,4.715097438131368,0.10032677840236547
16.885704,4.733813297125551,0.10017274093444198
16.888092,4.759606393545623,0.09990716443920254
16.890472,4.784188785152198,0.09967508260441443
16.892868,4.807420702318414,0.09948475507549105
16.89526,4.82972145392485,0.09930262109174577
16.89764,4.847366377732394,0.09917298832168851
16.90004,4.861007100047105,0.09910330544066374
16.902428,4.873065030495981,0.09903360356520761
16.904812,4.886333665758355,0.09893742903442986
16.907208,4.900813005834228,0.09881129410467769
16.909596,4.9155718851638195,0.09866721581144525
16.911976,4.930610303747132,0.09850726158556326
16.914372,4.949280836770942,0.09826315154096203
16.91676,4.9671599738618335,0.09801990811636772
16.91914,4.987180981326003,0.09773884092707123
16.921536,5.003617096177918,0.09748869384661343
16.923924,5.019261815096915,0.0972369770949796
16.926308,5.036396778083131,0.09693609536630829
16.928711999999997,5.047525438830097,0.09671911116893614
16.9311,5.058002473271005,0.096495733228952
16.933484,5.066617176592357,0.09629039704847189
16.935879999999997,5.071507217674594,0.09612325334433659
16.938268,5.074814466890997,0.09595493448475112
16.940648,5.080263586480676,0.09575118562539274
16.943044,5.086923410883854,0.09551946558180624
16.945432,5.096656271220086,0.09524386052560789
16.947812,5.109741706743097,0.09490455217645288
16.950208,5.124689473385661,0.09454854310120296
16.952596,5.133351398535257,0.09429151627380306
16.95498,5.143875654804407,0.0940190881210732
16.957376,5.153189206260059,0.09377484549644988
16.959764,5.159289952155796,0.09358469467270226
16.962144,5.160315561372061,0.0934644286206568
16.964548,5.163203501707882,0.09332836417932992
16.966936,5.167162377230342,0.09317632006825742
16.969316,5.170190087193022,0.09303219613399538
16.971712,5.178292933835177,0.09282274914054174
16.9741,5.189468816410386,0.09257442401951052
16.976484,5.208001475665204,0.09221976489841198
16.97888,5.222669703054049,0.09190588271028964
16.981268,5.24055073600281,0.0915443909470754
16.983652,5.257500603391793,0.09119113376523427
16.986048,5.2733795355941355,0.09085217072600911
16.988436,5.28939823742334,0.09050872180544367
16.99082,5.305556708879405,0.09015752416617395
16.993223999999998,5.319713079589053,0.08983241054748342
16.995616,5.33345014141812,0.08953591746144807
16.997996,5.346535576941129,0.0892310337479825
17.000391999999998,5.362833818024052,0.08887597911155894
17.002779999999998,5.379411598360697,0.08850835023415825
17.005164,5.394127047577786,0.08815314132650456
17.007559999999998,5.406980165675318,0.08780897896888042
17.009947999999998,5.42011282302657,0.08744467265801649
17.012328,5.429520818138709,0.08710972661765512
17.014727999999998,5.437206251758151,0.08678275210858041
17.017111999999997,5.445822850937371,0.08644850104670504
17.019492,5.446710586384644,0.08618822211386855
17.021895999999998,5.442523185152446,0.08598905628714715
17.024288,5.432329481680997,0.08585667572898134
17.026668,5.423998109329105,0.08571035217702175
17.029063999999998,5.413524866603935,0.08559442691208713
17.031451999999998,5.404774185371462,0.08547353828975314
17.033835999999997,5.398305144139127,0.08531310978621959
17.036236,5.390253311040954,0.08514844088897501
17.038624,5.382341247569643,0.08497480794060239
17.041003999999997,5.371495917792136,0.08482823269192666
17.043404,5.3599989617085715,0.08467073006958871
17.045792,5.350084797490842,0.08451750226284117
17.048171999999997,5.341381338086612,0.08434086996092831
17.050572,5.32732320274919,0.08423711727982079
17.05296,5.3172692689046,0.08409155495849364
17.055339999999998,5.3109399972991245,0.0839210873712334
17.05774,5.309266553492542,0.083720249061611
17.060128,5.309455440805513,0.08350663166700824
17.062507999999998,5.308154084051266,0.08333286058179117
17.064904,5.307923662483659,0.08314496544976885
17.067292,5.31328023427472,0.08292039673285287
17.069675999999998,5.321709841998838,0.08266059470033382
17.072076,5.330930845655873,0.08240184204880835
17.074464,5.338149748566492,0.08216295931272027
17.076843999999998,5.3435063203575535,0.0819356258354618
17.079244,5.347791956961976,0.08172353869778311
17.081632,5.355522716551793,0.08150698210431037
17.084016,5.362554628007308,0.0813334139147538
17.086412,5.3713091009555205,0.08115832914562235
