Time,Force,Position
18.35728,0.12160458778915414,0.0
18.359684,0.1355924733837104,0.0
18.362072,0.1487889630453485,0.0
18.364456,0.1598435823337096,0.0
18.366852,0.1679649353158755,0.0
18.36924,0.1711777408757911,0.0
18.371624,0.16996703606229235,0.0
18.37402,0.1678251656890153,0.0
18.376408,0.16198545270698664,0.0
18.378788,0.1552145741651797,0.0
18.381184,0.15044579636978958,0.0
18.383572,0.14274375226820432,0.0
18.385956,0.13490193853975885,0.0
18.388352,0.12584941999781465,0.0
18.39074,0.11386363514967528,0.0
18.39312,0.10415949030167315,0.0
18.395524,0.09338441026703251,0.0
18.397912,0.0846114309788087,0.0
18.400292,0.07877171799678008,0.0
18.402692,0.06571499796200216,0.0
18.40508,0.05635612053597579,0.0
18.40746,0.045786538296450685,0.0
18.409856,0.033214855310508745,0.0
18.412244,0.02706878344439798,0.0
18.414628,0.026789244190677554,0.0
18.417024,0.0326557768030679,0.0
18.419412,0.040803949415595515,0.0
18.421796,0.052676784267236404,0.0
18.424192,0.06345186430187705,0.0
18.42658,0.07422694433651769,0.0
18.42896,0.08607295955779688,0.0
18.431364,0.09591687403265921,0.0
18.433752,0.104689853320883,0.0
18.436132,0.11560470298238384,0.0
18.438532,0.12358628633768955,0.0
18.44092,0.13249903525277354,0.0
18.443304,0.14434505047405274,0.0
18.4457,0.15404919532205485,0.0
18.448088,0.16268240498341843,0.0
18.450472,0.17010490983128326,0.0
18.452868,0.17331771539119886,0.0
18.455256,0.1745284202046976,0.0
18.45764,0.18039495281708795,0.0
18.460036,0.17862516949614837,0.0
18.462428,0.17499305505565213,0.0
18.464808,0.1693588398687391,0.0
18.467208,0.16372462468182605,0.0
18.469596,0.15422597762893947,0.0
18.471976,0.1485917624420264,0.0
18.474376,0.14323708650883377,0.0
18.476764,0.1337384394559472,0.0
18.479148,0.1293149290825329,0.0
18.481544,0.12903538982881244,0.0
18.483932,0.12368071389561977,0.0
18.486316,0.12233023945526082,0.0
18.488712,0.11883789464162481,0.0
18.4911,0.11362298833529234,0.0
18.493484,0.10975855646931885,0.0
18.49588,0.1060338942302056,0.0
18.498268,0.10459087199122959,0.0
18.500644,0.10165760568503442,0.0
18.50304,0.10086620975211628,0.0
18.505424,0.09821248269964154,0.0
18.507804,0.10105320120721964,0.0
18.510208,0.09867901340846531,0.0
18.512596,0.09723599116948929,0.0
18.514976,0.09779506967693014,0.0
18.517384,0.09849391781123118,0.0
18.519768,0.09504879482583832,0.0
18.522148,0.09104459333300464,0.0
18.524544,0.09211552851964316,0.0
18.526932,0.08718016146703113,0.0
18.529312,0.07868672143252778,0.0
18.531708,0.07312654770421956,0.0
18.534096,0.0677718717710269,0.0
18.536476,0.06576977102461007,0.0
18.53888,0.06320859177075237,0.0
18.541268,0.061299038822952574,0.0
18.543648,0.06046042106179131,0.0
18.546044,0.05855086811399152,0.0
18.548432,0.059714351099247116,0.0
18.550812,0.06222830852486166,0.0
18.553216,0.06474226595047619,0.0
18.555604,0.06404341781617515,0.0
18.557984,0.07070134636148359,0.0
18.560388,0.07549694378723541,0.0
18.562776,0.07628833972015352,0.0
18.565156,0.0792216060263487,0.0
18.56756,0.08243441158626427,0.0
18.569948,0.0860665260267605,0.0
18.572328,0.08769653972083988,0.0
18.574724,0.09319098528089276,0.0
18.577112,0.09730813677022493,0.0
18.579492,0.10142528825955713,0.0
18.581884,0.10014885527780307,0.0
18.584272,0.09673055192277191,0.0
18.586656,0.09266062226168287,0.0
18.589052,0.08873046222745404,0.0
18.591436,0.084660532566365,0.0
18.593816,0.08059060290527595,0.0
18.59622,0.07558950768440857,0.0
18.598608,0.06923793802318226,0.0
18.600988,0.06288636836195594,0.0
18.603392,0.05760573388736815,0.0
18.605776,0.04911229385286477,0.0
18.608156,0.041550019378139715,0.0
18.61056,0.03598984564983151,0.0
18.612948,0.029218967108024567,0.0
18.615328,0.02431041968577426,0.0
18.617728,0.019262102636663746,0.0
18.620112,0.014213785587553228,0.0
18.622496,0.008234302978664391,0.0
18.6249,0.00572034555304985,0.0
18.627288,0.001603194063717654,0.0
18.629668,0.004277323314073839,0.0
18.632064,0.008813783683986665,0.0
18.634452,0.01735444554673319,0.0
18.636836,0.026966042596118248,0.0
18.639232,0.03722926595156121,0.0
18.64162,0.044419453373948786,0.0
18.644,0.051330101542615934,0.0
18.646404,0.0595440023233989,0.0
18.648792,0.06799022052965913,0.0
18.651172000000003,0.07373548985520144,0.0
18.653572,0.08264634291241622,0.0
18.655956,0.09137020451452763,0.0
18.658340000000003,0.10577360727392601,0.0
18.660732,0.11780092637670082,0.0
18.66312,0.1374626655549363,0.0
18.6655,0.16061485368893855,0.0
18.6679,0.18977144820432212,0.0
18.670288,0.22344220503386786,0.0
18.672668,0.26267765716633285,0.0
18.675064,0.314688394221986,0.008362528948004778
18.677452,0.36825962508772486,0.017111790514370492
18.679832,0.4271364142005439,0.0258522301677293
18.68224,0.4855919985749131,0.03489413020833412
18.684628,0.5456284789572493,0.04429932968261737
18.687008,0.6130198401613257,0.05340318551460393
18.689408,0.6938649322250099,0.062157440499203784
18.691796,0.7816455962298539,0.07087501427413888
18.694176,0.8750585795637414,0.07950320663006098
18.69658,0.9733124862937549,0.08816081735958206
18.698968,1.081202913845646,0.09674215208310384
18.701348,1.1911407681143276,0.10532742920532895
18.703744,1.3051753716744603,0.11391544339271342
18.706132,1.416089717473294,0.1226216876365697
18.708516,1.5357113143920966,0.13114876446733692
18.710912,1.6492340612730316,0.13974329185888776
18.7133,1.7620126340492914,0.1483178821046319
18.715684,1.8699502834294255,0.15691459654354892
18.71808,1.9761672671747328,0.1653875263787882
18.720468,2.071351929687429,0.17404806993452285
18.722848,2.1527107742881806,0.1744553678479367
18.725244,2.2289038302687114,0.174520732675805
18.727632,2.2948559609495507,0.17477894182981718
18.730012,2.35987882192848,0.17461849310797564
18.732408,2.4276970754446143,0.17385270271932632
18.734796,2.4883002177658686,0.17336731315510825
18.73718,2.5357291684812346,0.17335979971922935
18.739576,2.5806460576288557,0.17315659981310919
18.741964,2.622491806701291,0.17286379251054285
18.74436,2.662337350885178,0.17238916790162823
18.746756,2.697109654247463,0.17191822572865836
18.74914,2.726389407907564,0.17148171719588506
18.75152,2.7521314907836545,0.17108311623775846
18.753924,2.7763852254503956,0.17051115402912015
18.756312,2.7963098934002084,0.17002910625235496
18.758692,2.8167010920588447,0.16939268203974173
18.761096,2.8334148503066117,0.16881011253551337
18.763484,2.8506876870618187,0.16815623685737566
18.765864,2.860883286391137,0.16783888063263833
18.76826,2.877597044638904,0.1672472583991271
18.770648,2.8996182569916202,0.16646266022602701
18.773028,2.9264350667700882,0.1654848519983352
18.775424,2.9573958476682503,0.16427394360280248
18.777812,2.9847717359541592,0.16321171859086162
18.780192,3.0056294653216193,0.16244111518898122
18.782588,3.0282097561817762,0.1616313600613798
18.784976,3.0571684363335216,0.16058779229609257
18.787356000000003,3.080632670925213,0.15985812698027024
18.78976,3.0982303729045144,0.1593870958900944
18.792148,3.1138259741374,0.15901975351199718
18.794528,3.129561344997145,0.1586464730630297
18.796928,3.1443655502971115,0.15829957822200633
18.799316,3.15851812929102,0.15794645763349954
18.8017,3.1722513994043484,0.1576517997871526
18.804096,3.1869158350774556,0.15733808356182205
18.806484,3.2002297963102038,0.1571149630932171
18.808864,3.2175479590357847,0.1567373789199545
18.811264,3.232352164335752,0.15642129765588397
18.813652,3.2565152470617447,0.15570499967519935
18.816032,3.2801664731085407,0.1549909639636176
18.818432,3.300232806543083,0.15438692722455097
18.82082,3.31736587367143,0.15390499466865037
18.8232,3.3342194015460564,0.1534615351545209
18.825604,3.3520040949804617,0.15298658974540733
18.827988,3.372861824347922,0.15239539115061723
18.830372,3.388272329983573,0.15195709309794653
18.832768,3.4021000437533875,0.1515570167799088
18.835156,3.4160675271500622,0.15113203881902895
18.837536,3.4309661761065153,0.1506692268965607
18.839936,3.4457250554361085,0.1502287878543183
18.84232,3.4575506684595063,0.14989321779344555
18.844704,3.468724655176846,0.14954640591838966
18.8471,3.482180281894323,0.14909607848891493
18.849488,3.492982181559326,0.1487115161734164
18.851872,3.500711045291273,0.14845107682784958
18.854268,3.5088592179038005,0.14814425371725204
18.856652,3.5137945849564125,0.1479736826777722
18.859036,3.5233857798079162,0.14767027834042767
18.861432,3.5277620683530873,0.14756965228760535
18.86382,3.5287857817114827,0.1476101732204308
18.8662,3.532602991749213,0.147572474458071
18.8686,3.535349266600305,0.14757635045841927
18.870988,3.5402374118246733,0.14749968400062838
18.873384,3.5469878881685992,0.14737371219163903
18.87578,3.5508050982063297,0.14733894142520212
18.878168,3.56062861048331,0.1471093828551865
18.880548,3.5683102523870147,0.14696169778837082
18.882944,3.580415404664133,0.1466441537011042
18.885332,3.593451722501029,0.1462990463847444
18.887712,3.6042064003377883,0.14604647597895998
18.890108,3.618685740413661,0.14569826801392646
18.892496,3.637960677915285,0.14521535840524555
18.894876,3.6553732842973528,0.1447876803206283
18.897272,3.676790092172254,0.14423375675960573
18.89966,3.699277835233794,0.14364267762345234
18.902044,3.7226967438551126,0.14303880010024925
18.90444,3.7482575228497073,0.14236481324527167
18.906824,3.767951769231913,0.14186574216243936
18.909224,3.784992288561643,0.14141456826547483
18.911616,3.802172577518233,0.140941848270593
18.914004,3.8164196001686284,0.14055664221036004
18.916384,3.8308063924458837,0.14015616772602923
18.91878,3.840397587297387,0.13989115176902278
18.921168,3.846124350282917,0.13973482549397054
18.923548,3.8537134443880037,0.13953118518074137
18.925948,3.8551564666269797,0.13952738637657736
18.928332,3.855016697000119,0.13954196616114065
18.930728,3.850732956253565,0.1396938086036115
18.933124,3.848730855507148,0.13975461202977554
18.935512,3.848358768454811,0.1397203453239641
18.937892,3.844262019163361,0.1397788155168195
18.940288,3.839234104312132,0.13985751149894698
18.942676,3.8348578157669606,0.13994141087713405
18.945056,3.829690131288871,0.14003144702149603
18.947456000000003,3.821728950131447,0.14018820758785028
18.94984,3.808972171548271,0.14047025776258215
18.952224,3.7931423570320395,0.14084509179176874
18.95462,3.7803855784488634,0.14112714196650059
18.957008,3.7762888291574126,0.14118047348981383
18.959388,3.7775467557991544,0.14105748879849775
18.961784,3.7809465528141737,0.14086458642598437
18.964172,3.7862086809487487,0.1406307680624443
18.966564,3.794404075389519,0.1403192280544337
18.968972,3.807534836882902,0.13987612765343835
18.971356,3.8218763031897836,0.13939175187127845
18.97374,3.841292906176138,0.13875942181506531
18.976136,3.8630836969612456,0.13810095613382325
18.978524,3.884594948492634,0.13746239346618372
18.980908,3.9019622289043276,0.13695135028159178
18.983308,3.918118804502523,0.13648843883086711
18.985696,3.933344214540939,0.1360411468951516
18.988076,3.944705192713382,0.13569459557091706
18.990472,3.9566252493932663,0.13529728685458212
18.99286,3.967055062005931,0.13497726156723114
18.995240000000003,3.981349306484569,0.1345595890665975
18.997636,3.9989489043217405,0.13409167285815107
19.000024,4.014825940666215,0.1336444539588517
19.002404,4.02949227219719,0.13324881539429562
19.0048,4.03535880480958,0.1330931271824038
19.007192,4.0358706614887785,0.133112879593538
19.009572,4.034380417421559,0.13318801567968905
19.011968,4.027442949622531,0.1333764273557681
19.014356,4.020365712196641,0.13357644147703246
19.016736,4.010355208464558,0.13384863166052582
19.019132,3.99606096398592,0.1342568079096885
19.02152,3.9826978850670596,0.13463534428367746
19.0239,3.9689627190958623,0.13497952446490896
19.0263,3.962444560177414,0.1351151166601323
19.028684,3.9619327034982157,0.13509560474443913
19.031068,3.96607667461791,0.13498167510839434
19.033464,3.973945307976717,0.13479211340942632
19.035852,3.9844676683879996,0.13455714221785958
19.038248,3.9914976839856453,0.13444313847062103
19.040644,4.002811440329844,0.13420556733358785
19.043032,4.009841455927491,0.13409337051852405
19.045412,4.017570319659438,0.1339186974927634
19.047812,4.032888277496472,0.13358513711122635
19.0502,4.047275069773726,0.1332676713467897
19.05258,4.063384423543679,0.13291757404832133
19.05498,4.080424942873409,0.13254536309464224
19.057368,4.101329894069113,0.13208773543384042
19.059748,4.13140673123574,0.13145742821333406
19.062144,4.1622749643352845,0.13082814839542756
19.064532,4.193934593367747,0.13019435117908715
19.066916,4.228667258333265,0.12947268470407464
19.069312,4.256322685872895,0.12893046192730803
19.0717,4.284489970091722,0.12841094534916547
19.07408,4.3026467505784645,0.12814715883989328
19.076476,4.319453056624848,0.12794855450655845
19.078864,4.333326096365036,0.127820077230138
19.081248,4.345197035358809,0.12773992759348565
19.083644,4.361211945472274,0.12756015207399923
19.086032,4.382022453011491,0.1272826425951418
19.088416,4.395615953497959,0.1271844787595598
19.09082,4.413632964357841,0.12695825048672854
19.093208,4.432581140777503,0.12672103159621628
19.095592,4.443800453465215,0.12664208609486624
19.097988,4.459955133205542,0.12645994347900494
19.100376,4.479462388132643,0.12618342263925866
19.10276,4.5020426789928,0.1258392766540142
19.105156,4.525414365785875,0.12550191044453082
19.107544,4.5442699944069185,0.12524015230681984
19.109928,4.560611665602349,0.12500260463465795
19.112332,4.577232876051498,0.12474498567642577
19.11472,4.594925021687286,0.12446523650263278
19.1171,4.6219760447491005,0.12397799841578568
19.119496,4.6482356718779965,0.12349560947827405
19.121884,4.679710205313224,0.12288898386226914
19.124268,4.703735414270228,0.12239698270792247
19.126664,4.727108996921172,0.12189966591266921
19.129052,4.749691183639198,0.12140391274744755
19.131436,4.766546607371694,0.12101639997576474
19.133832,4.77916551218588,0.12067111084466854
19.13622,4.796207927373479,0.12020942451779909
19.1386,4.812179407374439,0.11977904469788976
19.140996,4.824798312188625,0.11943667598044748
19.143384,4.846217015921395,0.1189370794392114
19.145764,4.859906855922219,0.11857325868796688
19.14816,4.871594595176626,0.11825170122267843
19.150548,4.880488837751699,0.11797523789604944
19.152932,4.883004691035182,0.11778546947337769
19.155328,4.880724946892913,0.1176744123711218
19.157716,4.88137846905684,0.11751168158792359
19.1601,4.883242696034267,0.11731576784416349
19.162496,4.88017155595908,0.11720807234303023
19.164884,4.871885509577561,0.11720815650191284
19.167268,4.86560156394246,0.11717120289050427
19.169664,4.8581069134938595,0.1171674040969508
19.172048,4.860762536404203,0.11697284584840809
19.174432,4.863557928941407,0.11676839566872318
19.176828,4.8692865877848055,0.11651610967228572
19.179216,4.872873376254929,0.1163077472898752
19.181596,4.882047158083721,0.11602440307489441
19.183996,4.8913607095393745,0.11573379071280593
19.186384,4.895738893942415,0.11552465809407522
19.188768,4.902678257599312,0.11523932485416494
19.191164,4.902168296777984,0.11505670155388047
19.193556,4.906873242262989,0.11477024991233158
19.195936,4.910367482934493,0.11451599817479705
19.198336,4.912651018792499,0.1142941241581697
19.200724,4.91772805132984,0.11403304845973287
19.203104,4.927460911666074,0.11370598213142222
19.2055,4.935051901629031,0.11342715945893797
19.207888,4.93943008603207,0.11321809963000853
19.210272,4.946881306368166,0.1129488313996183
19.212676,4.956474397077539,0.11263583818144551
19.215064,4.965415861480855,0.11231853310676862
19.217448,4.975288491443949,0.11198976150162732
19.219844,4.976593639913934,0.11184090383373423
19.222232,4.979621349876615,0.11167893142528793
19.224612,4.982788829466156,0.11150886348374564
19.227012,4.992893776854727,0.11122795970098746
19.2294,4.998994522750464,0.11101599975932898
19.23178,5.003744794205843,0.110845655526221
19.234176,5.015152994206528,0.11058504025618596
19.236564,5.0242795542070775,0.11037728373060672
19.238948,5.036991006819879,0.1101347515156674
19.241344,5.050214316111879,0.10991316102720912
19.243732,5.067721366150434,0.10961105880150138
19.246116,5.0873702865622645,0.10926765769903868
19.248512,5.106879437347234,0.10893433373389635
19.2509,5.127459523318843,0.10858407174655758
19.253284,5.152043810783286,0.10817722512666517
19.25568,5.1754173934342305,0.10779547042584123
19.258068,5.199722141644953,0.10740516684768434
19.260452,5.218951753176203,0.10709670440257112
19.26286,5.233897623960899,0.10686854875154046
19.265248,5.2471209332529,0.10665272752436403
19.267632,5.264767752918314,0.10634390288671425
19.270028,5.277479205531116,0.10610788613901366
19.272416,5.28925949258414,0.10588583209381912
19.2748,5.297175347771191,0.1057184713274701
19.277196,5.302297706278906,0.10558147879691919
19.279584,5.309561935159898,0.10540566420722956
19.281968,5.318456177734971,0.10517745533550273
19.284364,5.332285787362655,0.10488303846682798
19.286752,5.345184231430561,0.1046014155942798
19.289132,5.356220344378909,0.10434080616090964
19.291532,5.366325291767479,0.10409442877338657
19.29392,5.377780713596409,0.10381496220692799
19.2963,5.389375905052199,0.10352685705858958
19.2987,5.401390405388569,0.10321636418505249
19.301088,5.40767814273941,0.10297070976152914
19.303472,5.416247520090387,0.10267938546001584
19.305868,5.424956667068224,0.1023812062436506
19.308256,5.439811885912173,0.10199500199881865
19.31064,5.462675507741787,0.1015055740045955
19.31304,5.488332626250739,0.10099183239816611
19.315428,5.513989744759689,0.10048271858307849
19.317808,5.541788733641917,0.09993348017047347
19.320204,5.565723290658172,0.09942729742609584
19.322592,5.588866451741509,0.09892146404797154
19.324972,5.619226619877596,0.09831486057562448
19.327376,5.642649320214652,0.09779207363768966
19.329764,5.6587152438720985,0.09738518076901789
19.332144,5.669054404544015,0.09704082869950835
19.334544,5.676460298909738,0.09673011699864295
19.336932,5.686287602902457,0.09637030710769354
19.339316,5.690760230961984,0.09609492267282208
19.341712,5.691740514207874,0.09588823108828227
19.3441,5.690858466334207,0.09569756814157057
19.346484,5.686763612900626,0.09555765565656979
19.348884,5.681458054653546,0.09544249437616213
19.351272,5.678434136406603,0.09528513409591662
19.353656,5.674339282973021,0.09514465091522875
19.356052,5.664238127300189,0.09507815108929013
19.358444,5.6453371727087704,0.09510879251686218
19.360824,5.625924361438155,0.09511948700280148
19.363224,5.607442715727318,0.09512045269238507
19.365612,5.592034105949538,0.09508050905711549
19.367992,5.582212489530427,0.09499466241490262
19.370388,5.574253204230872,0.09489329595135414
19.372776,5.561730638931043,0.09487075640437911
19.37516,5.560149742923075,0.09472628955596898
19.377556,5.562573048407943,0.0945355382934061
19.379944,5.565927519452588,0.09433653961748362
19.382324,5.570213156057012,0.09412897182733113
19.384724,5.575150418967492,0.09393327868552817
19.387112,5.5842316529976666,0.09368263457655927
19.389496,5.59573429665484,0.0933847269347157
19.391892,5.609890667364487,0.09307279139573603
19.39428,5.623767498820414,0.09277609331780141
19.39666,5.643930171769313,0.09239477356451979
19.39906,5.66353376621077,0.0920514242351907
19.401448,5.684068526212005,0.09170248648297323
19.403828,5.709398883638992,0.09130918150179511
19.406228,5.742458104797927,0.09084322111687491
19.408616,5.77495824744942,0.0904146814641207
19.411,5.8043853541678585,0.09002563245995224
19.413396,5.8335329216325755,0.08965866274831119
19.415784,5.858816057231319,0.08932910307273974
19.418168,5.885681984695899,0.08900632246411334
19.420564,5.906821149174949,0.0887260846387891
19.422956,5.924607738467223,0.08850467386589503
19.425336,5.943465262946136,0.08827146512066207
19.427736,5.965116284104384,0.08802028722485923
19.430124,5.9907715067554665,0.08773010616079353
19.432508,6.010420427167297,0.08750161570189789
19.434904,6.033002613885323,0.08725060693920296
19.437296,6.056515966163127,0.08699747944565583
19.439676,6.083521663254568,0.08669357494213129
19.442076,6.113600396279065,0.08635758373040518
19.444464,6.14339959004984,0.08604396058268841
