Time,Force,Position
17.910788,0.13661298272545042,0.0
17.913176000000004,0.1254389960081106,0.0
17.915556,0.11073527570888692,0.0
17.917952000000003,0.1011440808573833,0.0
17.92034,0.09127334675215927,0.0
17.92272,0.08294801574452365,0.0
17.925116,0.07662478548330492,0.0
17.927504000000003,0.07137249040872469,0.0
17.929883999999998,0.06643712335611267,0.0
17.932284,0.06406293555735833,0.0
17.934672000000003,0.057088078990081656,0.0
17.937068,0.04797135204952793,0.0
17.939463999999997,0.039785790668752534,0.0
17.941852,0.03284832286972366,0.0
17.944232000000003,0.026050624697554994,0.0
17.946631999999997,0.021674336152383813,0.0
17.94902,0.022093645032964446,0.0
17.951400000000003,0.023583889100183608,0.0
17.953796,0.025633211674843608,0.0
17.956184000000004,0.027682534249503614,0.0
17.958568000000003,0.030663022383941935,0.0
17.960964,0.03536607201107669,0.0
17.963352000000004,0.04359885522009524,0.0
17.965732,0.050723314474227475,0.0
17.968128000000004,0.05677683854172118,0.0
17.970516,0.06701172249715658,0.0
17.9729,0.07724660645259197,0.0
17.975292,0.08720195115430696,0.0
17.977684,0.09283616634122004,0.0
17.980064000000002,0.09497803671449709,0.0
17.982464000000004,0.09678520880368445,0.0
17.984852,0.09678520880368445,0.0
17.987236,0.09752144570623329,0.0
17.989639999999998,0.09766121533309352,0.0
17.992028,0.0975214457062333,0.0
17.994408000000004,0.09571427361704596,0.0
17.996807999999998,0.09190500078144173,0.0
17.999191999999997,0.08841265596780573,0.0
18.001572,0.08743426857978426,0.0
18.003968000000004,0.08538494600512422,0.0
18.006356,0.07901449391566231,0.0
18.008736000000003,0.07278381145306062,0.0
18.01114,0.06455102824404207,0.0
18.013527999999997,0.056178475408163314,0.0
18.015908,0.04887685775892308,0.0
18.018304000000004,0.03864197380348768,0.0
18.020692,0.02840708984805227,0.0
18.023076,0.019607290929466753,0.0
18.025472000000004,0.017884729436770323,0.0
18.02786,0.017093333503852212,0.0
18.030244,0.020306139063767804,0.0
18.032648,0.024115411899372025,0.0
18.035036,0.025186347086010554,0.0
18.03742,0.025465886339730976,0.0
18.039816,0.026816360780089928,0.0
18.0422,0.030625633615694144,0.0
18.044584000000004,0.033363971264659835,0.0
18.04698,0.03350374089152004,0.0
18.049368,0.03118471212313499,0.0
18.051748,0.028865683354749934,0.0
18.054148,0.03118471212313499,0.0
18.056532,0.03643700719771522,0.0
18.058916,0.037685100779461744,0.0
18.061312,0.04172669104054323,0.0
18.0637,0.04576828130162472,0.0
18.066080000000003,0.04766800118942915,0.0
18.06848,0.05035911701015168,0.0
18.070868,0.04920357122702222,0.0
18.073248000000003,0.04497498951083737,0.0
18.075644,0.04195711260815127,0.0
18.078032000000004,0.0369371349590483,0.0
18.080428,0.033956646824609985,0.0
18.082824,0.03404919462322704,0.0
18.085212,0.03628361279512116,0.0
18.087592,0.03786640466095738,0.0
18.089988,0.03451382947418158,0.0
18.092376,0.0317754918252159,0.0
18.09476,0.031179024549527264,0.0
18.097156,0.031179024549527267,0.0
18.099544,0.031179024549527267,0.0
18.101924,0.028859995781142206,0.0
18.10432,0.02360770070656197,0.0
18.106708,0.022359607124815443,0.0
18.109092,0.018318016863733952,0.0
18.111496,0.014276426602652466,0.0
18.113884,0.012376706714848038,0.0
18.116264,0.0096855908941255,0.0
18.11866,0.0096855908941255,0.0
18.121048,0.0096855908941255,0.0
18.123432,0.0096855908941255,0.0
18.125828,0.0096855908941255,0.0
18.12822,0.008856806192959603,0.0
18.1306,0.006957086305155175,0.0
18.132996,0.0038466616038520065,0.0
18.135384,0.00045669764882841737,0.0
18.137768,0.0,0.0
18.140164,0.0,0.0
18.142552,0.0,0.0
18.144936,0.0,0.0
18.147332,0.0,0.0
18.14972,0.0,0.0
18.1521,0.0,0.0
18.154504,0.0,0.0
18.156892000000003,0.0,0.0
18.159272,0.0,0.0
18.161668,0.0,0.0
18.164056,0.0,0.0
18.166436,0.0,0.0
18.168836,0.00380927283560422,0.0
18.17122,0.007758315298068649,0.0
18.173604,0.009565487387256016,0.0
18.176,0.012303825036221707,0.0
18.178388,0.012303825036221707,0.0
18.180768000000004,0.012303825036221707,0.0
18.183164,0.012303825036221707,0.0
18.185552,0.012303825036221707,0.0
18.187936000000004,0.012303825036221707,0.0
18.190332,0.012303825036221707,0.0
18.19272,0.012303825036221707,0.0
18.1951,0.012303825036221707,0.0
18.1975,0.014390536379129496,0.0
18.199888,0.015126773281678333,0.0
18.202284,0.016142549437947594,0.0
18.204684000000004,0.01715832559421685,0.0
18.207072,0.01715832559421685,0.0
18.209452,0.01715832559421685,0.0
18.211852000000004,0.01715832559421685,0.0
18.21424,0.01715832559421685,0.0
18.21662,0.013349052758612633,0.0
18.219020000000004,0.009400010296148203,0.0
18.221408,0.007592838206960833,0.0
18.223792,0.0048545005579951435,0.0
18.226188000000004,0.0048545005579951435,0.0
18.228576,0.0048545005579951435,0.0
18.23096,0.0048545005579951435,0.0
18.233368,0.0048545005579951435,0.0
18.235756,0.004854500557995144,0.0
18.238136,0.004854500557995144,0.0
18.240536,0.004854500557995144,0.0
18.242924,0.004854500557995144,0.0
18.245304,0.002767789215087355,0.0
18.247704,0.0020315523125385175,0.0
18.250092,0.0010157761562692587,0.0
18.252476,0.0,0.0
18.254868,0.0,0.0
18.257256,0.0,0.0
18.25964,0.0,0.0
18.262036,0.0,0.0
18.26442,0.0,0.0
18.266804000000004,0.0,0.0
18.2692,0.00026591447798656685,0.0
18.271588,0.008398566456911085,0.0
18.273968,0.023419568548752073,0.0
18.276364,0.048541726313425154,0.0
18.278752,0.07976083825809659,0.0
18.281136,0.11721667400962663,0.0
18.283532,0.1664036791280681,0.009484933379194737
18.28592,0.2231778824937271,0.018706791770152782
18.288300000000003,0.2848855570541289,0.027979288503158527
18.290696,0.3543201994886084,0.037016617429160605
18.293084000000004,0.4317141272226429,0.045978556982364166
18.295464,0.5179985058160107,0.05480899298627256
18.297864,0.6115905434028757,0.06359579058184282
18.300252000000004,0.7106279088636811,0.07246470516909721
18.302632,0.8155299110790079,0.08132256721397049
18.305032,0.9252256148622169,0.0902521486140348
18.307420000000004,1.043579452079282,0.09901476429175973
18.3098,1.16686676049109,0.10782110251560825
18.3122,1.3012336119637515,0.11631198653623524
18.314588000000004,1.4435144227655938,0.1246076253762568
18.316968,1.590557233940679,0.13275746799677282
18.319364000000004,1.7257291061219926,0.14109655165042342
18.321752,1.8547114763246906,0.1493358370905032
18.324136,1.968145467122747,0.1577900147372259
18.326532000000004,2.0757620429945254,0.16620255550296273
18.32892,2.179143995805862,0.17451508407453759
18.3313,2.268885226302487,0.17352695547616784
18.333696,2.352342511164011,0.1728035227652985
18.336084000000003,2.433380282256406,0.171950651824363
18.338464,2.505620150288085,0.17139289311635855
18.340864,2.566455610034816,0.17103252262516905
18.343252000000003,2.616957596683238,0.17082427306389095
18.345632,2.663364729898078,0.1704730280942645
18.348028000000003,2.7049781615450357,0.17004075794385443
18.350420000000003,2.7418904394227286,0.16964205990955442
18.3528,2.776522973158152,0.16909439067275567
18.355196000000003,2.8022178342060005,0.16875367699534635
18.357584,2.825400633686103,0.16821383887604394
18.359968,2.8340587671199593,0.16810223086933962
18.362364000000003,2.8322889837990197,0.16826378924373922
18.364752,2.829215947865964,0.1684146757895863
18.367148000000004,2.8335922364111354,0.16826630229734896
18.369544,2.838293390180401,0.1682603165443812
18.371932,2.8520266602937285,0.16791549784184584
18.374316000000004,2.8656201607801965,0.16759367033074463
18.376712,2.8765599342141903,0.16736936274502623
18.3791,2.887966238357007,0.16697461079381376
18.381484000000004,2.895136023581513,0.166705612956284
18.38388,2.9003037080596026,0.16653668972194294
18.386268,2.9058434795900294,0.1664050240052978
18.388652000000004,2.9204153674645195,0.16593381022911544
18.391052,2.9350798031376257,0.16553357958614803
18.39344,2.9446691021312605,0.1653924886222702
18.395824,2.954305622953138,0.16515488798053446
18.39822,2.9602647033641456,0.16496579336659875
18.400608,2.9624991215360397,0.164930348245081
18.402988000000004,2.965664705267712,0.16485635074611785
18.405384,2.9657100312380864,0.1650358843526404
18.407772,2.9689209409401327,0.16514215634602655
18.410156000000004,2.9763683695604897,0.1651134491641759
18.412552,2.981441610382093,0.16514559890727476
18.41494,2.9853513682184403,0.16515799188909608
18.417324,2.99079859195025,0.16496505193990701
18.41972,2.991450218256308,0.1649674458064939
18.422108,2.9923341619878427,0.16502794398106735
18.424492,2.9934504231448553,0.16514681628356598
18.426888,3.001084843220316,0.165026411641486
18.42928,3.0150051047887483,0.16461191554684776
18.43166,3.027901652998784,0.16415525686298443
18.43406,3.0417765885968415,0.16356665677998655
18.436448,3.048993595649591,0.1632442593269048
18.438832,3.0595631778891157,0.16275079567756956
18.441228,3.0707843864346995,0.16225037788936936
18.443616,3.0828895387118167,0.16181795689621004
18.445996,3.0944356124814947,0.16144371975315486
18.448396,3.1085428655050302,0.16090871164373888
18.450784,3.121207096289589,0.16038627840176337
18.453168,3.1364325063280063,0.15970322304310697
18.455564,3.1558018874861165,0.15884311984779642
18.457956,3.1754508078979478,0.15796543799058652
18.460336,3.189605282749726,0.1573515059319911
18.462732,3.200407182414728,0.1569150255907057
18.46512,3.2075769676392336,0.15668959760070356
18.467504,3.2180993280505152,0.1562967916407959
18.469904000000003,3.2296000758498185,0.15578372455588416
18.472292,3.242451298089481,0.15518533644897348
18.474676,3.250227383649672,0.15481239344288536
18.477072000000003,3.253579958836447,0.15465246531259522
18.47946,3.259586261075698,0.15442142264291434
18.481844,3.2685258296211432,0.15409146192360984
18.484240000000003,3.279886807793587,0.15363742283528112
18.486628,3.29110801633917,0.15320957429782803
18.489012,3.3032603904445312,0.15274773140384318
18.491408000000003,3.3136902030571957,0.15232912654820102
18.493796,3.3342702890288054,0.15154113584933532
18.49618,3.350566634253861,0.1509271341601768
18.498576000000003,3.369656476158251,0.15023400932229697
18.500964,3.3839507206368897,0.1496938754399646
18.503344,3.3943805332495542,0.1492912750980462
18.505744000000004,3.4009459139962455,0.1490149002005014
18.508132,3.414588532168826,0.14847808253615283
18.510512,3.4290225462743247,0.14792426926565996
18.512908,3.4455984307530994,0.1472816733019011
18.515296000000003,3.4560282433657648,0.14686850597807277
18.51768,3.4658989774709883,0.14652560744898666
18.520076,3.4716257404565183,0.1463396639558343
18.522464000000003,3.4781438993749667,0.14614250125543327
18.524848,3.4886662597862492,0.14580343437795623
18.527244,3.4969069801973935,0.14557197200732008
18.529632000000003,3.50379722616818,0.1454222349688181
18.532016,3.5081262928851076,0.1454048233398492
18.534412,3.509522093295841,0.14548267468482276
18.536796,3.517063965572685,0.14534445354807463
18.53918,3.5286100393423623,0.1450788050563437
18.54158,3.5298660701262343,0.14517025704094053
18.543968000000003,3.5385714253883336,0.14506632156398933
18.546348,3.5459263062100734,0.1450330145602428
18.548748,3.559147719644204,0.14482554985280602
18.551136000000003,3.572089593824614,0.1446465462045935
18.553516,3.589687295803916,0.14434827908548137
18.555916,3.6080763937161358,0.14405509170007855
18.558308,3.626745030882076,0.14373122396973737
18.560688000000003,3.645925524727214,0.1434325041322887
18.563084,3.670972551184743,0.14295844362073853
18.565472000000003,3.696019577642271,0.1424875824406431
18.567852,3.727352445592771,0.1418019783801167
18.570248000000003,3.7565434431699924,0.14118711818923826
18.572640000000003,3.7842441966799956,0.14066680071433324
18.57502,3.8127363461229167,0.14013688554148335
18.577416000000003,3.8380156900059226,0.1397186386944432
18.579804,3.8671594657549018,0.13919564943214668
18.582188,3.900167673369854,0.13857127017878482
18.58458,3.924236312439361,0.13821682368227006
18.586972,3.9441609803891744,0.13800007426307465
18.589352,3.9713026553917365,0.13756089378417588
18.591748,3.9939282722222673,0.1372274850783684
18.594136,4.018044133120017,0.13682473629700437
18.59652,4.04001812364449,0.13649921945124763
18.598916,4.063342588609323,0.13611396463330244
18.601304000000003,4.086667053574154,0.1357410517307903
18.603688,4.102262654807039,0.13555449705823544
18.606084,4.118929191226563,0.1353365816489869
18.608472000000003,4.134944101340028,0.13511532019149577
18.610856,4.15403204738655,0.1348209048832341
18.613252,4.172468367127013,0.1345218037588494
18.615640000000003,4.189833751680837,0.13426311575143018
18.61802,4.210691481048298,0.13388720267196552
18.62042,4.2313168929902805,0.13347227575864054
18.622808000000003,4.255294880119039,0.13296328863072332
18.625192,4.282625442434574,0.13235168956065016
18.627588,4.3074420473244945,0.13177668916053795
18.629976000000003,4.326811428482605,0.13129698137120882
18.63236,4.349393615200632,0.1307204730525431
18.634756,4.372534880426098,0.13009515424279053
18.637148,4.392463340091649,0.12957097452896144
18.639528,4.41346273494384,0.12901995619841808
18.641924,4.432320259422752,0.12853276029190294
18.644312000000003,4.451597092782247,0.12801424141831008
18.646692,4.470082530208822,0.12750471680563616
18.649088000000003,4.482980974276728,0.12709648433830628
18.651476,4.502025490210744,0.1265360171396508
18.653856,4.520930236517899,0.12599182340115037
18.656256000000003,4.537832882078639,0.1254925506230533
18.658644,4.547006663907433,0.1251544975422471
18.661024,4.557111611296002,0.12480167777651313
18.663424000000003,4.564283292378377,0.12451113146462671
18.665812,4.569452872714336,0.12426697216393122
18.668192,4.5715494171172395,0.12409407913460015
18.670588,4.563495688161198,0.12415317988812712
18.672976,4.550646361779405,0.12430612851927073
18.67536,4.536726100210973,0.12448760446278116
18.677756,4.527461666441432,0.12458682397259378
18.680144,4.518197232671893,0.12468549584963291
18.682528,4.5066511589022165,0.12485311684140961
18.684924,4.492591127706924,0.12504781416975408
18.687312,4.474526895018799,0.12533502428979595
18.689708,4.453669165651338,0.125677159194896
18.692104000000004,4.428947004417904,0.1261006705035725
18.694492,4.40301413837097,0.12656554107800821
18.696872000000003,4.380014538630233,0.12697160731777815
18.699272000000004,4.3560837733297175,0.12738627297276578
18.701664,4.33322394321584,0.12776622110323094
18.704044,4.3127855227289595,0.1280641817724866
18.706440000000004,4.297002930040971,0.12828027190888588
18.708828,4.2800096325394845,0.12853548033452525
18.711212,4.265949601344194,0.12872781964938146
18.713608,4.251610030895181,0.1289436730218509
18.716,4.238061856379088,0.12915814604266157
18.71838,4.234803724848797,0.1291231939550183
18.720776,4.236341190744261,0.12899194985012166
18.723164,4.235597016639584,0.12892982079490428
18.725548,4.231640036974994,0.12895560211317716
18.72794,4.227403518056684,0.1290054979062594
18.730328000000004,4.228102366190984,0.1289453757064928
18.732712000000003,4.232386106937538,0.12882887252580513
18.735112,4.242536380296483,0.12858557575872692
18.7375,4.259065042947015,0.12823501007638208
18.739884,4.280901159702497,0.1278054651298247
18.74228,4.305530773137313,0.1273262710758709
18.744668,4.330812012878188,0.1268559557456185
18.747052,4.353671842992066,0.12646771638994697
18.749448,4.372667241239969,0.12616018623253586
18.75184,4.390172395420654,0.12591973574174528
18.75422,4.407817319228199,0.12567274120814667
18.75662,4.430677149342077,0.12530550346818234
18.759008,4.453536979455955,0.12494596882503026
18.761392,4.477607514383331,0.12454926209954459
18.763788,4.505682250803542,0.12407029103700373
18.76618,4.529613016104056,0.12369680711920074
18.76856,4.555685651777848,0.12328340393617637
18.770956,4.591117164877668,0.12266604259498576
18.773344,4.6288303179776245,0.12198477788542127
18.775728,4.665891844771523,0.12129365707678139
18.778124,4.701091040445865,0.12064408000491209
18.780512,4.734427905000651,0.12002817545643864
18.782892,4.764691733622381,0.11948334533103645
18.785292,4.789648108139162,0.11900549586612995
18.78768,4.815163561163383,0.11849657947693658
18.790064,4.83802528713513,0.11802035474242295
18.79246,4.862237487547235,0.11750459207365672
18.794848,4.889802263146117,0.11690847691262155
18.797232,4.92216263617075,0.11623771218724863
18.799628,4.954802548449103,0.11554605132980703
18.802016,4.983438259234624,0.11492881384941789
18.804396,5.004065567034475,0.11446381357850545
18.806796,5.022830543714772,0.1140287484230311
18.809184,5.043737390768344,0.11355522348605183
18.811564,5.067065647448914,0.11303187284397673
18.813964,5.09467764487604,0.11242964284577679
18.816352,5.11814567118347,0.11191265204178186
18.818736,5.134676229691872,0.11151428868095228
18.821132,5.151486327453995,0.11110061405301118
18.82352,5.171229691522313,0.11064648029952594
18.825904,5.190041890030851,0.1102055607768641
18.8283,5.211135728539527,0.10971826401207256
18.830688,5.232648875928784,0.10920316893724666
18.833068,5.25509318887782,0.10867405450339761
18.835468,5.274464465893798,0.10820242639354562
18.837856,5.294627138842697,0.10772867912269637
18.84024,5.31171677585854,0.10730799091518825
18.842636,5.323451736941189,0.10698640533111291
18.845024,5.333324366904281,0.10668964077608036
18.847408,5.343057227240515,0.1064024310899467
18.849804,5.351998691643829,0.1061127309343486
18.852196000000003,5.364944357539979,0.10575961640889099
18.854576,5.37588792268971,0.1054361978760332
18.856976,5.3826875167197485,0.10518627792662118
18.859364000000003,5.3750530966442875,0.10518058647439404
18.861748,5.359130734329439,0.10531796420378838
18.864144,5.339343940148618,0.10551158994187877
18.866532000000003,5.317555045221379,0.10573988557360872
18.868916,5.294415675853782,0.1060058514389182
18.871312,5.268063500926268,0.10633223924841179
18.873700000000003,5.239848994879199,0.10668193311969232
18.876084,5.207210978458715,0.10712362866600936
18.878484000000004,5.172151552411233,0.10762961278807512
18.880872,5.138954457483306,0.1081116531163199
18.883256,5.1034757225552445,0.10864949162380981
18.885652000000004,5.071861419493156,0.10912551285125455
18.88804,5.041178281990844,0.10959197916296187
18.890424,5.018922856354781,0.10989976605470181
18.892820000000004,4.9954567259052185,0.1102365824508099
18.895204000000003,4.971850825828798,0.11058351570429076
18.897588,4.956904955044101,0.11081038714895175
18.899984,4.941819314632546,0.11104495716923662
18.902368,4.93138950201988,0.11122592968234712
18.904752,4.918538279780219,0.11146977026322331
18.907148000000003,4.92263502907167,0.11145368504088876
18.909536,4.932458541348651,0.11136147071511762
18.91192,4.948660442917219,0.11120004561967706
18.914316000000003,4.9713805034042355,0.11096151683989414
18.916708000000003,4.995031729451032,0.11071282580297073
18.919088,5.021616221804022,0.11042172932376733
18.921488,5.0527167723290445,0.11008670299755224
18.923872,5.084608718786985,0.10974284585914348
18.926256,5.120784405991479,0.1093149093202035
18.928656,5.159474050621588,0.1088805873847456
18.93104,5.202307666371389,0.10837175720278265
18.933424,5.239414519135662,0.10794360689179995
18.935824,5.278523472646353,0.10748788895645835
18.938212000000004,5.3112068150372105,0.1071613781723323
18.940592,5.346032027801345,0.10679727719444997
18.942988000000003,5.385420520565756,0.10634370421939937
18.945380000000004,5.4180113151579965,0.10598943805844993
18.94776,5.452883749750375,0.10559466036612225
18.95016,5.48524222691714,0.10521674378757882
18.952548000000004,5.5263079552038725,0.10468230641305509
18.954932000000003,5.5567115534524625,0.1042907059779829
18.957332,5.585672129462077,0.10389447007312967
18.959716000000004,5.613748761740156,0.1034617723381341
18.962100000000003,5.638380271032842,0.10305403655372068
18.964496,5.665153650698806,0.10261637325330818
18.966884000000004,5.693417274431988,0.1021435985319588
18.969268000000003,5.719166940739557,0.10168455075591844
18.971664,5.750970131114618,0.10110426946332249
18.974052000000004,5.782913091116539,0.10052423449456085
18.976432,5.812901172200287,0.09992857405680719
18.978828000000004,5.843168792537756,0.09932425021666269
