Time,Force,Position
17.36556,0.0903792732697124,0.0
17.367963999999997,0.07998493099624276,0.0
17.370351999999997,0.07266362465582854,0.0
17.372732,0.06427138312877577,0.0
17.375131999999997,0.054947976041944686,0.0
17.377519999999997,0.04255153302205822,0.0
17.3799,0.03108625556195007,0.0
17.382299999999997,0.0226940140348973,0.0
17.384687999999997,0.016303873254261383,0.0
17.387068,0.010984667660263996,0.0
17.389467999999997,0.008878267626182204,0.0
17.391855999999997,0.010181520238298002,0.0
17.394236,0.012799776951577486,0.0
17.396631999999997,0.014347098478218438,0.0
17.399019999999997,0.014823484818220859,0.0
17.4014,0.014579415903695707,0.0
17.403803999999997,0.01658151665011256,0.0
17.406191999999997,0.014858955157416127,0.0
17.408572,0.013136393664719697,0.0
17.410967999999997,0.014067559224498018,0.0
17.413355999999997,0.017000825530693188,0.0
17.415736,0.023111427057608686,0.0
17.418135999999997,0.02908225895766397,0.0
17.420523999999997,0.037474500484716726,0.0
17.422904,0.0458667420117695,0.0
17.4253,0.05332781797904394,0.0
17.427688,0.06106843320003881,0.0
17.430072,0.06773811323439514,0.0
17.432468,0.07561849808225021,0.0
17.434856,0.08256771737032698,0.0
17.437236,0.08844600147176519,0.0
17.439635999999997,0.09463929516611912,0.0
17.442024,0.10190352404711159,0.0
17.444419999999997,0.11116985367452087,0.0
17.446816,0.11964478736901207,0.0
17.449203999999998,0.12724563296314673,0.0
17.451583999999997,0.13166914333656107,0.0
17.453984,0.14181941669550555,0.0
17.456367999999998,0.14689455337497775,0.0
17.458748,0.15131806374839207,0.0
17.461147999999998,0.15481040856202807,0.0
17.463535999999998,0.1553694870694689,0.0
17.465919999999997,0.15513716964399163,0.0
17.468315999999998,0.14819970184496278,0.0
17.470703999999998,0.1421933996057122,0.0
17.473084,0.13604732773960143,0.0
17.475488,0.1284110118062715,0.0
17.477876,0.12477889736577533,0.0
17.480255999999997,0.12100701329841888,0.0
17.482656,0.11909746035061908,0.0
17.485044,0.11932977777609635,0.0
17.487423999999997,0.1186309296417953,0.0
17.489819999999998,0.11592998076107738,0.0
17.492207999999998,0.11136670076080286,0.0
17.494587999999997,0.10959691743986327,0.0
17.496987999999998,0.11117970930569947,0.0
17.499375999999998,0.11076040042511887,0.0
17.501755999999997,0.10540572449192623,0.0
17.50416,0.10805945154440097,0.0
17.506548,0.10670897710404201,0.0
17.508927999999997,0.10829176896987822,0.0
17.511328,0.10652198564893862,0.0
17.513711999999998,0.10475220232799905,0.0
17.516095999999997,0.1072661597536136,0.0
17.518492,0.1048802204658114,0.0
17.52088,0.10553184677186932,0.0
17.523259999999997,0.10660278195850785,0.0
17.52566,0.10356521636464773,0.0
17.528048,0.09945671558414909,0.0
17.530427999999997,0.09441704924387212,0.0
17.532823999999998,0.08830644771695664,0.0
17.535211999999998,0.08112491100340262,0.0
17.537595999999997,0.0739433742898486,0.0
17.539991999999998,0.06769300313607288,0.0
17.542379999999998,0.06051146642251883,0.0
17.544759999999997,0.05132782896254796,0.0
17.547159999999998,0.04428606187585415,0.0
17.549543999999997,0.039246395535577176,0.0
17.551927999999997,0.030202527702466522,0.0
17.554323999999998,0.02517461285123744,0.0
17.556711999999997,0.018144597253591504,0.0
17.559092,0.014187617589000952,0.0
17.561491999999998,0.011161803484188718,0.0
17.563875999999997,0.008135989379376487,0.0
17.566271999999998,0.010010071987981008,0.0
17.568668,0.008043441580759427,0.0
17.571056,0.0068682071064559555,0.0
17.573435999999997,0.007994323894647035,0.0
17.575836,0.012423898183501527,0.0
17.578224,0.02439344889133039,0.0
17.580603999999997,0.043483667137552987,0.0
17.583008,0.07304712810894515,0.0
17.585396,0.11257197512630922,0.0
17.587775999999998,0.16075495557752933,0.009587607065399847
17.590176,0.21415094647721258,0.019085747503023602
17.592564,0.2740632004374749,0.02849394872762694
17.594948,0.3420745093241524,0.0377284987709418
17.597344,0.4166946290700259,0.047069718961639764
17.599732,0.49992566042151243,0.05630653062175449
17.602116,0.5858893192771736,0.06585408307628801
17.604512,0.6794401763800523,0.07523878654930942
17.606903999999997,0.782348015051088,0.08427892682371563
17.609284,0.8914000297303654,0.09324535374858835
17.611683999999997,1.0083187819105806,0.1020681738458723
17.614071999999997,1.13454729383071,0.11069647801901236
17.616456,1.2738219792189143,0.11911851807785302
17.618851999999997,1.4215224806154974,0.1273768038217435
17.621239999999997,1.5768494423142319,0.13535950121468446
17.623624,1.7323652913259389,0.14315636701104784
17.626023999999997,1.8788055938810784,0.15088944473962515
17.628411999999997,2.0170089677408116,0.158504454890428
17.630792,2.1415735151437034,0.1661735707489171
17.633191999999998,2.2509617701942903,0.17408217952848612
17.635579999999997,2.3536467707291955,0.17241306275380774
17.63796,2.455727366786285,0.17076179812348732
17.640359999999998,2.551012160529076,0.16923662623094993
17.642747999999997,2.6378258122931135,0.16784548251965495
17.645131999999997,2.7163553135335023,0.16630047156748798
17.647527999999998,2.7811062186901885,0.1650069434767967
17.649911999999997,2.840970874480375,0.16345700997487453
17.652292,2.892130175008463,0.16222502384658244
17.654687999999997,2.9346766680730685,0.16143949334757396
17.657076,2.9779692311002175,0.1605177594124428
17.659451999999998,3.013115517372708,0.1597766644837581
17.661859999999997,3.036717625733392,0.1592250213336089
17.664244,3.050265800249486,0.15873110027208343
17.666624,3.0518032661449483,0.15852007762812936
17.669027999999997,3.0409560405095726,0.1588097844723656
17.671415999999997,3.0302939104714297,0.15923645321802316
17.673796,3.0277780571879465,0.1595585437635324
17.676199999999998,3.024468912113675,0.1601617685210527
17.678587999999998,3.023533954838158,0.16072761281294703
17.680968,3.0287922912569956,0.16092412224871475
17.683363999999997,3.030932265772403,0.16108735712659253
17.685751999999997,3.0276722383842443,0.16133832929092456
17.688132,3.0290680387949775,0.16141996048791993
17.690535999999998,3.0318596396164437,0.16158286427559634
17.692923999999998,3.041494264580451,0.16165259482039926
17.695303999999997,3.062302876261799,0.16134435280879444
17.697703999999998,3.0860919760775856,0.16083937672102624
17.700087999999997,3.10904435399008,0.16016564871896183
17.702471999999997,3.1296697659320634,0.15943019260061328
17.704867999999998,3.143916788582459,0.15892560637271216
17.707255999999997,3.1566735671656345,0.15851286703804673
17.709636,3.1728282469059605,0.15810029871138748
17.71204,3.1875852303776844,0.1578694495821973
17.714427999999998,3.2094194512752976,0.15735153833667923
17.716807999999997,3.236935109188066,0.1564532959313828
17.719212,3.2574679733314325,0.15566467226127773
17.721595999999998,3.2664547637051213,0.15521997513354066
17.723979999999997,3.283869265945058,0.1544139873478716
17.726376,3.3072428485960024,0.15347924777917216
17.728759999999998,3.33187246203082,0.15265881343706722
17.73114,3.357525788824032,0.15187703500538094
17.733544,3.3845295900576033,0.15101822515359498
17.735932,3.404782914947249,0.15032292161092053
17.738311999999997,3.4213587994260246,0.14964844672841912
17.740712,3.4332788561059084,0.14913498419526683
17.743095999999998,3.438633532039101,0.14891527221712766
17.745476,3.44352167726347,0.1488316463989528
17.747871999999997,3.45101632771207,0.148766340933728
17.750259999999997,3.4618635533474467,0.14855745313716598
17.75264,3.4681021730121744,0.1483963719867875
17.755043999999998,3.4794631511846177,0.14796597696160568
17.757431999999998,3.487518775998528,0.14759702639280806
17.759811999999997,3.497296962305135,0.14718962697978746
17.762216,3.504886056410222,0.14696022186228208
17.764604,3.508004418313651,0.14699974390784146
17.766983999999997,3.514707672829334,0.14694741650294252
17.769379999999998,3.524623732904932,0.14675695676118194
17.771767999999998,3.5230862670094694,0.14693470061640923
17.774151999999997,3.513308080702863,0.14734463989181854
17.776548,3.501947102530419,0.14777385601428494
17.778931999999998,3.4931000817835907,0.14814959583487283
17.781315999999997,3.4863477095817963,0.14851688921597647
17.783711999999998,3.483831856298312,0.14879822484492466
17.786099999999998,3.4849008956270815,0.14898970619496837
17.78848,3.4855978479035135,0.1491448088350239
17.790875999999997,3.4848517779409693,0.149307841921139
17.793263999999997,3.4814519809259505,0.14953735179127411
17.795644,3.4811252198439866,0.14965123660636961
17.798039999999997,3.481822172120418,0.149803754381993
17.800427999999997,3.487267499994358,0.14989190618346104
17.802812,3.4873581519351067,0.15018929446764206
17.805207999999997,3.490009983129712,0.1503569359762185
17.807595999999997,3.4900080872718435,0.15058747139322692
17.80998,3.4904255002945543,0.15077007179173302
17.812375999999997,3.4959180499967384,0.1507759359016046
17.814763999999997,3.502574082684177,0.1508068161246294
17.817144,3.5128150079838694,0.15074979027957258
17.81954,3.5329266673887854,0.15037228180290843
17.821928,3.559184398659813,0.1497767901115885
17.824308,3.5880033091846983,0.14906910354489405
17.826704,3.616729671910966,0.14831578959299505
17.829096,3.640380897957761,0.14772937727186436
17.831491999999997,3.6601676921385833,0.147256802350184
17.833883999999998,3.680094255946265,0.14677545406627798
17.836271999999997,3.6969477838208915,0.14639132668832247
17.838655999999997,3.715803412441935,0.14593641653480943
17.841051999999998,3.736800911436256,0.14539856546297147
17.843439999999998,3.7539339785646035,0.14498566493620912
17.84582,3.7681337793867558,0.14466559498009932
17.848215999999997,3.782473349835768,0.1443322913778653
17.850607999999998,3.8025396832703104,0.14384077458447986
17.852988,3.82297810375719,0.14339250503886514
17.855392,3.844766998684429,0.14287310992611335
17.857775999999998,3.8649731017458313,0.14237808916021058
17.860159999999997,3.886529679247593,0.14183556009857057
17.862555999999998,3.9065034648835186,0.14131225790735205
17.864943999999998,3.925406315332805,0.14083202404804135
17.867324,3.938442633169702,0.14052286371581302
17.869723999999998,3.9486854543272636,0.1402852144757114
17.872107999999997,3.9527822036187144,0.14023179463662125
17.874492,3.9513845073501117,0.14036754602842386
17.876896,3.951616824775589,0.1404141240111531
17.879284,3.95571357406704,0.1403586407840165
17.881663999999997,3.960741488918269,0.14028285408703228
17.884059999999998,3.9709843100758304,0.1400438317386719
17.886447999999998,3.984160397539587,0.13973080090484302
17.888827999999997,3.9974762546302043,0.13940776618284545
17.891223999999998,4.011211420601402,0.13904505003713943
17.893611999999997,4.026157291386098,0.1386347700361734
17.895992,4.042453636611153,0.13816961216101495
17.898391999999998,4.055165089223955,0.13778129026009198
17.900775999999997,4.065502354038003,0.13741664418807858
17.903156,4.079843820344885,0.13695424827177372
17.905564,4.094045517024907,0.13650533674531368
17.907947999999998,4.104382781838955,0.13615465605892638
17.910328,4.117141456279999,0.13571880715024529
17.912723999999997,4.130319439601625,0.13524892204771577
17.915111999999997,4.141774861430555,0.13479861453009592
17.917492,4.153881909565541,0.1343570804846372
17.919895999999998,4.167991058446947,0.1338573015460926
17.922283999999998,4.187454883261543,0.13319322373258072
17.924664,4.211854075128753,0.13241798291121323
17.927063999999998,4.235461871063043,0.13165859466510121
17.929447999999997,4.2570675662509165,0.13095565927915895
17.931832,4.276391621438653,0.13033447533564385
17.934227999999997,4.293061949573915,0.12976403015320123
17.936615999999997,4.3088011121494,0.12921475261589843
17.939011999999998,4.326402605844439,0.12863638372285846
17.941408,4.342561077300504,0.12805877635149665
17.943796,4.357508843943069,0.12752932557016358
17.946175999999998,4.3696631139063,0.12704794139091866
17.948576,4.3843313412951455,0.126541431645601
17.950964,4.392062100884961,0.12619347023919378
17.953348,4.401143334915137,0.12579494690513976
17.955744,4.408222468198895,0.12544027584277057
17.958132,4.413019961482516,0.12515763042954364
17.960511999999998,4.417817454766137,0.12487742304143493
17.962908,4.4271310062217895,0.12452598739755327
17.965296,4.432440356184609,0.12426216969425549
17.967679999999998,4.4389604109609255,0.12395755079776954
17.970076,4.445480465737243,0.12365757917714758
17.972464,4.443852347901033,0.12354659291788476
17.974843999999997,4.439151194131767,0.12350790677143461
17.977248,4.434450040362502,0.12346922062498446
17.979636,4.42774678584682,0.12347564888190903
17.982015999999998,4.419832826517639,0.12352217850730726
17.984412,4.408845831255403,0.12364398733511124
17.9868,4.393714864873472,0.12386815768710105
17.989179999999998,4.378024819984101,0.12414147814561378
17.99158,4.36261431434845,0.12438753561670975
17.993964,4.3526510324446095,0.12454560808772379
17.996347999999998,4.338823318674794,0.12478228356617938
17.998752,4.327928871211174,0.12495929983836498
18.00114,4.310748582254584,0.12530216887542925
18.003519999999998,4.297432725163968,0.1255641719948712
18.005923999999997,4.284116868073351,0.12582617511431313
18.008311999999997,4.269310766915514,0.12615237027646925
18.010692,4.254784205011399,0.12644854474799902
18.013088,4.247474650160033,0.1265682264698444
18.015476,4.243889757547779,0.1266206676135745
18.01786,4.232948088255917,0.12685942174069753
18.020256,4.2290836563899425,0.12693681722949327
18.022644,4.23122552676322,0.12688079463041796
18.025028,4.2365802026964134,0.12674276071471777
18.027424,4.244076749002883,0.12654811533882132
18.029812,4.253575396055769,0.12630989686363897
18.032192,4.268009410161268,0.12596657425360105
18.034588,4.285376690572962,0.12556084221927585
18.036976,4.306608402850628,0.1250809540654528
18.039356,4.323416604754882,0.12472142224310374
18.041756,4.3385022451664375,0.12438829672965408
18.04414,4.3557297559512715,0.12399676490884888
18.046524,4.373608893042164,0.12361410202804121
18.04892,4.3992168938650025,0.12307277017255198
18.051308,4.421891628381645,0.1225950708997108
18.053688,4.445637298084926,0.12209204367011084
18.056084,4.470733442228567,0.12153873803353947
18.058472,4.492616780812291,0.12107162762127949
18.060868,4.508493817156766,0.12073961623415057
18.063272,4.520366652008407,0.12049811684716902
18.065656,4.538804867606741,0.12007718438813261
18.068036,4.555892608764714,0.11971416087669554
18.07044,4.566042882123658,0.11949388201417732
18.072828,4.5729803499226875,0.11935561446828402
18.075208,4.580848983281495,0.1192034802504029
18.077612,4.588857386267162,0.11904202571724969
18.08,4.59714532850655,0.11886178152157273
18.08238,4.605852579626518,0.11865063424113648
18.084776,4.610974938134233,0.11848594991651304
18.087164,4.620660576642223,0.11819835670691284
18.089544,4.629415049590436,0.11792621357090245
18.091944,4.640963019217982,0.11761584795876498
18.094332,4.654932398472526,0.11724014221851486
18.096712,4.6671792162343735,0.11688527362462334
18.099112,4.680496969182859,0.11650583365729644
18.101496,4.691952391011789,0.11615366548591267
18.10388,4.701825020974882,0.115807987298537
18.106276,4.7150502261247516,0.11538259965049646
18.108664,4.731208697580815,0.11490663161921778
18.111044,4.743502737170906,0.1144884814662109
18.11344,4.754446302320638,0.11411777259347841
18.115828,4.763946845231393,0.1137437825915674
18.118208,4.778522524821621,0.11327201011888463
18.120612,4.794308909225348,0.11276836624382144
18.123,4.812097394375493,0.11223591180986546
18.12538,4.830677275458554,0.11170741456703646
18.127776,4.849117386914756,0.11119783086157561
18.130168,4.865927484676877,0.11075342729827228
18.132548,4.883528978371918,0.11030632361148565
18.134948,4.900571393559517,0.10990348335988442
18.137336,4.919615909493533,0.10947058947539254
18.139716,4.936006698375075,0.109067939791636
18.142112,4.948113746510063,0.10875428209812144
18.1445,4.9614314994585484,0.10841349707708184
18.146884,4.97782228834009,0.1080241148148225
18.14928,4.999008674647384,0.10757495246503611
18.151668,5.022569248753432,0.10712524626344905
18.154052,5.04491911804598,0.10671160180636619
18.156448,5.069410857711805,0.1062650664732122
18.158836,5.101771230736439,0.10570721737637191
18.161216,5.134271373387933,0.10514059223557937
18.163612,5.168494077532123,0.10456841358273859
18.166,5.198572810556619,0.10406648966089113
18.16838,5.2252989683943385,0.10363176419128714
18.17078,5.249883255858783,0.1032422996939637
18.173168,5.271394507390171,0.10290271646454413
18.175548,5.290484349294561,0.10262220132620614
18.177944,5.309993500079531,0.1023133558601359
18.180332,5.331644521237779,0.10196900852533142
18.182716,5.352783685716829,0.10160821340141353
18.18512,5.369499339822465,0.10133229988579595
18.187508,5.38593545467438,0.10107556589169914
18.189888,5.401580173593378,0.10081675664463584
18.192296,5.412801382138961,0.10064398754684241
18.19468,5.420530245870908,0.10054812151703342
18.197064,5.421181872176966,0.10055684975857371
18.19946,5.420902332923244,0.10057511138612413
18.201848,5.417409988109609,0.1006496740950996
18.204228,5.409633902549419,0.1007981187799175
18.206628,5.398784781056173,0.10099019394972604
18.209016,5.39166032180204,0.10114318164737934
18.211396,5.378669329935518,0.10137012167444413
18.213796,5.373686741054663,0.10148619161721546
18.216184,5.371916957733724,0.10154869515367813
18.218564,5.367353677733449,0.10163867570420972
18.22096,5.365072037733312,0.10168361436632531
18.223348,5.361207605867341,0.10172934725326267
18.225728,5.358274339561144,0.1017656579127749
18.228128,5.353338972508533,0.10182848226808729
18.230516,5.350265936575478,0.10187278388765468
18.232896,5.351895950269556,0.10181978329465578
18.235292,5.354736668777135,0.10174057802634526
18.23768,5.362372984710464,0.10160906878183645
18.240064,5.376295142136765,0.10138253837724263
18.24246,5.392778478816924,0.1010966666099538
18.244848,5.414756261057136,0.10071513873297118
18.247232,5.434080316244872,0.10035031675470069
18.249628,5.455825781059606,0.0999310816947512
18.252016,5.4777110155012,0.0995004420223955
18.2544,5.496942522890319,0.0990868070378991
18.256796,5.510587036920768,0.0987282625150089
18.259184,5.529166918003829,0.09830558290368283
18.261564,5.537876064981668,0.09800779849757194
18.263968,5.546864751213226,0.09769470177061317
18.266356,5.559717869310757,0.09733895660739357
18.26874,5.573222613714346,0.09699509700741152
18.271136,5.59180249479741,0.09658520457431927
18.273524,5.610522145507332,0.09616981467661967
18.275904,5.626960156217115,0.09579463740734546
18.278304,5.640325130993846,0.09546301567229593
18.280688,5.653410566516854,0.09515312392919736
18.283072,5.665285297226364,0.09486943686141044
18.285468,5.675577236070039,0.09458807818107862
18.287856,5.681725203794018,0.09436536883017808
18.290236,5.683589430771444,0.09420666467320271
18.292636,5.684103183308511,0.09408134193364702
18.29502,5.691554403644606,0.09388107889475397
18.2974,5.699936789540479,0.09367460964000622
18.299804,5.71139221136941,0.0934310763626184
18.302192,5.726712065064313,0.09315146294857757
18.304576,5.747898451371606,0.09281568472079647
18.306972,5.771506247305897,0.0924394179017978
18.30936,5.802051511039218,0.09199006204654826
18.311744,5.8303151347724,0.091580150786659
18.31414,5.856716427386025,0.09118679171335821
18.316528,5.880603762574037,0.09079961981998355
18.318912,5.899276191455717,0.09047933970805473
18.321308,5.915946519590977,0.09018122502527161
18.323696,5.937040358099654,0.08981733359208378
18.32608,5.962278167728025,0.08940626311711596
18.328476,5.985513876609978,0.08901912816344137
18.330864,6.009029124745651,0.08861712079986432
18.333244,6.030262732881189,0.08825259840803731
18.33564,6.048842613964249,0.08789752593876975
18.338032,6.06877296948767,0.087510331360884
18.340412,6.086701224264674,0.08714433932548205
18.342812,6.0963415368022895,0.08687875572846454
18.3452,6.106913014899684,0.08660920522260421
18.347584,6.113480291504246,0.08638056543396193
18.349984,6.118045467362388,0.08617323147022847
18.352368,6.116464571354421,0.08603416091591383
