Time,Force,Position
21.014464,0.003251714097809218,0.0
21.01686,0.003251714097809218,0.0
21.019248,0.003251714097809218,0.0
21.021628,0.003251714097809218,0.0
21.024024,0.003251714097809218,0.0
21.026412,0.003251714097809218,0.0
21.028796,0.003251714097809218,0.0
21.031192,0.003251714097809218,0.0
21.03358,0.003251714097809218,0.0
21.035976,0.003992096486745693,0.0
21.038372000000003,0.00985104566765906,0.0
21.04076,0.03621224764583844,0.0
21.043144,0.07937785981253223,0.009111221287427022
21.045539999999995,0.13576298955548738,0.017808490665643044
21.047928,0.2055546283298073,0.0259985728389523
21.050308,0.2802325164706268,0.034493908442995
21.052708,0.3639406250976399,0.0428686526508638
21.055096,0.4571908108900442,0.0511797714387667
21.057476,0.5599358520195966,0.059581020328101635
21.05988,0.6759004107254104,0.06786192866107425
21.062264,0.8073661270076228,0.07590004670153268
21.064648,0.9470234460148674,0.08401712542842264
21.067044,1.096781920694944,0.09203506236302512
21.069428,1.2546394503014362,0.10004951249985769
21.071808,1.416172524460929,0.10827779764199312
21.074204,1.5857574317185938,0.11657878049183779
21.076592,1.7620436976340719,0.12502637988849266
21.078976,1.951084846274857,0.13330366748983005
21.081372,2.1466894798044636,0.14151951559717785
21.083756,2.342232176881554,0.14973837759414818
21.08614,2.528978866755797,0.15792343784376223
21.088536,2.6930092878587613,0.16612681778418062
21.090924,2.8337643616830057,0.16534543728675566
21.093304,2.9575752556918764,0.16510061915745103
21.095704,3.0690033540277772,0.1653964575862446
21.098092,3.1820161400873834,0.16525338080723193
21.100488,3.2899556853253866,0.1651612818186338
21.102884,3.3906347933981364,0.16503195619790462
21.105272,3.480423245723005,0.16474827348475696
21.107652,3.552523344127824,0.16463389610141133
21.110048,3.604466457157353,0.16490874173174952
21.112436,3.6511040119398013,0.16507882121457626
21.11482,3.6919694777663454,0.16531079940211757
21.117216,3.7293444946371235,0.165481409514899
21.1196,3.7669083988208736,0.16531559418015132
21.121976,3.7981902532273915,0.16496612164227833
21.12438,3.824959841177616,0.16431957171486616
21.126768,3.8312456826705867,0.16407805181714127
21.129148,3.8310605870733525,0.16395805507025898
21.131544,3.835903406327348,0.16373728667812348
21.133932,3.8515462293884757,0.1633855427114364
21.136328,3.873193458830985,0.16303385096612807
21.138732,3.900799768684502,0.16253990767623908
21.141116,3.9331091281651536,0.1618309916552977
21.143496,3.9621603561155156,0.16110652853740734
21.145892,3.9796655102962006,0.1606782629836197
21.14828,3.9933062326109114,0.16037685667782345
21.15066,4.009134151269273,0.1601353058881875
21.153064,4.033248116309154,0.15981945496490685
21.155452,4.06383301843924,0.15939581197356678
21.157828,4.096979099823184,0.1588302439308723
21.160232,4.122211221877946,0.1583789832212687
21.16262,4.138318679790029,0.1581009952855458
21.165,4.153262654716856,0.15781594680237943
21.167404,4.16801963818858,0.15762577836569633
21.169792,4.183101486884397,0.15754079382046401
21.172168,4.19864797043117,0.15754923521878308
21.174572,4.226905906590744,0.15712009182960032
21.17696,4.256189451966584,0.1565321788109008
21.17934,4.276907411707184,0.1560565968728007
21.181736,4.286219067304967,0.1558267407871501
21.18412,4.299255385141864,0.15551086693591626
21.1865,4.318622870442106,0.15512555502784148
21.188908,4.340457091339718,0.15477576972836637
21.191296,4.365876204849584,0.15435342175437428
21.193676,4.400002569479418,0.1536423074418077
21.196072,4.43738896149741,0.1527737409616633
21.19846,4.464300214932365,0.1520917294320507
21.20084,4.4860437838892295,0.15152170006587617
21.203244,4.509090605458211,0.15096976409848042
21.205632,4.536885802624701,0.15036963243525317
21.208012,4.574923820948752,0.14954900032970203
21.210408,4.619387450392633,0.14852169413261285
21.212796,4.654679193865594,0.1476807010935123
21.215176,4.6892267632338775,0.14680415095638769
21.21758,4.724333411109602,0.1458929185399304
21.219968,4.761302390104883,0.14496618981480297
21.222348,4.7920780754058105,0.14427974468676638
21.224744,4.821595834064997,0.14370251156101402
21.227132,4.852696384590018,0.1431062323187934
21.229512,4.886637653622619,0.14238687177714318
21.231908,4.914107985565014,0.1417470865165399
21.234296,4.93669017228304,0.14117600634409272
21.23668,4.954756300829035,0.14068887385054357
21.239076,4.973194516427368,0.14023386399594934
21.241464,4.988140387212065,0.13989458045083994
21.243844,4.995357394264813,0.13971752435394943
21.246244,5.012073048370449,0.13929203778689236
21.248628,5.026134975423609,0.13890945342505673
21.251008,5.037962484304877,0.1385407389522516
21.253408,5.048067431693447,0.13819952241231354
21.255796,5.052166076842767,0.1379959993515869
21.258176,5.055705643484647,0.1378365414313457
21.260572,5.065251512365777,0.1375418472029189
21.26296,5.071352258261514,0.13729510927855057
21.26534,5.072936945985219,0.13712090229045698
21.267736,5.067212078857558,0.13706823259998524
21.270124,5.064560247662953,0.136945354277719
21.272508,5.065260991655122,0.13673245262876924
21.274904,5.065682196393573,0.13653986061170864
21.277292,5.065544322624582,0.13638940136353603
21.279688,5.068199945534925,0.13619042632950498
21.282084,5.0683416110196555,0.1360186866021079
21.284472,5.071696082064301,0.13576776025286155
21.286852,5.0733279916162495,0.1355393516829348
21.289248,5.071747095608282,0.13538940349151954
21.291636,5.077335984824821,0.13513013709349586
21.294016,5.081434629974141,0.13493253817839948
21.296412,5.086464440683239,0.1347185820192748
21.2988,5.09056308583256,0.13452125746612034
21.30118,5.092659630235462,0.13436573413499076
21.30358,5.097921758370038,0.13418920443164348
21.305964,5.103835512810672,0.13401909313875923
21.308348,5.11240299430378,0.1338151372811336
21.310744,5.121342562849226,0.1336364593120181
21.313132,5.13242400176795,0.1334057854568188
21.315528,5.148301038112423,0.1330871276704476
21.317924,5.164317844083758,0.13276286659732311
21.320312,5.177773470801235,0.1325234400443753
21.322692,5.192811889384547,0.13227348801911676
21.325088,5.208781473527639,0.1320094435146495
21.327472,5.224611288043872,0.13175835617837736
21.329856,5.242023894425939,0.131496557199153
21.332252,5.2552925296883135,0.13132455449564864
21.33464,5.269352560883605,0.1311481433837248
21.337019999999995,5.288208189504648,0.1308854133216125
21.339416,5.304270321446357,0.1306699805432357
21.341804,5.317538956708731,0.1305000790251605
21.3442,5.3281538649186295,0.13036281241370673
21.346596,5.33783760756875,0.13024027008412714
21.348984,5.352596486898344,0.13001647529217306
21.351364,5.362047912122987,0.12985963967580103
21.35376,5.368845610295155,0.12973717136779428
21.356148,5.374851912534406,0.1296216922191864
21.358532,5.381277523654237,0.12947690721113092
21.360932,5.390217092199683,0.12931078203661353
21.363316,5.397294329625573,0.12917410014405745
21.365696,5.402229696678185,0.12908534768552685
21.368104,5.401438300745267,0.12908977719683157
21.370488,5.401205983319788,0.1290552892727528
21.372868,5.3996704132821955,0.12901005205595334
21.375268,5.392408080259071,0.1290595131383496
21.377656,5.385425286489669,0.12908915534445914
21.380036,5.379373658280044,0.12910545320707018
21.382432,5.374532734883919,0.12908745317547518
21.38482,5.371973451487931,0.12901213194717467
21.3872,5.3715560384652195,0.12889023239432576
21.389604,5.374211661375564,0.12870869115658315
21.391992,5.381802651338519,0.12844011560511837
21.394376,5.389253871674615,0.12818003246262627
21.396772,5.391909494584959,0.1279992350246207
21.39916,5.399640254174774,0.12772213551805012
21.40154,5.410444049697646,0.12738686266845708
21.403936,5.419525283727822,0.12707162400235877
21.406324,5.430608618504414,0.12672359505088393
21.408704,5.436524268802917,0.12642617703635578
21.411104,5.442439919101421,0.1261291105373238
21.413492,5.4495662742134225,0.12580111990334225
21.415872,5.466982672311229,0.12527898649324765
21.418272,5.485330235968814,0.12474964884959254
21.42066,5.503910117051875,0.12425398950794286
21.423044,5.532220962613301,0.12360491987489394
21.42544,5.561183434480783,0.12296471065586148
21.427828,5.5934984815350415,0.12225280003263174
21.430208,5.621157700790409,0.12160335308559835
21.432608,5.642438530754188,0.12103638851253781
21.434996,5.662927964785051,0.12047913497723146
21.43738,5.6782024925095795,0.12001865809209494
21.439784,5.690124445047333,0.11963244087196194
21.442172,5.7048398942644205,0.11921107564053454
21.444552,5.720346739414428,0.11878606603811956
21.446948,5.733711714191157,0.11840571079200665
21.449336,5.742141321915275,0.11810267600197519
21.451716,5.75122255594545,0.11780733483208156
21.45412,5.756951214788849,0.1175840892800907
21.456504,5.768778723670116,0.11730716696315094
21.458884,5.782608333297799,0.11700047449518844
21.46128,5.795367007738844,0.11671517160273914
21.463668,5.800908675127141,0.11655576948617216
21.466048,5.805239637701938,0.11642630551448167
21.468444,5.809570600276736,0.11629664806875531
21.470832,5.806405016545063,0.11630613321053654
21.473216,5.804030828746309,0.11631311538516138
21.475612,5.802308267253612,0.11632604467533904
21.478,5.806964095052505,0.11627258255838392
21.48038,5.817579003262403,0.11617907781247297
21.482772,5.82856599852464,0.11611025531645894
21.48516,5.8443485912126265,0.11597969480372423
21.487556,5.865997716513006,0.11577157648744775
21.489952,5.88471357550719,0.11560350186967099
21.49234,5.9042208304342925,0.11543370560820777
21.49472,5.926521582040729,0.1152347617405068
21.497116,5.956271658125392,0.11495502860771942
21.499504,5.983879863836779,0.11471252991776658
21.501884,6.015492271040998,0.11441421107171716
21.50428,6.0452423471256616,0.11414185156549196
21.506668,6.073502179143104,0.11391481033332589
21.509064,6.102693176720327,0.11367866428477794
21.51146,6.136959310977021,0.11336997864046337
21.513848,6.171365214860576,0.11305572379042676
21.516228,6.208983924304047,0.11269164427974038
21.518624,6.25251638818815,0.11220812063856314
21.521012,6.295536995393057,0.1117150146382904
21.523392,6.336415732224686,0.11126241339367864
21.525788,6.373709576444061,0.11084510507013783
21.528176,6.407558297678044,0.1104537060302679
21.530556,6.437822126299774,0.11009091668344075
21.53296,6.467434328615446,0.10972546917038903
21.535348,6.488526271266253,0.109450745098872
21.537728,6.5148331202233924,0.10910311228117525
21.540124,6.5404883428744744,0.10874987906960895
21.542512,6.562838212167023,0.10841188443194293
21.544896,6.5809515625412605,0.10809937991342539
21.547292,6.600275617728997,0.10776230415085787
21.54968,6.614012679558063,0.10747775857954645
21.55206,6.62309391358824,0.10723596239257535
21.55446,6.633013765379576,0.10695002401314238
21.556844,6.642561530118575,0.1066436857298564
21.559228,6.648384632618461,0.10637282481319332
21.561628,6.652485173625649,0.10611159342450519
21.564016,6.655002922767002,0.1058542151727871
21.5664,6.656170197467995,0.10562938146918553
21.568804,6.653473040303018,0.10544346167340729
21.571188,6.648541464966144,0.10525191596137196
21.573568,6.640956162576795,0.10507642004952936
21.575964,6.63257946425453,0.10490125938283254
21.578352,6.6264844059324,0.10468736743557382
21.580732,6.618666786117574,0.10448191211280534
21.583136,6.619137108542136,0.10416879153954849
21.585524,6.612018336861612,0.10392609062877181
21.587904,6.605318874061669,0.10366123903877457
21.5903,6.599550576821503,0.10338825780756052
21.592687999999995,6.589778078088504,0.10315977123871868
21.595068,6.579214183422586,0.10293127428200008
21.597468,6.5707921591299465,0.10267131038363497
21.599852,6.5647915444643035,0.10236468214511342
21.602236,6.556649059425384,0.10208839317971898
21.604632,6.546224934386326,0.10184910957347734
21.607016,6.535800809347269,0.1016091181433931
21.609412,6.52630784986799,0.10136093020843359
21.611808,6.51146021445552,0.10118787692200058
21.614196,6.491816981617296,0.10106044241376441
21.616576,6.475246784712128,0.10089413745163699
21.61898,6.461330314859433,0.1007114080088536
21.621368,6.446203140193242,0.10055073540953366
21.623748,6.43014479996727,0.10039718608150798
21.626144,6.412875754927801,0.10026600561905938
21.628532,6.39625833619439,0.1001415454713198
21.630916,6.370142270408094,0.10014724057454498
21.63332,6.347471327607188,0.10013754478425764
21.635708,6.319585478499951,0.10019851530712214
21.638088,6.290209385325496,0.10029801755872156
21.640484,6.2654891199499305,0.10035847767156357
21.642872,6.241560250507284,0.10041818727144373
21.645252,6.219074403303612,0.10048437573958637
21.647648,6.200033679085335,0.10053234088251038
21.650036,6.17871131486692,0.10062022402384052
21.652416,6.159111512141201,0.10070060652625276
21.654812,6.142305206094818,0.10075614898048306
21.6572,6.125219360794714,0.10082669977332429
21.65958,6.113208652174082,0.10083553511946092
21.66198,6.103851670605925,0.10082884986448747
21.664368,6.094075380157188,0.10084516494410412
21.666748,6.082157219335173,0.10089242184058059
21.669144,6.079970022991523,0.10083823514495732
21.671532,6.081227949633265,0.10076866611161141
21.673916,6.08527937295434,0.10067631456906594
21.676312,6.089982422581475,0.10059191168336765
21.6787,6.101622940007639,0.10042961597444253
21.681096,6.112472061500886,0.10026709416465777
21.683492,6.131841442658996,0.10002682809047152
21.68588,6.155494564563661,0.09972660985281269
21.68826,6.179147686468326,0.09942859000689985
21.69066,6.201590103559491,0.09915292869835583
21.693044,6.224172290277517,0.0988712845927216
21.695424,6.241679340316072,0.09865142515017088
21.69782,6.266263627780514,0.09834950121666004
21.700208,6.292989785618234,0.09801963955972895
21.702588,6.316642907522899,0.09772877789150028
21.704984,6.342437899800841,0.0974102196415769
21.707372,6.37009522319834,0.09708180525837193
21.709756,6.398963251409337,0.09673283044148147
21.712152,6.429973149993612,0.09635721275058588
21.714536000000003,6.462845379697443,0.09596737913776089
21.716936,6.489851076788883,0.09564122597399906
21.719336,6.517276082760904,0.09529725633704773
21.721724,6.543118296867089,0.09495523070452627
21.724104,6.569659359107574,0.09457955266215917
21.7265,6.592475759108946,0.0942310898544578
21.728888,6.619296360603154,0.09384482496165239
21.731272,6.645605105418162,0.09345104149817628
21.733668,6.666978483180558,0.09310510047392252
21.736056,6.689562565756455,0.09274213277567465
21.73844,6.713497122772709,0.09235143400285367
21.740836,6.736780053482906,0.09195491586920308
21.743224,6.763415559379878,0.09151175884940145
21.745608,6.785115698224238,0.0911168049535277
21.748004,6.805884671508819,0.09073121271127939
21.750392,6.8278643496069,0.0903256751756682
21.752772,6.844908660652368,0.08996350903543136
21.755172,6.857157374272085,0.0896389680438788
21.75756,6.869266318264942,0.08932299224112943
21.759944,6.878581765578463,0.08902549307943998
21.76234,6.8864541906530095,0.08871927450988552
21.764728,6.897539421287472,0.0883779668767595
21.767108,6.906762320802376,0.08804985472779125
21.769508,6.912772414757365,0.08775760476217553
21.771896,6.915569703152439,0.08750231385226587
21.774276,6.923302358600123,0.08720706114538555
21.77668,6.9321059492344475,0.08690400500345424
21.779068,6.937696734308855,0.08663848308833016
21.781448,6.948222886435876,0.08633500372827796
21.783844,6.955676002629841,0.08606101160865197
21.786228,6.969275190689917,0.08573498980453417
21.788608,6.982734609123133,0.08541642623673501
21.791004,6.994052157183071,0.08512124478364053
21.793392,7.007511575616288,0.08480417163973028
21.795772,7.021110763676364,0.08448257513915447
21.798176,7.035641117296218,0.08415757028330925
21.80056,7.054315442035766,0.08379410055069313
21.802944,7.07578326345465,0.08341651919502702
21.80534,7.093666192261279,0.0830506478046822
21.807728,7.113411452187465,0.08267647328101056
21.810108,7.131806237673294,0.08232526340538959
21.812504,7.142052850546593,0.08204295974130793
21.814892,7.150809219352673,0.08179107073440797
21.817288,7.166363286330921,0.081494872988572
21.819684,7.184571080361646,0.08119112127831249
21.822072,7.199705838459315,0.08091623740961053
21.824452,7.206552654317597,0.08071620501613277
21.826848,7.211397369429462,0.08053108894060931
21.829236,7.2110271782349935,0.08039442666254094
21.831616,7.214241879652778,0.08024687235706647
21.834012,7.208889099577454,0.08018604466216069
21.8364,7.2032567802484095,0.08013787275520055
21.83878,7.198136317598564,0.08010449958808492
21.841176,7.189523510135082,0.08011601306175714
21.843564,7.176347422671325,0.08018354374504325
21.84596,7.16088969520743,0.08027886861739078
21.848355999999995,7.145292198116678,0.08037934386748968
21.850744,7.1287635354661445,0.08048354415153071
21.853128,7.118613262107201,0.08056377194964481
21.855532,7.107112514307897,0.08066691493888112
21.857916,7.101338529494123,0.08073819746853314
21.8603,7.104224573972076,0.0807593584613372
21.862696,7.111114819942862,0.08075127427226117
21.865084,7.114000864420814,0.08077241290237779
21.867464,7.117957844085405,0.0807832558414808
21.869864,7.119633183749857,0.08082096289380734
21.872252,7.125312724907143,0.0808296500919244
21.874632,7.138721129796378,0.08079331321486641
21.877028,7.155342340245527,0.08072592939143755
21.879416,7.168238888455564,0.0806751961655389
21.881796,7.18248591110596,0.08060101533023624
21.884192,7.19994573931627,0.08049689613359613
21.88658,7.219035581220661,0.08035801450714183
21.88896,7.242409163871606,0.08017804145710196
21.891364,7.270346026522824,0.07994355860080914
21.893752,7.301495694733958,0.0796789017414703
21.896132,7.33436792443779,0.0794154198045636
21.898528,7.369242254888038,0.07913984811091315
21.900916,7.400531692726032,0.07887687865120199
21.9033,7.433311374631246,0.07858667206859508
21.905696,7.461854537618148,0.07830040743713512
21.908084,7.487092347246519,0.0780143023026452
21.910468,7.507953868329718,0.07773598761424427
21.912864,7.527372367173941,0.07744667082661727
21.915256,7.546279009338965,0.07714538001328841
21.917636,7.570959636317764,0.07677984492689262
21.920044,7.597270276990642,0.07638289968932391
21.922432,7.616131593185293,0.0760170229187674
21.924812,7.635272448633665,0.07564172554761046
21.927208,7.656043317776116,0.07523422457138448
21.929596,7.6820290932249,0.07479010658265124
21.931976,7.705361141621209,0.0743536833905355
21.934372,7.72804156371146,0.07391148756503087
21.93676,7.748208028376096,0.07346912282495623
21.93914,7.767862636361533,0.07301522988093002
21.941536,7.787145157294636,0.07254513149777232
21.943924,7.8023309289362865,0.07206864536766866
21.946308,7.814211347219405,0.07158778911089665
21.948704,7.825300369569605,0.071104299061974
21.951092,7.836529161546664,0.07061757172784718
21.953472,7.8485493494566425,0.07013435013814116
21.955868,7.859358832553122,0.06966541443720689
21.958256,7.873101581955797,0.06918363008132024
21.960636,7.890708763224445,0.06868734784866566
21.963032,7.906593383000397,0.06819237916330237
21.96542,7.918334031656654,0.06772673867224203
21.967812,7.927932809939635,0.06727816406670002
21.970208,7.93487786117014,0.06682786389585829
21.972596,7.940751977214007,0.06638685590915237
21.97498,7.949559359564069,0.0659366736883079
21.977384,7.951569043741963,0.0655140684101082
21.979772,7.950226152733082,0.06511862241899383
21.982152,7.9484639528436185,0.06474003681090326
21.984556,7.946561983327296,0.06436642997553693
21.98694,7.94489233123645,0.06401894564042086
21.989324,7.93851962951847,0.0637169276425911
21.99172,7.931448079666189,0.06344098945039048
21.994108,7.925679782426025,0.06318255995715427
21.996488,7.921913585932275,0.06291499723201868
21.998884,7.916005519065249,0.06266209968724083
22.001272,7.913961884064196,0.06239795328633376
22.003652,7.9085656738763666,0.06215937914492212
22.006048,7.900887823688403,0.06194061993521244
22.008436,7.8909283335003,0.06174190820640249
22.010816,7.879059290364397,0.0615821649943268
22.013216,7.870495600587028,0.06143219938963405
22.0156,7.865377033795051,0.06128670945769936
22.01798,7.8674282522275805,0.06113879647236301
