Time,Force,Position
4.71924,6.384186740526433,0.1437536684230215
4.721623999999999,6.413795151126367,0.1434830630837558
4.724004,6.44475403616666,0.1431743931019117
4.726400000000001,6.4703582452737605,0.1429789889660032
4.728788000000001,6.497964555127277,0.142744620197658
4.731184,6.52184620274168,0.1425688645911422
4.733580000000001,6.542282727370689,0.1424344705759616
4.735968000000001,6.561788086439922,0.1423181586332528
4.738347999999999,6.579291344762737,0.1422378051959311
4.740744,6.596282746406356,0.1421458696343109
4.743132,6.613413917676835,0.14204735672456
4.745512000000001,6.625377404469225,0.1420064326336334
4.747912,6.635338790515196,0.1420009253648333
4.752680000000001,6.654749705927944,0.1419791583834668
4.755076,6.666760414548576,0.1418964409154839
4.757459999999999,6.674394834624037,0.1418635232613134
4.759856,6.684450664326495,0.1417730139508065
4.762251999999999,6.690781831789841,0.1417339564105724
4.764639999999999,6.697951617014347,0.141647336563801
4.767024,6.709544912612268,0.1414704013304155
4.769428,6.719275877090633,0.1413186827957151
4.771816,6.730497085636216,0.141125299609674
4.774196000000001,6.744559012689377,0.1408499139770609
4.776592,6.762113284556174,0.1405011510705525
4.77898,6.776222433437579,0.1401832791787634
4.781364000000001,6.789400416759205,0.1398773681414657
4.78376,6.799924673028356,0.1396033843049519
4.786143999999999,6.813941274111143,0.139254704547077
4.788528,6.829168580007429,0.1388791632252349
4.790924,6.845606590717213,0.1384802925382921
4.793311999999999,6.862696227733055,0.1380844849311714
4.795692,6.880717030308677,0.1376773508024305
4.798088000000001,6.899948537697796,0.1372440496564494
4.800476000000001,6.91638654840758,0.1368478920507304
4.802855999999999,6.9314740846770055,0.1364884674911766
4.805252,6.947353016879349,0.136124242816951
4.80764,6.958156812402222,0.1358428174442217
4.810035999999999,6.976317384604702,0.1354345461616193
4.812432,6.993918878299742,0.1350596797744078
4.81482,7.007516170501948,0.1347493093532885
4.817200000000001,7.024466037890928,0.1343748553136472
4.819596,7.038994495652912,0.1340574698117407
4.821984,7.054314349347814,0.1337379821078353
4.824364,7.066840706363383,0.1334564785110191
4.826759999999999,7.0853733656182,0.1330852524340598
4.829147999999999,7.107118830432934,0.1326600783170056
4.831528,7.1277933600610295,0.1322528567840716
4.8339240000000006,7.142321817823016,0.1319423550753669
4.836312,7.154848174838583,0.1316619544523836
4.838691999999999,7.159645668122206,0.1314840736711542
4.841092000000001,7.161649664726491,0.131338667560166
4.843476,7.162070869464942,0.1312006820334808
4.845872000000001,7.164494174949808,0.1310343487947478
4.848268,7.167197019688396,0.1308528120178554
4.850656,7.171390108494202,0.1306313920782382
4.853039999999999,7.176933671740367,0.1303776711655738
4.855436,7.186900745359947,0.1300431214501337
4.857824,7.188859415993859,0.1298259267753858
4.860204,7.188164359575296,0.1296333540847133
4.884099999999999,7.059597506537441,0.1294668454539471
4.886488000000001,7.052104751946708,0.129362256955598
4.888884,7.051549465155006,0.1291608412509879
4.891279999999999,7.054067214296359,0.1289135314225752
4.893668000000001,7.048576560452046,0.1287797807308163
4.896052,7.042014971421093,0.1286636759917208
4.898447999999999,7.036105008696198,0.1285516502391891
4.900836000000001,7.029403650038384,0.1284424835175636
4.903216,7.021212047313353,0.1283725875565971
4.9056120000000005,7.0148827757078775,0.1282818924559779
4.908003999999999,7.011766309662319,0.1281379265662024
4.910384,7.01400451954995,0.1279061513426369
4.912780000000001,7.0146599375717456,0.1276799648484794
4.915168,7.015455125220402,0.1274453560129746
4.917547999999999,7.018531952869196,0.1271682181663379
4.919948000000001,7.026683917197462,0.1268145586849866
4.9223360000000005,7.036837982272145,0.1264334588531574
4.924715999999999,7.049925313653022,0.1260116599500251
4.927116000000001,7.0595203002202656,0.1256598954029847
4.9295040000000006,7.071257157160784,0.1252751078097864
4.931883999999999,7.083133783728164,0.1248835768550825
4.934284000000001,7.09128574805643,0.124535102055048
4.936668,7.092640014212527,0.1242726216692472
4.939051999999999,7.089850309248932,0.1240721344121447
4.941448,7.090273409845251,0.1238176325232482
4.943836,7.09684258230768,0.1234747850372775
4.946219999999999,7.098616157344358,0.1231892088081165
4.948616,7.097968322754038,0.1229524100039133
4.951004,7.100952602604215,0.122643588388419
4.953384000000001,7.10607875282767,0.1223009713382538
4.955784,7.111716759730319,0.121972397737138
4.958168,7.113350565140138,0.1216982022311274
4.960552000000001,7.115496227229154,0.1214350040340922
4.9629520000000005,7.118573054877947,0.1211613249255435
4.96534,7.124583148832936,0.1208547366146242
4.967720000000001,7.131664177974564,0.1205327412932222
4.9701200000000005,7.137534502302692,0.1202352593761463
4.972508,7.143684365884542,0.1199240938830763
4.974900000000001,7.149042833533474,0.1196138173567166
4.977296,7.15025733006271,0.1193624294811381
4.979679999999999,7.152542761778587,0.1190954401361797
4.98206,7.156410985360298,0.118824571130919
4.984456000000001,7.164143640807985,0.1185094687990179
4.98684,7.173738627375225,0.1181752456223712
4.989235999999999,7.188129211368219,0.1177897244398105
4.991636000000001,7.196233953868242,0.1174958553773004
4.99402,7.2049903226743215,0.1172045941890405
4.9964,7.2177508929732355,0.1168630369923949
4.998804000000001,7.224737478458376,0.1166244631326095
5.0011920000000005,7.22958219357024,0.1164184045530513
5.0035680000000005,7.231773181629627,0.1162327056552772
5.005964,7.2358265008085745,0.1160294630185286
5.008348000000001,7.244303330360934,0.1157571988186284
5.010727999999999,7.256504822152408,0.1154515339194476
5.013132,7.260558141331353,0.1152504673235556
5.015516000000001,7.265542626070078,0.1150422355058895
5.017896,7.27252921155522,0.1148111163374898
5.0203,7.282449063346555,0.1145500623099718
5.022688,7.296233347003865,0.1142493905632459
5.025068,7.312019731407592,0.1139247279011595
5.027468,7.325664245438041,0.1136310837720434
5.029856,7.339448529095351,0.1133322518761356
5.032236,7.354443517566159,0.1130145357061489
5.03464,7.369298736410109,0.1127037473133294
5.037028,7.381080919321,0.1124326915837327
5.039408000000001,7.396075907791808,0.1121176549593458
5.041811999999999,7.419358838502006,0.1117027957218027
5.044196,7.441570834025564,0.1113054543614482
5.046572,7.46513330398948,0.110877871195067
5.048979999999999,7.490558105072954,0.1104351859175654
5.051364,7.513841035783152,0.1100189838152238
5.053743999999999,7.535121865746929,0.1096260326575288
5.056147999999999,7.55491245164349,0.1092722946553523
5.0585320000000005,7.571909540860712,0.1089442240741847
5.060911999999999,7.595052701944047,0.1085433631299972
5.063312000000001,7.614843287840607,0.1081928059015551
5.065696,7.631840377057831,0.1078663995981497
5.0680760000000005,7.64441395590164,0.1076041300517137
5.070480000000001,7.653402642133196,0.1073657367721237
5.072868000000001,7.663042954670811,0.1071335746669729
5.075247999999999,7.676035842395202,0.1068548183394599
5.077652,7.688097564559815,0.1065844063994527
5.08004,7.692942279671678,0.1063962260129883
5.08242,7.701419109224038,0.1061493554150063
5.084815999999999,7.711246413216758,0.1058771532212238
5.0872,7.718792077209338,0.10563864666851
5.089583999999999,7.718329338216252,0.1054830297087323
5.09198,7.718006368850024,0.1053215347671526
5.094368,7.719965039483937,0.105127601343049
5.096744,7.72113231418493,0.1049345638768761
5.099144,7.729376826311812,0.1046697021519253
5.101527999999999,7.7377611080655555,0.1043981192282067
5.103912,7.741489562020408,0.104160079666437
5.106307999999999,7.74400731116176,0.1039411900108021
5.1086920000000005,7.745454125116475,0.1037363493146809
5.111088,7.746249312765131,0.103524863303951
5.113492,7.748906831533343,0.1033002405436851
5.115875999999999,7.752775055115055,0.1030560885401646
5.118256,7.761159336868798,0.1027858099967155
5.12066,7.767169430823787,0.102516520964896
5.123048,7.770618345524917,0.1022926959210008
5.125428,7.774067260226049,0.1020691419676592
5.127832000000001,7.7883180745921825,0.1017500051143994
5.13022,7.798005608958042,0.1014955496578331
5.132599999999999,7.805131964070043,0.1012850606224274
5.135004,7.814539959182181,0.1010436757991738
5.137391999999999,7.823947954294319,0.1008010671817883
5.139772,7.829491517540485,0.1005898167130315
5.142176,7.833824375973151,0.1003980413315552
5.144559999999999,7.841230270338872,0.1001765114393082
5.146944,7.840487992092067,0.100035510163744
5.14934,7.841468275337958,0.0998883734318284
5.151727999999999,7.847383925636461,0.0996981866537948
5.154108,7.857723086308377,0.0994540802343309
5.156503999999999,7.864197815114322,0.0992400633018752
5.158892000000001,7.8777497813461554,0.0989611984045317
5.161271999999999,7.8903705820182095,0.0986893290680869
5.163668,7.901408590824428,0.0984169533757127
5.166056,7.909653102951311,0.0981639175512864
5.168436000000001,7.921482507690449,0.0978941354669967
5.170839999999999,7.932660286123525,0.0976179864977834
5.173224,7.942767129369966,0.09735368169023
5.175608,7.946355813697956,0.0971318874963222
5.1780040000000005,7.94901333246617,0.0969149688067549
5.180392,7.953952491234521,0.0966686549474918
5.182768,7.95982281556265,0.0964181500789583
5.185172000000001,7.968626406196974,0.0961447180012445
5.18756,7.981154659070411,0.0958481736043132
5.189939999999999,7.994334538249906,0.0955586748767041
5.192340000000001,8.00122857593643,0.0953329687548732
5.194724,8.013197750302428,0.0950603657730515
5.197107999999999,8.024235759108645,0.094794034661451
5.199512,8.032060962354947,0.0945630109516557
5.2018960000000005,8.033460554481419,0.0944011712492025
5.20428,8.038584808847004,0.09421690447229
5.206676000000001,8.034489955413422,0.0941181488631168
5.209064000000001,8.029463936420061,0.0940247140175042
5.211443999999999,8.029093745225593,0.0939042221905466
5.213848,8.026581683657847,0.0938061776537967
5.216235999999999,8.021136355783907,0.0937302675920347
5.218616,8.019136150895358,0.0936448682526406
5.221016,8.020069212313008,0.0935377734668069
5.223404,8.019651799290294,0.0934533815558652
5.225784,8.024449292573916,0.0933192360989749
5.228184,8.027524224364841,0.09318997195056
5.230568000000001,8.026315415409213,0.093105146707794
5.232952,8.02603777201336,0.093015467105029
5.235344,8.026039667871231,0.0929144103118647
5.237732,8.023108297422905,0.092834387137386
5.240112000000001,8.023389732534495,0.0927211679231422
5.2425120000000005,8.022460462832587,0.0926249107774098
5.2449,8.022741897944176,0.0925120857472188
5.247280000000001,8.024094268242402,0.0923882476278716
5.249676,8.030521775220103,0.0922213810098858
5.252064,8.035878347011165,0.0920657093452959
5.254444,8.047380990668337,0.0918559566785139
5.25684,8.05846432544493,0.0916632374923556
5.259227999999999,8.065263919474967,0.0915148504160096
5.261608,8.074065614251422,0.091350135185987
5.264008,8.083798474587654,0.0911802947433059
5.266395999999999,8.089946442311634,0.0910253703200192
5.268776,8.091019273356144,0.0909129647559014
5.271171999999999,8.097027471453263,0.0907640750544394
5.273560000000001,8.095678892870776,0.0906850770340413
5.275944,8.097775437273677,0.0905980673688509
5.278339999999999,8.106018053542691,0.0904587386670583
5.280728000000001,8.109325302759093,0.0903554835828393
5.283124,8.1084885808558,0.0902890873367968
5.285528,8.107140002273312,0.0902098041717475
5.287912,8.106582819623739,0.0901315106588876
5.290292,8.109238442534084,0.0900215451117054
5.292696,8.108681259884511,0.0899434826263646
5.29508,8.1070531420483,0.0898759953936363
5.29746,8.104493858652313,0.0898135062547478
5.299864,8.103145280069823,0.0897347849221207
5.302248,8.100446227046973,0.0896782097653529
5.304628,8.10189114514382,0.089585857928361
5.3070200000000005,8.103475832867524,0.0894875275958078
5.309404,8.105851916524148,0.08939036541545
5.311784,8.109159165740552,0.0892887224124275
5.314188000000001,8.111255710143451,0.0892028298467518
5.316572,8.11642529047941,0.0890908985081428
5.318952,8.118382065255455,0.0890107596965988
5.321356000000001,8.128347243017165,0.0888701393488251
5.3237440000000005,8.135518924099541,0.0887443157358273
5.32612,8.135753137382887,0.0886682708875447
5.328524000000001,8.141853883278625,0.0885532739056437
5.3309120000000005,8.154472788092809,0.0884062720004984
5.333291999999999,8.171467981452166,0.0882476409190611
5.335684,8.186321304438243,0.0881095627436697
5.338072,8.197030656304628,0.0880075209135033
5.340468,8.213466771156542,0.0878731359635282
5.342860000000001,8.231904986754877,0.0877242053726632
5.345248000000001,8.250063663099487,0.087587363272673
5.347627999999999,8.269013735377017,0.0874528773485421
5.350024,8.285170310975213,0.0873314668042992
5.352408,8.298393620267213,0.0872298546538255
5.354804000000001,8.313619030305631,0.0871140086421665
5.357207999999999,8.331126080344184,0.0869740823176987
5.359592,8.34742242556924,0.086849788625556
5.361972000000001,8.367862741913989,0.0866917814884995
5.364372,8.390025619751434,0.0865314424720859
5.36676,8.412607806469461,0.0863547201688356
5.369140000000001,8.428392295015318,0.0862194631748823
5.371543999999999,8.444828409867235,0.086091190451966
5.373928,8.463778482144765,0.0859601704937787
5.376308000000001,8.476722252183045,0.0858715215694739
5.378699999999999,8.48608112960907,0.0857950525783479
5.381087999999999,8.49851304296815,0.08569630614696
5.383463999999999,8.516020093006706,0.0855613011639549
5.38586,8.535389474164816,0.0854180502668569
5.388243999999999,8.549963257897174,0.0853015326217627
5.39064,8.565328437562453,0.0851870353149366
5.39304,8.576689415734895,0.0850990293226343
5.395428,8.584046192414505,0.0850381303215834
5.397804,8.591263199467253,0.0849821857768022
5.400200000000001,8.598200667266282,0.0849370795721933
5.402584,8.60620907025195,0.0848829044010947
5.404967999999999,8.612727229170396,0.084854779981598
5.407372,8.620456092902343,0.0848120033263376
5.409756000000001,8.625251690328097,0.0847867583072646
5.414532,8.627905417380571,0.0847801687426662
5.41692,8.635214972231937,0.0847538200473634
5.419312000000001,8.64001056965769,0.0847286425852011
5.421712,8.644294310404243,0.0846913322098381
5.424096,8.655375749322966,0.084615572983108
5.426476,8.667528123428328,0.0845309110341455
5.42888,8.674884900107939,0.0844719706764091
5.431268,8.67544397861538,0.084450851764646
5.433648000000001,8.674140726003262,0.0844374624232963
5.436051999999999,8.672837473391148,0.0844240559838072
5.438436,8.66808909779364,0.0844155351680592
5.44082,8.670557729248879,0.0843535904418107
5.4432160000000005,8.679172432570232,0.0842478280000889
5.4456,8.693933207757693,0.0840986951951143
5.44798,8.707902587012239,0.0839477838829794
5.450384000000001,8.71586566402753,0.0838352948540573
5.452772,8.72024384843057,0.0837327857369221
5.455151999999999,8.726763903206889,0.0836129397777211
5.457555999999999,8.735006519475903,0.0834908565551135
5.4599400000000005,8.74818450279753,0.0833398814664895
5.462319999999999,8.758988298320402,0.0831843446990727
5.464716,8.767789993096855,0.0830423681637239
5.467104,8.779385184552646,0.082889231660761
5.4694840000000005,8.791911541568213,0.0827323662105565
5.471888000000001,8.79978207078489,0.0825946895650067
5.474272,8.807512830374705,0.0824627448989347
