Time,Force,Position
4.161607999999999,6.42480778210686,0.1538432622527696
4.163988,6.44496666334002,0.1535741339347292
4.16638,6.464054609386541,0.1533263315221026
4.168768,6.47941789319395,0.1531413202261989
4.171147999999999,6.496131651441716,0.1529154899704594
4.173544,6.514195884129841,0.1526494401159882
4.175927999999999,6.526393584205576,0.1524887995498429
4.178308,6.533655917228699,0.1524206180654198
4.180704,6.542640811744518,0.1523311272947801
4.183088,6.553488037379895,0.1522109792292804
4.185483999999999,6.56526642857505,0.1520761072492755
4.187887999999999,6.573180387904231,0.152011614621577
4.190275999999999,6.581513656113993,0.1519221167208992
4.192656,6.589567385070034,0.1518501440040688
4.19506,6.5996232147724925,0.1517428302409239
4.197448,6.611029518915309,0.1515965871061441
4.199828,6.622296053431266,0.1514588447063744
4.202232,6.6357044583205,0.1512744496688637
4.204616,6.648973093582875,0.1511011541474289
4.206996,6.664802908099106,0.150857504186828
4.209391999999999,6.677839225936004,0.1506589649721141
4.211776,6.683565988921534,0.1505669280818552
4.214155999999999,6.6969290678403945,0.1503151522968521
4.216552,6.711782390826473,0.1500183904009108
4.218935999999999,6.729057123439549,0.1496662930603677
4.221316,6.7472630216124045,0.1493038022869721
4.22372,6.775898732397925,0.1487469411954484
4.226103999999999,6.808818183929998,0.1481018486649797
4.228484,6.841086009156015,0.147458734633119
4.230888,6.874983848076109,0.1467689183356323
4.233272,6.907159125503509,0.1460980893596512
4.235652,6.937611841438212,0.1454432668364514
4.238047999999999,6.964060355880081,0.144854479952537
4.240432,6.990136783269612,0.1442494119393255
4.290616,6.8599947217973964,0.1437857119367392
4.292995999999999,6.855573107281851,0.1437570687862559
4.295396,6.851570801646886,0.1437051634923553
4.29778,6.852503863064533,0.1435764809661317
4.30016,6.853436924482183,0.1434478699681868
4.302555999999999,6.858653726646383,0.1432398716655309
4.304943999999999,6.86694356474364,0.1429797065034
4.30734,6.872300136534702,0.1427628406108068
4.309735999999999,6.881381370564878,0.142494648326781
4.31212,6.89288401422205,0.1421692907007286
4.314499999999999,6.903595261946305,0.1418466181005788
4.316896,6.9129560352302,0.1415585003812463
4.319279999999999,6.927531714820426,0.1411729650316478
4.321676,6.943318099224152,0.1407624161193907
4.324071999999999,6.956822843627741,0.1403995006446456
4.326456,6.973959702471826,0.1399526760306643
4.328835999999999,6.988303064636575,0.1395435782683046
4.331239999999999,6.998781994935352,0.139194952508677
4.333627999999999,7.00791045079377,0.1388845735066736
4.336008,7.016759367398468,0.1385889229352576
4.338412,7.026399679936082,0.1382911495122629
4.340795999999999,7.031896021354004,0.1380678528150617
4.343176,7.04018585945126,0.1378105559521241
4.345571999999999,7.042329625682405,0.1376558309886087
4.347959999999999,7.042611060793994,0.1375244811697127
4.350339999999999,7.040890395159165,0.1374246809332063
4.352744,7.041171830270756,0.1372946793559671
4.355127999999999,7.046248862808096,0.1370991028309037
4.357512,7.052676369785795,0.1368701895571785
4.359904,7.061897373442831,0.1366087604043109
4.362292,7.077404218592836,0.1362443861315677
4.364671999999999,7.098265739676034,0.1357883696403033
4.367068,7.121129361505649,0.135308027227368
4.369456,7.143853213708405,0.134840392992761
4.371848,7.169789871471075,0.134317542268931
4.374243999999999,7.192653493300691,0.1338448780039377
4.376631999999999,7.218590151063362,0.133325616489103
4.379007999999999,7.244526808826033,0.1328049680477727
4.381404,7.268880674722869,0.1322921801801824
4.383787999999999,7.297238742112537,0.1317246270201821
4.386184,7.322523773569151,0.1312055370921881
4.388588,7.3488797402124035,0.1306706880287632
4.390976,7.370020800549322,0.1302192285921358
4.393355999999999,7.396376767192575,0.1296879355018369
4.395759999999999,7.425666000142022,0.1291178686225309
4.398144,7.453884297904829,0.1285655507164307
4.400523999999999,7.478098394174804,0.1280729478445121
4.40292,7.499518993765443,0.1276130787800297
4.405308,7.517726787796167,0.1272056078892897
4.407688,7.528205718094945,0.1268943054373363
4.410084,7.530396706154335,0.1267087850983003
4.412467999999999,7.531376989400226,0.1265491038948157
4.414847999999999,7.528492840780142,0.126437070822001
4.450699999999999,7.37720592725527,0.1264355080827388
4.453092,7.371481060127607,0.1263907450469391
4.455475999999999,7.375487157478311,0.1262295198599035
4.457856,7.38242652113521,0.1260309127910728
4.460251999999999,7.384290748112636,0.125901498372248
4.462636,7.383873335089925,0.1258119572716643
4.465031999999999,7.388670828373546,0.1256453243642999
4.467428,7.397612292776861,0.1254199024163471
4.469816,7.403340951620261,0.1252456352921669
4.472196,7.414004977516272,0.1250110836914481
4.474592,7.423877607479364,0.1247799645583335
4.476979999999999,7.436963043002374,0.1245012114237068
4.47936,7.450328017779103,0.1242080421056794
4.481764,7.463553222928971,0.1239208706365731
4.484152,7.479152615877596,0.123625641124772
4.486532,7.492889677706663,0.1233500556539508
4.488935999999999,7.509979314722505,0.1230188969581654
4.49132,7.5219938150588765,0.1227563855397237
4.493703999999999,7.53335668908919,0.1224902689718855
4.4961,7.543788397559723,0.122232102569784
4.498484,7.556361976403534,0.1219441671005236
4.500864,7.568144159314426,0.1216609246463967
4.503259999999999,7.573920039986068,0.1214543072410368
4.505644,7.583839891777405,0.1211927751131437
4.508039999999999,7.596832779501797,0.120889461426742
4.510436,7.613969638345883,0.1205288358013743
4.512824,7.627893691630053,0.1202167016005835
4.515208,7.638744708981167,0.119947237832875
4.5176,7.647873164839585,0.1196880564436987
4.519988,7.654487663272389,0.119444580043115
4.522368,7.658029125772137,0.1192398016528229
4.524763999999999,7.655284746778915,0.1191206607181323
4.527148,7.658267130771222,0.1189435428160693
4.529544,7.667395586629641,0.1186902113908301
4.531943999999999,7.676151955435722,0.1184197182207065
4.534328,7.686630885734498,0.1181392597664879
4.536707999999999,7.695759341592917,0.1178879709877355
4.539104,7.707169437451473,0.1175997809046259
4.541487999999999,7.721512799616224,0.1172823382660327
4.543884,7.7400001329006685,0.1169127970418037
4.546279999999999,7.749547897639668,0.1166427002083672
4.548663999999999,7.75681402237853,0.1164091134381442
4.551048,7.767572491931027,0.1161192551347428
4.553443999999999,7.776328860737107,0.1158545620521853
4.555831999999999,7.787227099916464,0.1155622806404009
4.558211999999999,7.797054403909183,0.115285259159169
4.560608,7.806881707901903,0.1150073769349644
4.562996,7.816429472640902,0.1147426093915183
4.565375999999999,7.828770734059236,0.1144537269124028
4.567779999999999,7.839621751410351,0.1141995098953269
4.570167999999999,7.8574102365604945,0.1138716917478423
4.572547999999999,7.882927585442585,0.1134678428195803
4.574952,7.89950536577923,0.1131616285312203
4.577335999999999,7.907143577570429,0.112952303106084
4.57972,7.912500149361492,0.1127773467128679
4.582115999999999,7.914923454846358,0.1126319967143014
4.5845,7.919348861077642,0.1124653386229968
4.586879999999999,7.924146354361263,0.1123167219582962
4.589279999999999,7.921726840592136,0.1122536802577389
4.591664,7.915023586076453,0.1122467772297029
4.594047999999999,7.918051296039134,0.1121436419912985
4.596447999999999,7.925083207494649,0.1119975401655255
4.598836,7.92755183894989,0.11192028243621
4.601215999999999,7.927878600031854,0.1118709704433201
4.603612,7.924852785927042,0.1118697248453285
4.606,7.922758137382009,0.1118608609182697
4.608395999999999,7.92373652477003,0.1118168628114492
4.610792,7.926856782531328,0.1117455780125672
4.61318,7.929185644359709,0.1116756810737853
4.61556,7.930583340628312,0.1116131104204151
4.617963999999999,7.930910101710275,0.111564699885775
4.620348,7.926720804620207,0.1115463004402485
4.622728,7.930539910515807,0.1114458425513533
4.625131999999999,7.940085779396938,0.1112957491521857
4.627519999999999,7.9516337490244835,0.111124592137676
4.629899999999999,7.967185920144863,0.1109124465193856
4.632304,7.979525285705328,0.110740923937704
4.634691999999999,7.988419528280399,0.1105853034995139
4.637072,8.003739381975302,0.1103487224982577
4.639467999999999,8.024274141976537,0.1100520439614085
4.641852,8.040944470111798,0.1097927468497314
4.644231999999999,8.049885934515114,0.1096022851402055
4.64664,8.06376276597104,0.109364247741968
4.649023999999999,8.079641698173385,0.1091059864035066
4.651403999999999,8.097010874442947,0.1088158946809021
4.653803999999999,8.11545098589915,0.1085146449168319
4.656191999999999,8.128955730302737,0.1082607201425083
4.658572,8.139387438773273,0.1080407226309847
4.660967999999999,8.14753750724367,0.1078525689442619
4.663356,8.15475641015429,0.1076706163267733
4.66574,8.157179715639156,0.1075304602203081
4.668132,8.162256748176496,0.1073757809873555
4.67052,8.159325377728171,0.1073014180058881
4.6729,8.15360051060051,0.1072478950485171
4.675296,8.149737974592405,0.1071805609123945
4.677683999999999,8.144804503397662,0.1071261715236438
4.680068,8.14122150664328,0.1070467459771879
4.682464,8.144296438434202,0.1069138327384935
4.684847999999999,8.148022996531184,0.10678739336949
4.687232,8.151749554628166,0.106662277866736
4.689627999999999,8.158688918285065,0.1065008998384184
4.692015999999999,8.17321737604705,0.1062814929238898
4.6944,8.183090006010143,0.1060949104696599
4.696795999999999,8.196035671906293,0.1058794415926528
4.69918,8.207630863362084,0.1056879087623189
4.701575999999999,8.219226054817874,0.1054980265186
4.703972,8.234825447766495,0.1052710993902883
4.70636,8.24949367515534,0.10504935646498
4.708739999999999,8.267095168850382,0.1048022890674463
4.711136,8.289352490344312,0.1045240730958752
4.713519999999999,8.314263538890717,0.1042324741613692
4.715904,8.33610155150407,0.1039720293599169
4.718299999999999,8.363014700796892,0.1036610457034001
4.720684,8.389788080462857,0.1033550871216462
4.72308,8.416701229755681,0.1030461742874951
4.725475999999999,8.441612278302088,0.1027559200589747
4.727864,8.466243787594776,0.1024778118288842
4.730248,8.484868994648211,0.1022557401560383
4.732643999999999,8.496277194648899,0.1021059467017375
4.735032,8.502330718716392,0.1020166766136406
4.737411999999999,8.505031667597109,0.1019696449375738
4.739808,8.50573051573141,0.101940832186889
4.744576,8.509642169425625,0.1018766912841175
4.746972,8.512063579052622,0.101841876347853
4.749359999999999,8.511411952746565,0.1018363982861569
4.751756,8.512622657560064,0.1018191935659034
4.754152,8.51583546311998,0.101784504115028
4.756535999999999,8.51625477200056,0.1017674271128101
4.758915999999999,8.518304094575221,0.1017165955166868
4.76132,8.519562021216963,0.1016659769676949
4.763707999999999,8.522170422299064,0.1015926705391771
4.766088,8.524639053754305,0.1015252545613164
4.768483999999999,8.530040951515742,0.1014352905054443
4.770868,8.53465145334426,0.1013460154890226
4.773247999999999,8.539261955172774,0.1012564875768831
4.775651999999999,8.544943392187932,0.1011559317421175
4.778039999999999,8.554768800322782,0.1010162366758995
4.78042,8.56594468289799,0.1008521462800957
4.782816,8.57861080954042,0.1006589209671231
4.785204,8.587272734690014,0.1004989540792373
4.787583999999999,8.596214199093328,0.1003282915414946
4.789987999999999,8.597147260510976,0.1002263350685894
4.792372,8.602224293048318,0.1000837791871042
4.794751999999999,8.604228289652603,0.0999705685306361
4.797155999999999,8.608094617376446,0.0998458071452166
4.799543999999999,8.61089000991365,0.0997333074089703
4.801924,8.612754236891076,0.0996264298243173
4.804328,8.620764535734612,0.0994636683336234
4.806716,8.620347122711902,0.0993852893493663
4.809096,8.61978994006233,0.0993125200136799
4.811491999999999,8.623097189278731,0.0992124250339011
4.813875999999999,8.624542107375577,0.0991234295638273
4.81626,8.626126795099282,0.0990293965715891
4.818655999999999,8.623287972449571,0.0989847007141143
4.82104,8.624732890546415,0.0988963113969033
4.823435999999999,8.623244542337062,0.0988296088610369
4.825832,8.61789176226174,0.0987900040157425
4.828215999999999,8.623620421105137,0.0986591738196325
4.830596,8.630140475881452,0.0985285245707646
4.832991999999999,8.642946372150742,0.0983382900502337
4.835379999999999,8.65375016767361,0.0981644517217995
4.837759999999999,8.671770970249232,0.0979252025688844
4.840164,8.688441298384493,0.0977082597627458
4.842552,8.703389065027059,0.0974959214900811
4.844932,8.715822874244006,0.0972884520234254
4.847332,8.723321316408345,0.0971183303420107
4.84972,8.73268208969224,0.0969377407272064
4.8521,8.735757021483165,0.0968169577776361
4.854504,8.742184528460864,0.0966573715984582
4.856892,8.745818538759227,0.0965132151744011
4.859271999999999,8.739442045325507,0.0964502249474813
4.861675999999999,8.735859048571124,0.0963711707307131
4.86406,8.729482555137402,0.0963080530264708
4.866444,8.728460737636876,0.0961906446400584
4.868839999999999,8.723015409762935,0.096122167732995
4.871228,8.719572182635412,0.0960374921521766
4.873607999999999,8.719853617747,0.0959317249953909
4.88794,8.652165654568376,0.0959178279015054
4.890343999999999,8.643088212253938,0.0958967424305781
4.892728,8.637735432178612,0.095855434900694
4.895107999999999,8.636806162476704,0.0957668555119542
4.897516,8.634805957588155,0.0956887818618905
4.899903999999999,8.638300198259659,0.0955535782624351
4.902279999999999,8.645519101170278,0.0953992504058722
4.904684,8.655811040013953,0.0952188593083173
4.907071999999999,8.67518231702993,0.0949660797508758
4.909455999999999,8.689897766247018,0.0947380221764577
4.911852,8.705544381023886,0.0945052118210786
4.91424,8.716115859121281,0.0943133890702102
4.916615999999999,8.728037811659034,0.0941001702627551
4.919024,8.740239303450508,0.0938765329188834
4.921412,8.750718233749284,0.0936581610056143
4.923788,8.757984358488146,0.0934693088155602
4.926195999999999,8.767392353600284,0.0932604729631928
4.928583999999999,8.779221758339423,0.0930212516152318
4.930964,8.796126299758031,0.0927435007501938
4.933368,8.817454351550053,0.0924211631434696
4.935751999999999,8.836360993715079,0.0921304186836642
4.938132,8.850052729573772,0.091884345776523
4.940527999999999,8.85866932875299,0.0916777819805582
4.942916,8.863933352745438,0.0915068646416372
4.945295999999999,8.87161878636488,0.0913059088531783
4.947692,8.87380977442427,0.0911606185578384
4.95008,8.868271898751711,0.0910627783697179
4.95246,8.863665188638933,0.0909603476028542
4.954863999999999,8.857987543339513,0.0908680778135401
4.957251999999999,8.857105495465849,0.0907478727743383
4.959631999999999,8.855012742778683,0.0906426536475308
4.962036,8.859717688263688,0.0904956174652461
4.964419999999999,8.86656450412197,0.0903298727729577
4.966804,8.876856442965645,0.0901582043917488
4.969199999999999,8.887148381809316,0.0899868836214806
4.971587999999999,8.906659428452157,0.0897457548921938
4.973967999999999,8.926450014348717,0.0894965348351642
4.976364,8.94489012580492,0.089268785387861
4.978752,8.95690462614129,0.0890977926349471
4.981131999999999,8.965566551290884,0.0889606619496343
4.983528,8.97343708050756,0.0888220663348225
4.985916,8.987872990470926,0.0886230901278348
4.988296,9.007244267486907,0.0883929236951054
4.9907,9.03234230748842,0.0881337474259701
4.993088,9.056881268982488,0.0878971646670819
4.995467999999999,9.08062883454364,0.0876576262336235
4.997864,9.113967594956293,0.0873671956788052
5.000252,9.149168686488506,0.0870713719992334
5.002632,9.177572079848549,0.0868132848841871
5.005027999999999,9.204113142089032,0.0865647965914206
5.007415999999999,9.231585369889295,0.086311915735083
5.009796,9.255332935450449,0.0860771641482656
5.012195999999999,9.275727925824825,0.0858754050541317
5.014583999999999,9.28974452690761,0.0856966291733279
5.016964,9.303621358363536,0.0855231969454117
5.019364,9.310560722020432,0.0853927794749357
5.021751999999999,9.314287280117416,0.0852891510392764
5.024132,9.315220341535063,0.0851968264497969
5.026527999999999,9.31857481257971,0.0850766853482974
5.028912,9.3212776573183,0.0849502607248764
5.031295999999999,9.329707265042416,0.0847966321022443
5.033692,9.335855232766397,0.0846665086170908
5.036076,9.341351574184316,0.0845308331923533
5.038471999999999,9.342331857430208,0.0844089222612404
5.040875999999999,9.340937952877344,0.0842832512617444
5.043263999999999,9.347552451310149,0.0841098759782525
5.045639999999999,9.347648790824504,0.0839619089471618
5.048036,9.343740928846028,0.083837929234878
5.050424,9.349564031345912,0.0836646913370267
5.052804,9.357109695338496,0.0834899533220712
5.055199999999999,9.365074668211658,0.0833009123974246
5.057587999999999,9.37303964108482,0.0831121454215029
5.059972,9.382866945077538,0.0829165637230221
5.062367999999999,9.39627914168251,0.0827119705718989
5.064752,9.410762273474122,0.0824997126321444
5.067136,9.428178671571928,0.0822725503284919
5.069528,9.445315530416012,0.082054488500781
5.071916,9.464314720379654,0.0818293226209214
5.074316,9.48317414071644,0.0816093895377051
5.076708,9.50189379142636,0.0813941217391416
5.079096,9.516888779897169,0.0811937888589693
5.081472,9.52960212836784,0.0810146546978643
5.083876,9.54338641202515,0.0808287572938381
5.086264,9.557170695682462,0.0806427884037645
5.088644,9.569604504899411,0.0804741027022602
5.09104,9.575100846317332,0.0803433191815229
5.093423999999999,9.58325091478773,0.0802077065184475
5.09582,9.593822392885125,0.0800468544055245
5.098215999999999,9.598667107996988,0.0799106959286301
5.100603999999999,9.601929031243015,0.0797717352689143
5.102983999999999,9.606122120048823,0.0796300759765471
5.10538,9.611106604787548,0.0794903627136699
5.107764,9.614648067287296,0.079342709485581
5.110144,9.619400234600542,0.0791833059617322
5.112535999999999,9.62308146672715,0.0790318570422321
5.114924,9.622758497360929,0.0789014215702652
5.117315999999999,9.62457739836798,0.0787556757834282
5.119712,9.626536069001892,0.0786053374609065
5.1221,9.63170754519572,0.0784328838969565
5.12448,9.640091826949462,0.0782382566933757
5.126875999999999,9.647405173516564,0.0780511493129089
5.12926,9.65727969933753,0.0778352697745406
5.131656,9.66193931885216,0.0776522891517258
5.13406,9.669252665419265,0.0774658012985134
5.136448,9.678568112732783,0.0772686610801756
5.138828,9.693750092658696,0.077046148508335
5.141223999999999,9.706278345532132,0.0768274517075033
5.143608,9.716664728032294,0.0766240841042962
5.145987999999999,9.725980175345816,0.076427679861011
5.148391999999999,9.731011881912783,0.0762602707196656
5.150779999999999,9.73669521478581,0.0761001001815912
5.15316,9.73972482060636,0.0759434736818643
5.155555999999999,9.745547923106244,0.0757791360432255
5.157943999999999,9.750300090419492,0.0756228294646879
5.160319999999999,9.755192027359602,0.0754620639082999
5.162716,9.76515910097918,0.075274307732123
5.165104,9.775825022733065,0.0750645968542157
5.167499999999999,9.788353275606498,0.0748505279671281
5.169896,9.793804291054046,0.0746726776141276
5.172279999999999,9.7939006305684,0.0745302950219956
5.174659999999999,9.7921346389632,0.074392503883527
5.177056,9.7891579425445,0.0742665513327743
5.179444,9.790185447618631,0.0741211812345418
5.181823999999999,9.787767829707374,0.0739767636846311
5.184224,9.788702786982892,0.0738072594326746
5.186608,9.780837945339824,0.0736733005986013
5.188988,9.773764499629674,0.0735410779269245
5.191388,9.767622219479303,0.07340626213421
5.193771999999999,9.766415306381544,0.0732504053027823
5.196171999999999,9.77242540033653,0.073054938455499
5.198563999999999,9.774850601679267,0.0728646360776784
5.200951999999999,9.77806719895492,0.0726760545556181
5.203332,9.7791419258573,0.0725018019552954
5.205727999999999,9.77714361682662,0.072343568806028
5.208112,9.773143207049522,0.0721943160655445
5.210495999999999,9.769003027645567,0.0720501264877754
5.212892,9.762161899360894,0.0719375671261065
5.215275999999999,9.752667044023744,0.071827263204303
5.217672,9.748387094992932,0.0716873505847502
5.220068,9.752255318574644,0.071507432577021
