Time,Force,Position
3.559888,6.251839127740829,0.1611894141560853
3.562284000000001,6.258823817368102,0.161000746200393
3.5646720000000007,6.265948276622233,0.160803561448761
3.5670519999999994,6.276797398115479,0.1605408386969484
3.569456,6.291650721101557,0.1601967256121172
3.571844,6.307947066326612,0.1598450365700086
3.574224,6.320378979685693,0.1595681993346717
3.5766280000000004,6.332671123417915,0.1593023895428744
3.579012,6.343240705657441,0.1590587490873667
3.581392,6.352879122337187,0.1588320485713678
3.583788000000001,6.36573034457685,0.1585271403428858
3.586176000000001,6.377091322749292,0.1582756004806604
3.588556,6.391385567227932,0.1579670360959235
3.59096,6.406890516520068,0.157625221599946
3.593348,6.424257796931763,0.1572586118202171
3.5957280000000003,6.4396229765970405,0.1569288736442769
3.598132000000001,6.446188357343733,0.1567702835137795
3.6005200000000004,6.454104212530782,0.1565690108422541
3.602900000000001,6.462159837344693,0.1563623883603831
3.605304,6.463697303240155,0.1562669063377247
3.607688000000001,6.466864782829696,0.1561121795740633
3.610068000000001,6.471242967232735,0.1559240387111686
3.612464,6.479206044248029,0.1556844484119742
3.614848,6.48344445902421,0.1555069327495546
3.617232,6.486891477867473,0.1553382554467497
3.619624000000001,6.492480367084011,0.155123107082682
3.6220120000000007,6.503144392980023,0.154808450652252
3.624392,6.512737483689395,0.1545180657774424
3.626792000000001,6.52740571107824,0.1541293605667352
3.629176,6.538349276227971,0.1537971553758683
3.631572000000001,6.552086338057039,0.153422969392836
3.633976,6.568105039886242,0.1529959511507624
3.636364,6.580119540222613,0.1526447939413608
3.638744,6.590271709439427,0.1523235317222872
3.641140000000001,6.593206871603492,0.1521476090896225
3.643524,6.604010667126364,0.1518308943233762
3.6459040000000007,6.6236142615678215,0.151357145406865
3.6483,6.643869482315336,0.1508880292795465
3.650688,6.655976530450324,0.1505750390959905
3.653068,6.672879176011063,0.1501825007780332
3.655472000000001,6.693366714184055,0.149746163423542
3.657856,6.714785417916826,0.1492973233590849
3.660236,6.729546193104288,0.1489573277083542
3.6626280000000007,6.746960695344224,0.1485824811178978
3.665016000000001,6.757949586464329,0.1483409851430756
3.667408000000001,6.764003110531821,0.1481868775608436
3.669804,6.764701958666121,0.1481456004687561
3.672192,6.767542677173699,0.1480598408584465
3.674568,6.768241525308,0.1480190955885587
3.676972,6.778671337920665,0.1478163666948212
3.679356,6.788309754600412,0.1476220913169162
3.681736,6.793012804227548,0.1475115760990697
3.684132000000001,6.8009286594145975,0.1473359784456051
3.686516,6.8076338097881495,0.1471890648984316
3.688912000000001,6.819693636094894,0.1469327536166692
3.7104120000000007,6.778454187358142,0.1468240269556372
3.712808,6.772217463551283,0.1467823446388993
3.715192000000001,6.769193545304342,0.1466747236275461
3.739052,6.663716943947971,0.1466442964486875
3.741448000000001,6.657899529021693,0.146576673154509
3.743832,6.657157250774887,0.1464183343738061
3.7462120000000008,6.657206368460999,0.1462555107991049
3.748608,6.662982249132641,0.1460050623202456
3.750996,6.675695597603312,0.1456360728580575
3.753376,6.686546614954426,0.1452945116915403
3.755792000000001,6.697397632305541,0.1449533487474236
3.758176,6.709551902268771,0.1446196357623909
3.760556,6.725942691150311,0.1442474914479414
3.762956,6.741914171151272,0.1438994323834647
3.765340000000001,6.759188903764348,0.1435577113300671
3.76772,6.775812010071366,0.1432128201501483
3.770132,6.791084641938025,0.1429023200835035
3.772520000000001,6.806497043431545,0.1425826131994595
3.7749,6.822421301604261,0.1422698332091176
3.7772960000000007,6.833410192724366,0.1420393056402554
3.77968,6.8482635157104434,0.1417493468860327
3.78206,6.867121040189355,0.1413954526386985
3.7844760000000006,6.88518716873535,0.1410460698322932
3.78686,6.902182362094706,0.1407187794651791
3.789236,6.913031483587949,0.1405026982901689
3.791652,6.920667799521278,0.1403504951361686
3.794036000000001,6.92765248914855,0.140196720327627
3.796432,6.933706013216043,0.1400566192732277
3.798836000000001,6.9386886020968985,0.1399377440983499
3.801224,6.945253982843589,0.1398099183599926
3.803604000000001,6.953961233963558,0.139643324550209
3.806,6.959502901351855,0.1394948229930109
3.808384000000001,6.96038874094126,0.1394074318568851
3.810768,6.962904594224744,0.1392701410079739
3.813164,6.966770921948588,0.1390989458620397
3.8155480000000006,6.971428645605349,0.1389234120616312
3.817924000000001,6.9825119803819415,0.1386325995936859
3.82032,6.995597415904951,0.1383112512519815
3.8227040000000008,7.015108462547792,0.1378763357896658
3.825084,7.041836516243381,0.137324146021523
3.827496000000001,7.064700138072998,0.13682912264441
3.8298840000000007,7.08220908396942,0.1364323232237227
3.832264,7.101580360985399,0.1360132948487258
3.834668,7.122162342814878,0.1355695395026157
3.837052000000001,7.14688829576405,0.1350585599810942
3.839432,7.171614248713223,0.1345475804595728
3.841828000000001,7.191125295356064,0.1341208250976781
3.844216,7.209705176439125,0.1337068287956232
3.8466080000000007,7.230287158268603,0.1332672448604347
3.849016,7.249937974538303,0.1328396926056905
3.851400000000001,7.2671673811810065,0.1324658053536376
3.85378,7.28863330674202,0.1320603185371104
3.856172,7.313312037862948,0.131601870430198
3.85856,7.339573560849713,0.1311421280724768
3.86094,7.363972752716921,0.1307070555083574
3.863336,7.389303110143909,0.1302629105352551
3.865720000000001,7.406485294958368,0.1299401784480672
3.868116,7.422596544586187,0.1296364267483913
3.8705120000000006,7.435494988654094,0.1293889134564264
3.872896,7.443178526415666,0.1292225431971169
3.875280000000001,7.452724395296795,0.1290360632540922
3.877684,7.464691673804922,0.128801500760774
3.880072000000001,7.4757277867532705,0.1285778015762824
3.882452,7.485832734141842,0.1283651361313741
3.8848480000000007,7.494075350410855,0.1281736670572412
3.887232,7.505530772239784,0.1279333640595391
3.889616000000001,7.521921561121325,0.1276282883243603
3.892008,7.538452119629727,0.1273169051787983
3.894396,7.552189181458794,0.1270374589350786
3.896776,7.568347652914858,0.1267129677952409
3.899172000000001,7.584785663624642,0.1263747564143224
3.901556,7.599640882468591,0.126044956463832
3.9039360000000007,7.609281195006207,0.1257900315194819
3.906352000000001,7.617850572357185,0.1255538210410768
3.9087400000000008,7.627071576014221,0.125322359271592
3.91112,7.636292579671256,0.125091928607577
3.913516,7.654732691127458,0.1247389320781849
3.9159,7.6721018673970205,0.1244014914655655
3.91828,7.688679647733665,0.1240678268516275
3.9206720000000006,7.705257428070309,0.123732954868138
3.92306,7.719693338033678,0.1234300217870411
3.925440000000001,7.7306369031834095,0.1231881100119495
3.927832,7.743442799452698,0.1229289286592303
3.9302160000000006,7.757040091654905,0.1226682146370792
3.932596000000001,7.769426679043612,0.122429867061053
3.934992,7.776598360125988,0.1222644349433987
3.93738,7.788845177887836,0.1220371409253549
3.939756,7.8030940963961,0.121787188274601
3.942172,7.817203245277505,0.1215442782922542
3.944556,7.829822150091689,0.1213380878706143
3.946936,7.842580824532735,0.1211258159629629
3.949332000000001,7.854268563787142,0.1209294669706596
3.951716,7.873964706027215,0.120639744674451
3.9541,7.891798517147733,0.1203685679256687
3.956512000000001,7.907769997148693,0.1201143991407783
3.9589000000000008,7.924952181963154,0.11984110357864
3.96128,7.934637820471144,0.1196726997323128
3.963696,7.950329761218383,0.119437528280792
3.9660800000000007,7.965742162711905,0.1192153429585011
3.96846,7.98529853532512,0.1189429991440372
3.970856,8.009278418311748,0.1186085278997389
3.97324,8.038612977231567,0.1182032058631237
3.97562,8.065293809098915,0.117817353236406
3.97802,8.091974640966262,0.1174334563754545
3.980404000000001,8.121728508766664,0.1170145283011154
3.982784,8.149759815074368,0.116600463347646
3.9851800000000006,8.16778061764999,0.1162998805179753
3.987564,8.182588614665695,0.1160428751510161
3.989944,8.198188007614318,0.1157847948456988
3.992360000000001,8.210993903883606,0.1155500051532837
3.994744,8.22659329683223,0.1152934701907055
3.997136,8.243123855340633,0.1150299098900445
3.999532,8.251785780490225,0.1148480797536406
4.0019160000000005,8.257514439333624,0.1146949581469862
4.004296000000001,8.265524738177161,0.1145080331897308
4.006692,8.270322231460781,0.1143632544556717
4.009075999999999,8.279543235117817,0.1141569756945605
4.011472,8.283037475789325,0.1140040859990442
4.013876000000001,8.28695102534141,0.1138330235125436
4.0162640000000005,8.289002243773938,0.113678091771749
4.018648,8.285838555900135,0.113584633763978
4.021052,8.279601832093276,0.1135253170522423
4.023435999999999,8.276018835338892,0.1134501208433534
4.025816,8.27164444265159,0.1133761728610427
4.02822,8.26619911477765,0.1133154117832348
4.030608,8.269693355449155,0.1131668463767414
4.0329880000000005,8.283337869479604,0.1129128653789619
4.035384,8.29977588018939,0.112638161584291
4.037772,8.315562264593117,0.1123594224792018
4.040152,8.338425886422732,0.112010548509335
4.042556,8.356493910826597,0.1117032673732294
4.04494,8.372699604110904,0.1114101017151093
4.04732,8.395982534821101,0.1110467681672844
4.049716000000001,8.425271767770548,0.1106255832205262
4.0521,8.456563101466411,0.1101897857932805
4.054480000000001,8.489856535908691,0.109735020187577
4.056884000000001,8.520076934417919,0.1093138173053886
4.059268,8.548946858486783,0.1089149179102187
4.061648000000001,8.578328639234847,0.1085281571327918
4.064052000000001,8.607291111102333,0.1081607815317049
4.066440000000001,8.642259885209068,0.1077387073855205
4.06882,8.676297493756023,0.1073230943621434
4.071212,8.706610440063866,0.1069343163837346
4.0736,8.736783616744848,0.1065520792840859
4.07598,8.764954692679412,0.106188896276988
4.078372000000001,8.790192502307782,0.1058564085713842
4.080760000000001,8.806350973763847,0.1056114020539365
4.083156,8.82399968928713,0.1053402671267655
4.08556,8.839646304063997,0.1050867624390669
4.087948,8.848355451041833,0.1048946041523878
4.090328,8.858926929139228,0.1046898443089772
4.092724,8.871640277609899,0.1044621359499412
4.095108000000001,8.87834732384132,0.1042885398046036
4.097487999999999,8.883052269326324,0.1041336161851625
4.099884,8.883613243691634,0.1040193829365137
4.102272,8.883382822124027,0.1039057074583633
4.104652000000001,8.883152400556417,0.103791829121521
4.107056000000001,8.886134784548725,0.1036437413138059
4.109444000000001,8.888465542234973,0.1034907810255006
4.111824,8.88921350805539,0.1033385914727338
4.114228,8.885026106823192,0.1032267623712495
4.116616,8.88270103671055,0.1031034088826659
4.118996,8.883449002530964,0.1029518324418878
4.121392000000001,8.88233463723182,0.1028114880286862
4.123780000000001,8.884293307865732,0.1026432267886151
4.126156000000001,8.884110108126366,0.102497715838741
4.128559999999999,8.885929009133418,0.1023347280452368
4.130948000000001,8.885606039767193,0.1021947908729055
4.133328,8.888216336707162,0.1020324780598584
4.135732,8.89189756883377,0.1018586530434756
4.13812,8.897580901706798,0.1016687718640513
4.1405,8.900051429019909,0.1015118806707376
4.142896,8.905315453012353,0.1013381284872094
4.1452800000000005,8.90750644107174,0.1011918926151173
4.147660000000001,8.910488825064048,0.1010453690344529
4.150064,8.913191669802636,0.1009097865003081
4.152451999999999,8.919619176780335,0.1007524304833086
4.154828000000001,8.928048784504455,0.1005798934383528
4.157236,8.935547226668792,0.1004128863859174
4.159619999999999,8.944768230325828,0.1002406032756956
4.162,8.953989233982865,0.1000680143561635
4.164404,8.963489776893619,0.099885494858852
4.166792,8.972710780550655,0.0997144952759299
4.1691720000000005,8.985656446446804,0.0995223212547085
4.171568,8.996879550850254,0.0993364686004436
4.173952000000001,9.007031720067067,0.0991610637995148
4.176332,9.018115054843658,0.0989803095049903
4.178736,9.022260921821225,0.0988517662019847
4.181124,9.02426491842551,0.0987446499967753
4.183504,9.02878287245541,0.0986325292847827
4.185904,9.0283654594327,0.0985574933170982
4.188292,9.031021082343043,0.0984558393239195
4.190672,9.031814374133832,0.0983647971808283
4.193067999999999,9.037543032977233,0.0982369612380314
4.195456000000001,9.042480295887712,0.0981089274183981
4.197836,9.045974536559218,0.0979751859966312
4.200235999999999,9.04602365424533,0.0978521116028905
4.202624000000001,9.038204138572636,0.0977865518383925
4.205004,9.031176018832856,0.0977209959741133
4.207400000000001,9.022425337600383,0.0976603805864036
4.2097880000000005,9.014885361181411,0.0975837437638871
4.212168000000001,9.0050637447623,0.0975332987244356
4.214572,8.993379797223632,0.0974930307113833
4.216959999999999,8.980113057819127,0.0974520329720937
4.21934,8.964564678414483,0.0974370216129453
4.221744,8.952368874196617,0.0973851922761622
4.224132,8.94138377479225,0.0973174925383538
4.2265120000000005,8.93947801356019,0.0971777742090373
4.228908,8.939993661955127,0.0970068929907967
4.231296,8.936133021804892,0.0968503374939368
4.2336800000000006,8.93734751833413,0.0966527445396803
4.236072000000001,8.940703885236642,0.0964358414592905
4.238460000000001,8.945131187325794,0.0962086728898125
4.24084,8.943831726429417,0.0960163264957011
4.2432360000000005,8.943603200719675,0.095813705862135
4.245624,8.948961668368604,0.0955826914318888
4.24802,8.95483199269673,0.0953625144497599
4.250416,8.966568849637248,0.0951017820328427
4.2528,8.978165936950907,0.0948464223770173
4.25518,8.988692089077926,0.0946005431962718
4.2575840000000005,8.998007536391446,0.0943701515287835
4.259972,9.007742292585547,0.0941236007633623
4.262352000000001,9.016685652846734,0.0938759704839261
4.2647520000000005,9.024418308294418,0.0936438377638532
4.26714,9.032290733368962,0.0934053275261095
4.269520000000001,9.03709012251045,0.0931927041960222
4.271916,9.040678806838445,0.0929959473251193
4.274304,9.041054685606516,0.0928300956459767
4.276684,9.04115102512087,0.0926752415755875
4.279088000000001,9.04404086131456,0.092505974396258
4.2814760000000005,9.044928596761832,0.0923517882893301
4.283856000000001,9.040880965156491,0.0922312690818481
4.28626,9.038835434297567,0.0920966779321725
4.288647999999999,9.039862939371702,0.09193771815911
4.291028,9.042101149259334,0.0917642347051878
4.293432,9.038472826534576,0.0916283115797998
4.29582,9.032330546384202,0.0914950241959219
4.2982000000000005,9.02525710067405,0.0913662118623828
4.300596,9.019534129404258,0.0912175380342676
4.302984,9.018606755560215,0.0910419389598972
4.305364,9.019681482462596,0.0908525414951183
4.307768,9.024620641230944,0.0906414638228569
4.310156,9.030490965559071,0.090425606353444
4.312536000000001,9.034359189140783,0.090222642074995
4.314932,9.042231614215329,0.089992344750334
4.317316000000001,9.048893334476375,0.0897760498834242
4.319696,9.055694824364284,0.08955480365144
4.3221,9.062636083879047,0.0893286152890868
4.324488,9.064362437087484,0.0891439076382181
4.326868,9.06594902066906,0.0889644890333456
4.3292720000000005,9.069817244250771,0.0887617905490441
4.33166,9.07433709413854,0.0885645983498211
4.334040000000001,9.072990411413922,0.0884029760466405
4.336436,9.070433023875802,0.0882558280483088
4.338824,9.065593996337546,0.0881325972565034
4.341204,9.061686134359068,0.0880048251315253
4.3436,9.06257386980634,0.0878508087143939
4.345988000000001,9.065603475626894,0.0876787123193171
4.348368,9.067701915887666,0.0875111629094501
4.350764000000001,9.06407359316291,0.0873733017004281
4.353152000000001,9.061516205624788,0.0872266942424596
4.355532000000001,9.05281274622056,0.0871244922361417
4.357928,9.046902783495664,0.0870103355131432
4.360316,9.04727866226374,0.0868470868195166
4.362699999999999,9.04472127472562,0.0867009042171528
4.365092,9.045236923120555,0.0865327750480472
4.36748,9.045892341142352,0.0863597263963468
4.3698760000000005,9.044685428044591,0.0861941565583686
4.372272,9.049904126066664,0.0859746516723671
4.374656000000001,9.05833562964865,0.0857295976844452
4.37704,9.06434572360364,0.0855132712096429
4.379436000000001,9.070495587185489,0.085291479217095
4.38182,9.083303379312644,0.0850382300259776
4.384200000000001,9.097042336999582,0.0847811229733245
4.386604000000001,9.10863942431324,0.0845404641069362
4.388992000000001,9.122378382000177,0.0842825395718338
4.391372,9.132904534127194,0.0840516834037119
4.393776,9.1390071758808,0.0838612525282324
4.396164,9.145901213567326,0.0836726983947958
4.398544,9.156659683119823,0.0834641073037083
4.4009480000000005,9.164484886366123,0.0832722157727845
4.403336,9.176174521478403,0.083060253170462
4.405716000000001,9.186001825471122,0.0828564549621646
4.408112,9.193547489463706,0.0826762986935729
4.4105,9.202024319016068,0.0824926640153244
4.41288,9.209849522262369,0.0823032487649468
4.415284000000001,9.216464020695172,0.0821273205189576
4.4176720000000005,9.224940850247531,0.0819442838216152
4.420052000000001,9.231136039799756,0.0817837860411935
4.422452000000001,9.233327027859143,0.0816474170146458
4.424836,9.231653584052562,0.0815290766074486
4.4272160000000005,9.234263880992527,0.0813778337361648
4.429612,9.23100764532011,0.0812566205452487
4.431996000000001,9.22910188408805,0.0811174483105501
4.434375999999999,9.23348196434896,0.0809339388293873
4.436772,9.233997612743895,0.0807683423296413
4.439156,9.23600350520605,0.0805797434156212
4.441552000000001,9.24229313841476,0.0803585192722496
4.443948,9.248582771623468,0.0801380511701477
4.446336,9.254872404832176,0.0799183342413097
4.448716,9.259020167667607,0.0797139931822328
4.4511080000000005,9.265589340130038,0.0794850620001523
4.453496,9.27108757740583,0.0792640968709653
4.455892,9.271650447629012,0.0790680310246247
4.458284,9.274075648971747,0.0788662708103141
4.460672,9.275010606247264,0.0786870389833211
4.463052,9.275014397963004,0.0785104238385881
4.465447999999999,9.27594935523852,0.0783310173869802
4.467836000000001,9.279026182887312,0.0781363130392821
4.470216,9.281823471282388,0.0779510106399654
4.472608,9.292629162663127,0.0777222562020849
4.474996,9.296869473297178,0.0775457893703747
4.477392000000001,9.305253755050922,0.0773424967499399
4.479788,9.311216627177668,0.0771648758829063
4.482176,9.315177398557996,0.0769991058978439
4.484556,9.323793997737214,0.0768188030991391
4.486960000000001,9.331711748782135,0.0766627927623918
4.489348000000001,9.332831801654889,0.0765363561648702
4.491728000000001,9.33208952340808,0.0764157474185619
4.494132,9.327482813295305,0.0763112072235168
4.496519999999999,9.328091009488856,0.0761730244987312
4.4989,9.322553133816298,0.0760711242198458
4.501304,9.320228063703656,0.0759464909029751
4.503692,9.324700691763184,0.0757927031769623
4.5060720000000005,9.326519592770234,0.0756427570158619
4.508476000000001,9.330340594523705,0.0754825690182051
4.510864000000001,9.334161596277172,0.0753217817240391
4.513243999999999,9.336911662844,0.0751688299551249
4.51564,9.336868232731495,0.0750243432709378
4.518028,9.336033406686074,0.0748773483328947
4.520408000000001,9.32891273914768,0.0747706884152315
4.522804,9.327426286796198,0.0746170385633845
4.525192,9.321935632951885,0.0744833617806552
4.527572,9.31886638873457,0.0743252381080317
4.529967999999999,9.312724108584195,0.0741844277582104
4.532352,9.304719497314268,0.0740490001226946
4.534732000000001,9.299555604551916,0.0738753288053537
4.537135999999999,9.302120575521512,0.0736714741220388
4.539524000000001,9.304825316117968,0.0734626571635476
4.541904,9.313536358953677,0.0732247695568494
4.544308,9.31689272585619,0.0730231097459409
4.546696,9.3231823590649,0.072808711257973
4.549076,9.326259186713694,0.0726165139200256
4.551472,9.326682287310014,0.072427673704113
4.553859999999999,9.328036553466111,0.0722364298475833
4.556244,9.328878962943012,0.072033780293015
4.55864,9.33665884021894,0.0718015264790331
4.561027999999999,9.344997796002309,0.0715509730780657
4.563408,9.35226581659904,0.0713069912841332
