Time,Force,Position
3.859804000000001,7.118168770727116,0.1570208296576455
3.862192,7.147729959498806,0.1567748729921901
3.864572000000001,7.178549074912239,0.1564614580411789
3.8669759999999993,7.209135872900193,0.1561261570285507
3.869363999999999,7.238838727156613,0.1557664912971226
3.871744,7.270031825480252,0.1553638287989347
3.874148,7.296848635258721,0.155016612277056
3.876531999999999,7.319801013171214,0.1547307299085505
3.878916,7.341170599217872,0.1544557441638147
3.881312,7.360026227838916,0.1542098819150013
3.883696000000001,7.387309568326208,0.1538039765509202
3.88608,7.410216620268328,0.1534489116861214
3.888472,7.427117369971199,0.1531977190713748
3.89086,7.441504162248455,0.1529721078815967
3.8932439999999993,7.457101659339209,0.1527171460004218
3.89564,7.4785656890423535,0.1523671621554577
3.898028,7.491090150200052,0.1521708578426335
3.900408000000001,7.50468554654439,0.1519557251710272
3.902811999999999,7.516558381396031,0.1517618385895262
3.905196,7.520702352515725,0.1516876295521267
3.90758,7.528990294755112,0.1515397441241263
3.909976,7.535835214755524,0.1513958176242484
3.91236,7.537093141397267,0.1513293468625833
3.91474,7.533835009866976,0.1513198838261198
3.917144,7.530856417590408,0.151295491029042
3.919532,7.525363867888224,0.1512945376904187
3.9219120000000007,7.524015289305734,0.1512207655770163
3.924308,7.527229990723519,0.151052700950028
3.926696,7.533797267328079,0.1508181694876119
3.929076,7.537710816880165,0.1506139455160989
3.931472,7.537759934566276,0.1504684600114024
3.9338599999999992,7.542884188931861,0.1502396516657039
3.93624,7.553502888857498,0.1499056687147402
3.93864,7.564401128036857,0.1495563620831337
3.941024000000001,7.57343703609666,0.1492309999340873
3.94342,7.578888051544206,0.1489500526746391
3.9458160000000007,7.588483038111449,0.1485974629948768
3.948204000000001,7.5960759239322755,0.1482781253436298
3.950583999999999,7.601526939379823,0.1479977956123893
3.95298,7.610050990760427,0.1476649013831862
3.955368,7.614058983969,0.147386829953654
3.957748000000001,7.617647668296991,0.1471298653049619
3.960151999999999,7.622958914117678,0.1468540530122192
3.9625400000000006,7.631063656617701,0.1465399108300824
3.964924,7.636095363184669,0.1462775761866442
4.003164,7.504274170332263,0.1461673131044439
4.007932,7.487656751598853,0.1461596108286005
4.010328,7.479417927045577,0.1461520307339675
4.015096,7.464243530551139,0.1461422111938395
4.017496,7.456656332303923,0.146137359487021
4.019880000000001,7.453352874803259,0.1460547234402151
4.022264,7.445253819876844,0.1460406671113565
4.024656,7.439296635323705,0.1459873287479135
4.027044,7.436132947449902,0.145897059823236
4.031832,7.421005772783711,0.1458500511800439
4.034216000000001,7.417190458603849,0.1457570412471172
4.0366,7.413095605170268,0.1456788447791076
4.04138,7.400714705355168,0.145632809735594
4.043760000000001,7.398062874160562,0.1455518324965149
4.046163999999999,7.395271273339096,0.1454781813464837
4.048551999999999,7.396344104383605,0.1453482525669216
4.050932,7.3924815683755005,0.1452940714544635
4.053336,7.387548097180758,0.1452592377228762
4.055724,7.388201619344685,0.1451518406056157
4.058104,7.388855141508612,0.1450447857228611
4.0605080000000005,7.386854936620065,0.1449663709383859
4.062892,7.391000803597628,0.1447868479771907
4.065272,7.3959380665081085,0.1446031695433451
4.067667999999999,7.402597890911286,0.1444039034930089
4.070052,7.414193082367076,0.1441307416099672
4.072436,7.422715237889811,0.143907461023998
4.074832000000001,7.433239494158961,0.1436546223209117
4.077216,7.446836786361167,0.1433518151959958
4.079596,7.466160841548904,0.1429697423120477
4.082012000000001,7.482411860803584,0.1426405572740223
4.084396,7.494938217819154,0.1423585142701691
4.086779999999999,7.50974621483486,0.1420317372029508
4.089184,7.528558413343399,0.1416428357568542
4.0915680000000005,7.546159907038441,0.1412845999034016
4.093947999999999,7.564552796666399,0.1409229542392495
4.096352,7.5809435855479395,0.1405933572747152
4.098739999999999,7.603200907041871,0.1401817318534015
4.10112,7.622804501483329,0.1397971477734317
4.103515999999999,7.639894138499171,0.1394354739503747
4.1059,7.65433004846254,0.1391004203406339
4.108280000000001,7.6724906206650205,0.1387209041103371
4.110683999999999,7.688649092121084,0.138374576440714
4.113072000000001,7.701874297270952,0.1380680024043336
4.115451999999999,7.7153790416745425,0.1377504641718695
4.117856,7.727952620518353,0.1374461494242321
4.120244,7.745461566414777,0.1370751656188778
4.122624,7.758826541191506,0.1367680526815599
4.125019999999999,7.772051746341376,0.1364694327303581
4.127407999999999,7.784485555558326,0.1361766487869381
4.129788,7.797059134402137,0.13587752748041
4.1321840000000005,7.812426209925283,0.1355466370577696
4.134568,7.827793285448429,0.1352177195331103
4.136948,7.840087325038519,0.1349335070206863
4.139344,7.847445997575998,0.1347146889731508
4.1417280000000005,7.852290712687862,0.134513456169468
4.144128,7.85527309668017,0.134332735748637
4.146523999999999,7.854251279179643,0.1342078975104119
4.1489080000000005,7.852949922425395,0.1340962200693068
4.151292,7.85616462384318,0.1339403550284556
4.153696,7.861101886753662,0.1337703133189105
4.156084,7.863525192238529,0.1336181137519653
4.158464,7.866879663283174,0.1334565806966991
4.16086,7.875169501380431,0.1332313625587209
4.163247999999999,7.883459339477689,0.1330082854140611
4.165628,7.889886846455389,0.1328055055656072
4.168023999999999,7.893520856753755,0.1326334963206968
4.170412000000001,7.902369773358453,0.1323865437616574
4.172791999999999,7.91135845959001,0.1321341544472935
4.175196,7.920347145821569,0.1318830398997472
4.177584,7.92598325686635,0.1316861063964099
4.179964,7.93255053347091,0.1314806192537817
4.182359999999999,7.935905004515556,0.1313234075957739
4.184747999999999,7.944334612239672,0.1310991395175575
4.187128,7.9569081910834845,0.130816162859575
4.189532,7.972135496979771,0.130510895026712
4.191915999999999,7.992158400301808,0.1301523302383221
4.1943,8.01446294362398,0.1297557386007605
4.196695999999999,8.04077168843899,0.1293084348007178
4.199083999999999,8.05949133914891,0.1289458479820966
4.201464,8.07928192504547,0.1285686484973691
4.203868,8.101586468367644,0.1281779167582116
4.206256,8.118024479077429,0.1278554427869903
4.208636,8.131808762734737,0.1275568912701021
4.211040000000001,8.141169536018632,0.1273276520558727
4.213428,8.152392640422084,0.1270804748477788
4.215807999999999,8.163336205571815,0.1268464178869795
4.218204,8.170275569228712,0.1266628502871969
4.220592,8.175352601766054,0.1264977491678041
4.222972,8.17842753355698,0.1263573026688464
4.225368,8.188859242027512,0.1261159388802288
4.227755999999999,8.194495353072295,0.1259257353401137
4.230136,8.203344269676991,0.125689109701674
4.23254,8.205907344788717,0.1255385721196045
4.234928,8.206468319154025,0.1254125101725413
4.2373080000000005,8.206237897586416,0.125289250442422
4.239704,8.206007476018808,0.1251668918300884
4.242092,8.20563728482434,0.1250511710786015
4.244472,8.203125223256594,0.1249655131512078
4.246867999999999,8.203546427995043,0.1248473464697152
4.249255999999999,8.203827863106635,0.124735770268028
4.25164,8.202246967098667,0.1246415957962806
4.254035999999999,8.20639283407623,0.1244895129790685
4.256423999999999,8.211190327359851,0.12434178648631
4.258804,8.217338295083833,0.1241659996774996
4.261203999999999,8.22413788911387,0.1239950673966927
4.263591999999999,8.233219123144044,0.1237893797620226
4.265972,8.246164789040192,0.1235448586586914
4.268368000000001,8.261764181988815,0.1232822271442692
4.270756,8.28136777643027,0.1229756592751513
4.27314,8.29389413344584,0.1227525986899453
4.275536000000001,8.310424691954239,0.1224837387386771
4.2779240000000005,8.32802618564928,0.1222028164307185
4.28032,8.351122124904373,0.1218442347656556
4.282724,8.376220164905883,0.1214639113096609
4.285112,8.400107500093894,0.1211037908075466
4.287492,8.417057367482876,0.1208187603265065
4.289888,8.430934198938804,0.1205702892071394
4.292275999999999,8.445090569648452,0.1203098893220465
4.294656,8.45882763147752,0.120067951419608
4.297052000000001,8.471493758119948,0.119840754555574
4.299440000000001,8.483228719202597,0.1196215475750141
4.301819999999999,8.494312053979188,0.1193997782762101
4.304224,8.501391187262948,0.1192216719062161
4.306611999999999,8.511403586852902,0.1190139799684649
4.308992,8.519693424950159,0.118816926532356
4.311396,8.524770457487499,0.1186623142640472
4.31378,8.525843288532007,0.1185517648843572
4.31616,8.52412262289718,0.1184649030658182
4.318564,8.520260086889076,0.1184057614888886
4.320952,8.525476889053277,0.1182481560878669
4.323332000000001,8.52948298640398,0.1181103450251111
4.325728,8.533209544500963,0.1179852309501565
4.328116,8.536796332971086,0.1178669388395997
4.330500000000001,8.538520790321652,0.1177635631973178
4.332896,8.543458053232131,0.1176209484975866
4.335284,8.555472553568505,0.1174036010095021
4.337664,8.570560089837928,0.1171524656205515
4.340059999999999,8.587370187600051,0.1168937674892287
4.342447999999999,8.60660169498917,0.116598556737136
4.344828,8.625181576072233,0.1162988884671655
4.347232,8.64562378827485,0.1159850850406755
4.34962,8.664715526037112,0.1156968754821521
4.352,8.686880299732426,0.1153739156159785
4.354404000000001,8.707042972681323,0.1150727859961212
4.356788,8.726274480070442,0.1147787277915574
4.359168,8.746716692273061,0.1144657781433554
4.361568,8.765436342982982,0.1141596774118262
4.363951999999999,8.78108295775985,0.1138848082592309
4.366332,8.794867241417158,0.113624857444609
4.368736,8.80143451802172,0.113446848115647
4.371124,8.80828133388,0.1132574005083105
4.3735040000000005,8.813405588245587,0.1130771614971962
4.3759,8.814106332237756,0.1129542609163147
4.378288,8.817460803282401,0.1128161167761995
4.380668,8.81853363432691,0.1127096982486127
4.383063999999999,8.818815069438498,0.1126052595194681
4.385451999999999,8.81802556936345,0.112513520564513
4.387832,8.813511407049287,0.1124491712136186
4.390236,8.808997244735124,0.1123848421139676
4.392619999999999,8.8072765791003,0.1123003693397889
4.395,8.806766618278967,0.1121983208481128
4.3973960000000005,8.807467362271138,0.1120786369088004
4.399784,8.810309976636585,0.1119350867143652
4.402168,8.812361195069117,0.1117924689409269
4.404564000000001,8.818556384621338,0.1116078032063321
4.406948,8.827545070852898,0.1114048576613118
4.409331999999999,8.843331455256624,0.1111468569222622
4.411735999999999,8.869268113019293,0.110793860889687
4.4141200000000005,8.895204770781964,0.110440195028557
4.416499999999999,8.924354234104552,0.1100522688454874
4.418900000000001,8.956576733360196,0.1096378742262803
4.4212880000000006,8.98679713186942,0.1092409514548127
4.423667999999999,9.023582911125338,0.1087704987810115
4.426072,9.05771496332878,0.1083148150616246
4.428459999999999,9.09412865553236,0.1078327795628244
4.43084,9.125187671802744,0.107408695271039
4.433244,9.158248788819549,0.1069690505423558
4.435632,9.197176438448745,0.1064847068449597
4.4380120000000005,9.231960116958245,0.1060415500919843
4.440415999999999,9.267163104348324,0.1055869576028417
4.442804000000001,9.301434926178624,0.1051419099347849
4.445183999999999,9.335986287262648,0.1046891873041418
4.447588,9.369466713160032,0.1042507890736837
4.449972000000001,9.402947139057416,0.1038121216062937
4.452356,9.428279392342274,0.1034451389493981
4.454751999999999,9.44802465226846,0.1031131162508021
4.457139999999999,9.463905480328672,0.1028113828809315
4.45952,9.471638135776358,0.1025821272679979
4.461916,9.482443827157098,0.1023266032156028
4.464304,9.488174381858368,0.1021140413364423
4.466683999999999,9.49083190062658,0.1019291493945809
4.46908,9.49456035458143,0.1017331877588999
4.471468,9.492142736670171,0.1015907788275582
4.473848,9.491727219505332,0.1014325857467506
4.476252000000001,9.487307500847656,0.1013060179545944
4.47864,9.486240357376756,0.1011425266900771
4.481019999999999,9.48144855166674,0.1010003631204481
4.483420000000001,9.46999881741142,0.100900329051566
4.485804,9.460830723156237,0.100774116597746
4.488187999999999,9.449241219274052,0.1006787734854496
4.490584,9.43350774427218,0.1006194941278727
4.492967999999999,9.41856566520322,0.1005595408559554
4.495348,9.402692420574486,0.1005043997040151
4.497756000000001,9.389752442251943,0.1004285281102592
4.500144000000001,9.381887600608875,0.1003116536341586
4.502523999999999,9.379749521951338,0.1001589858201012
4.50492,9.374538407360742,0.1000314775436013
4.507308,9.371469163143423,0.0998832806122702
4.509688000000001,9.365466652619912,0.0997555934909486
4.512084,9.363608113216095,0.0995920074129201
4.514472,9.35974747306586,0.0994434543831539
4.516852,9.35760939440832,0.0992898691156064
4.519252,9.356402481310562,0.0991307919016876
4.52164,9.351982762652888,0.0990022424881313
4.52402,9.352638180674685,0.0988332114640681
4.526424,9.354364533883118,0.0986544610106001
4.528808,9.361026254144162,0.0984411877729447
4.531188,9.369410535897906,0.0982222793131779
4.533583999999999,9.377515278397928,0.0980138715025678
4.535971999999999,9.38175558903198,0.0978295957663632
4.538352,9.3910710363455,0.0976050228742568
4.540760000000001,9.395311346979549,0.0974206394636217
4.543144,9.39862049205382,0.0972412086892623
4.545527999999999,9.394852399702204,0.0971166095016533
4.547924,9.394017573656782,0.096972467966092
4.550307999999999,9.388247380558749,0.0968631202810927
4.552688,9.388623259326826,0.0967042188539358
4.555083999999999,9.392072174027955,0.0965214393830706
4.557472000000001,9.395381319102228,0.0963434692880988
4.559868,9.393615327497026,0.0962043348086766
4.562263999999999,9.39478260219802,0.0960456234196913
4.564652000000001,9.394227315406315,0.0958914879560663
4.567031999999999,9.39567412936103,0.0957228082102645
4.569436,9.401264914435435,0.0955200213435519
4.571823999999999,9.402711728390152,0.095351952822087
4.574204,9.401737132717871,0.0952135487090625
4.576599999999999,9.395687400366116,0.0951136433527047
4.578988000000001,9.392990243201137,0.0949798470433155
4.581372,9.390572625289876,0.0948360510179916
4.583767999999999,9.394301079244729,0.0946445407803447
4.586155999999999,9.39309416614697,0.0944858340711888
4.588536,9.393097957862707,0.0943117317334488
4.5909320000000005,9.394964080698005,0.0941285965269506
4.59332,9.406049311332463,0.0938741876636807
4.595699999999999,9.417274311593786,0.0936172807939995
4.598096,9.431572347788164,0.0933371043352657
4.600479999999999,9.440935016929927,0.0930899907649916
4.602864,9.446293484578858,0.0928713115973101
4.60526,9.452722887414426,0.0926432654608275
4.6076440000000005,9.466229527675884,0.0923650219274589
4.610028,9.478944772004423,0.0920870289001045
4.612424000000001,9.491520246706106,0.0918136496032976
4.614812000000001,9.50130222472845,0.0915532444084027
4.617191999999999,9.5081509364446,0.0913112849436541
4.619588,9.512206151481417,0.0910809731128439
4.621976,9.516401136145092,0.0908452535918723
4.624359999999999,9.521527286368542,0.0906045834662772
4.626756,9.525163192524774,0.0903891605253252
4.629144,9.525586293121094,0.0902008915858789
4.631524000000001,9.52051494815736,0.0900636067779581
4.633939999999999,9.51730593431318,0.0899173069755068
4.636324,9.516750647521478,0.0897630845735157
4.638719999999999,9.51726629591641,0.0896002258086583
4.641116,9.51456913875143,0.089465569692214
4.643504,9.50572590972034,0.0893753200420165
4.645884000000001,9.492878479196415,0.0893111306888658
4.64828,9.482964314978686,0.089229453403747
4.650668,9.471979215574317,0.0891565823773869
4.653048,9.460062950610167,0.0890875813769412
4.655452,9.446144584899605,0.0890312200468772
4.65784,9.43208644956218,0.088979444632558
4.660220000000001,9.418307853478476,0.0889176068748898
4.66262,9.410535559634022,0.0888171293704923
4.665004,9.405556762468905,0.0887049300433864
4.667384,9.407515433102816,0.0885508286219709
4.6697880000000005,9.411755743736864,0.0883745823736254
4.672172,9.416135823997774,0.0881932255206329
4.674552,9.416931011646431,0.0880221469222102
4.676956000000001,9.4221497096685,0.0878110965072268
4.679344,9.432211226944569,0.0875453626752495
4.681723999999999,9.446556484967186,0.0872461212883565
4.68412,9.460250116683746,0.0869417427095321
4.686508,9.468077215787918,0.0866693852337222
4.688888,9.47203988302612,0.0864165477524135
4.691284,9.477353024704676,0.0861441101851408
4.693671999999999,9.486670367876062,0.0858465011058255
4.696052,9.49198350955462,0.0855734459169933
4.698452,9.500369687166232,0.0852793308652843
4.70084,9.508895634404704,0.0849800977204131
4.70322,9.513417380150344,0.0847052867743037
4.705615999999999,9.518358434776564,0.0844162256928182
4.708004000000001,9.52730369089562,0.0841040387896966
4.7104,9.53010287514856,0.0838340292976241
4.712795999999999,9.529456936416112,0.0835688432186776
4.715184000000001,9.526948666564104,0.0833119273107532
4.717563999999999,9.52229852633882,0.0830716706557842
4.71996,9.52272352279301,0.0828008462890951
4.722348,9.525942015926534,0.0825192162882304
4.724728000000001,9.526739099433058,0.0822637921073681
4.727128,9.525906169245506,0.0820360748545517
4.729516,9.51985833275162,0.0818441693375157
4.731895999999999,9.512879330697956,0.0816553394988708
4.734292,9.508973364577344,0.0814463375324259
4.73668,9.511073700695988,0.0812036450106386
4.739063999999999,9.517178238307462,0.0809389972284359
4.741467999999999,9.523282775918938,0.0806753166228985
4.743855999999999,9.534462450209883,0.0803817757518021
4.746236,9.545781894127694,0.0800848426130498
4.74864,9.559103438791915,0.0797777631337211
4.751028,9.57442708420256,0.0794587780294466
4.753408,9.586398154426425,0.0791675554011984
4.755804,9.595016649463515,0.0789057579700013
4.758191999999999,9.603774914127465,0.0786383537462042
4.760572,9.613184805097472,0.0783770315669914
4.762967999999999,9.618590494574644,0.0781370542159279
4.765356000000001,9.626929450358018,0.0778840541984266
4.76774,9.62726000315572,0.0776737454659908
4.770135999999999,9.625728224833866,0.0774689783162355
4.772524000000001,9.624196446512013,0.0772638657262707
4.774903999999999,9.625877473750071,0.0770367372875317
4.777303999999999,9.630771306548048,0.0767869357761141
4.779692000000001,9.637527470465582,0.0765318459032609
4.782071999999999,9.647356670316167,0.0762598894711602
4.784468,9.652390272741004,0.0760072021285215
4.786859999999999,9.653140134419289,0.0757843226265706
4.78924,9.652167434604875,0.0755624010951341
4.791639999999999,9.648261468484264,0.0753534111468604
4.794024,9.640211531243963,0.0751684602060434
4.796403999999999,9.630950889190162,0.074995413100004
4.798795999999999,9.62304072157672,0.0748056970580554
4.801183999999999,9.620065921015888,0.074593846385455
4.803564,9.61657926377586,0.0743705744395045
4.805975999999999,9.614303311349332,0.0741350351841215
4.808363999999999,9.61295852448258,0.0738968724938237
4.810744,9.615478169481804,0.07364385171
4.813148,9.616275252988329,0.073391949900563
4.815536,9.620936768360826,0.0731247949527449
4.817916,9.626529449293106,0.072854632151155
4.820320000000001,9.637616575785437,0.0725462708858935
4.822708,9.64176623447874,0.0722684581498182
4.825084,9.64470518835854,0.0720027873979649
4.82748,9.645642041491929,0.0717465756715415
4.829867999999999,9.642295153878756,0.0715180106084504
4.832248,9.640810597385148,0.0712846053962673
4.834652,9.646403278317424,0.0710182816511157
4.837036,9.649574549622708,0.0707738330907691
4.839416,9.652606051301126,0.0705337165118992
4.84182,9.6574998840991,0.0702883169278042
4.844208,9.66160232096416,0.070040575373389
4.846588000000001,9.666076844881555,0.0698095273769149
4.848991999999999,9.668549268052535,0.0695880245274025
4.851376,9.670881921596653,0.069370941512549
4.853756000000001,9.67372643181997,0.0691654234670632
4.856152,9.675779546110368,0.0689574320883747
4.85854,9.674759624467711,0.0687646328547284
4.86092,9.6694559620785,0.0685976047418986
4.863324,9.665502774129648,0.0684150746450333
4.865712,9.666624722860266,0.0682097164523751
4.868091999999999,9.660389894911278,0.0680453418859293
