Time,Force,Position
7.645052000000001,14.109323733690577,0.1347957230029499
7.64744,14.124972244325312,0.1345527671299548
7.649819999999999,14.147371231303977,0.1342839891848839
7.652216,14.167209039028778,0.1340449439106813
7.654599999999999,14.19300592716459,0.1337832978586725
7.65698,14.219174902352735,0.1335304140408154
7.659384,14.244784799033448,0.1332940053216232
7.661772,14.275330062766766,0.1330223014127876
7.664152,14.309460219112337,0.1327328120068693
7.666556000000001,14.344661310644552,0.1324350734382607
7.66894,14.38000217180362,0.1321329423897621
7.671320000000001,14.409895809230884,0.1318607871784091
7.673723999999999,14.437507806658008,0.1316110489575379
7.676112000000001,14.47340774632452,0.1312948068818639
7.678491999999999,14.510658160431392,0.1309637703933503
7.680888,14.54595369562009,0.1306288434619876
7.683272,14.576872942263616,0.1303145718060166
7.685656000000001,14.604486835548606,0.1300133257390299
7.688059999999999,14.627724440288429,0.129733209702675
7.690448000000001,14.646865295736802,0.1294665951831598
7.692827999999999,14.667496395252392,0.1291816749437559
7.695224,14.688174716596226,0.1288782769588819
7.697608,14.703685353461974,0.1285957636735405
7.699988,14.726552767007329,0.1282578175249092
7.702392000000001,14.743041791261096,0.1279529922014401
7.70478,14.763162929955358,0.1276127247394513
7.707159999999999,14.780490571970285,0.127288010010544
7.709556,14.798609609918133,0.1269629870263569
7.711939999999999,14.813795381559782,0.1266567520784372
7.714324,14.829912318761211,0.1263467270659334
7.716716000000001,14.85147647969445,0.1260117379182421
7.719104000000001,14.87620622435936,0.1256709023155516
7.721483999999999,14.90307783939755,0.1253137309239039
7.723888,14.931532246301575,0.1249564575623526
7.726275999999999,14.953700811712627,0.1246450521304746
7.728656,14.978103795295576,0.1243345228530795
7.731051999999999,15.005812132237056,0.1240156767338997
7.733436,15.032030225111315,0.1237161613166897
7.735831999999999,15.059831109851412,0.123415123561451
7.738228,15.090006182390264,0.1231117324597934
7.740616,15.117759845302118,0.1228324141671116
7.742996000000001,15.145745825639446,0.122567002576645
7.745399999999999,15.17745646821589,0.1222839008384967
7.747784,15.203672665232284,0.1220458715124819
7.750164000000001,15.234265150793844,0.1217926356748328
7.752567999999999,15.265509262661467,0.1215437377470596
7.754956000000001,15.300105949715862,0.1212691003932687
7.757336,15.332188679344643,0.121001964128168
7.75974,15.368694919346844,0.1207017548011782
7.762128,15.404549533042983,0.1204009970690187
7.764504,15.43495692300731,0.1201241062246898
7.766903999999999,15.46820503147922,0.1198172048298423
7.769288,15.500661744018208,0.1195122728249672
7.771672,15.529813103198665,0.1192164693436304
7.774076,15.568742648685726,0.1188509896544184
7.776459999999999,15.603575444881336,0.1184947380737329
7.77884,15.640038254771028,0.1181203837352262
7.781236000000001,15.676128977608382,0.117737562570795
7.783624,15.706120850407869,0.1173738599141671
7.786003999999999,15.730013873169488,0.1170297613355042
7.788404000000001,15.754605744065408,0.1166700551214264
7.790792000000001,15.77402993048324,0.1163253409343293
7.793171999999999,15.789869224288818,0.1159943951441103
7.795568,15.80561597029578,0.1156484284220374
7.797956,15.821270168504125,0.1152890969911556
7.800336000000001,15.833339474100214,0.114943640088427
7.802732,15.84126480857661,0.1146241689609564
7.80512,15.852263178986062,0.114287129182621
7.8075,15.86153898790282,0.1139563018043399
7.8099,15.86681059532674,0.1136473334247557
7.812283999999999,15.875434777937436,0.1133142578597523
7.81468,15.87898382386866,0.1130106177293616
7.81708,15.883743574613383,0.1126973831388774
7.819463999999999,15.889294721291026,0.1123841002411882
7.821848,15.891353523155034,0.1120994780613339
7.824243999999999,15.896857448004432,0.1118065289727377
7.826628,15.89635507061458,0.1115453811373691
7.829012,15.897854793971144,0.1112740354460501
7.831408000000001,15.905593136992438,0.1109829792143359
7.833796,15.91905824299926,0.1106669850011533
7.836175999999999,15.93424591049878,0.1103478617211064
7.838572,15.95702267210339,0.1099974898750569
7.84096,15.983524095947107,0.1096335423378536
7.843355999999999,16.011468542029803,0.1092726196802697
7.845752,16.03391854255245,0.1089484179637643
7.84814,16.055157838261593,0.1086337590379808
7.85052,16.078678773970875,0.1083029820233759
7.852916,16.099918069680015,0.1079895449354208
7.855303999999999,16.117525250948667,0.1077052526220041
7.857688,16.141138734456565,0.1073915199637861
7.860084,16.16032870759105,0.1071070803215223
7.862471999999999,16.182963803710926,0.1068153525967669
7.864852,16.206390295763722,0.1065246575190956
7.867247999999999,16.22860608300302,0.1062441937726084
7.869636000000001,16.246026272816565,0.1059838970213566
7.87202,16.26251529707033,0.1057279442518161
7.874415999999999,16.28100642207051,0.1054619108154733
7.876804000000001,16.296144971883923,0.10521826164537
7.879180000000001,16.312494226510825,0.1049665331774215
7.881576,16.326282301883875,0.1047371034251206
7.883959999999999,16.33485547095059,0.1045361453733233
7.88634,16.339144899270753,0.1043608925738149
7.888736000000001,16.340221522030998,0.1042045224305954
7.89112,16.341949771097305,0.1040512743771513
7.8935,16.345680120910025,0.1038883606421347
7.895892000000001,16.354345837775355,0.1037038495723316
7.898276,16.362592245760105,0.1035285366028126
7.900656000000001,16.37004725781194,0.1033535021687634
7.903068,16.38085484505055,0.1031572087829163
7.905456,16.387658230796326,0.1029799420472554
7.907832,16.399536753221575,0.1027783279210266
7.910227999999999,16.41025179266157,0.1025687549482555
7.912612,16.419895896914923,0.1023659273007443
7.914992000000001,16.429679770795136,0.1021604040487457
7.917388,16.445330177287744,0.1019311154054735
7.919776,16.460701044526626,0.1017082767330431
7.922152,16.479796574004627,0.101474149680871
7.924548000000001,16.5027565353486,0.1012254454389576
7.926932,16.521712295199734,0.1009952499455696
7.929312,16.539085263185036,0.1007650365022338
7.931707999999999,16.56167313747667,0.1005085702815793
7.934095999999999,16.58225891102189,0.1002607358771738
7.936471999999999,16.60712842531366,0.0999903675600943
7.938887999999999,16.630554917366453,0.0997179866595153
7.941275999999999,16.657845841285223,0.0994319748989875
7.94366,16.68006162852452,0.0991697054326951
7.946056,16.703348350950456,0.0989023038050492
7.948448,16.727286699682452,0.0986379923364281
7.950828,16.748152012481388,0.0983882723476497
7.953220000000001,16.76780662046682,0.0981469638334097
7.955608000000001,16.784388192519206,0.0979204596425751
7.957987999999999,16.79906021162379,0.0977170385472951
7.96038,16.808657094048904,0.0975360785267779
7.962768,16.818114206847152,0.0973582105417679
7.965148,16.822635952592794,0.097200321061474
7.96756,16.82371257535304,0.0970477232146548
7.969952,16.82120430550103,0.0969035685211885
7.972328,16.81497137340991,0.096770410880302
7.974744,16.81008891575915,0.0966259143489258
7.977132,16.808559033295168,0.0964618598517017
7.979512000000001,16.801954014151708,0.09631983376417
7.981924,16.79711877832919,0.0961578201218937
7.984307999999999,16.782273038774587,0.096036707123419
7.986688,16.761420996980736,0.095939995089735
7.989104,16.73218846514888,0.0958672344740818
7.991487999999999,16.7033752421976,0.0957855900766618
7.993884,16.671768522566985,0.0957116449873428
7.99628,16.634854348831425,0.0956478469491694
7.998667999999999,16.59807994472272,0.0955808562632573
8.001048,16.559582979121327,0.0955162118238718
8.003447999999999,16.517361351280815,0.0954621677174818
8.005835999999999,16.474907406014825,0.0953961050147734
8.008216000000001,16.433664165562337,0.0953214576122654
8.010611999999998,16.38869626287073,0.0952573844957818
8.012996000000001,16.340795093872934,0.0952043238028777
8.01538,16.293685320808052,0.0951511386608492
8.017783999999999,16.24429390774304,0.0951118559702977
8.020167999999998,16.197044365051298,0.0950606876389366
8.022548,16.14630247754592,0.0950319472172394
8.024951999999999,16.092859641159826,0.0950255047470752
8.027339999999999,16.04235007107993,0.0950077830941235
8.029720000000001,15.993003983985286,0.0949985358224237
8.032124,15.949244890249313,0.0949734761658445
8.034507999999999,15.910141624312228,0.0949349090781769
8.036892000000002,15.88048978359979,0.0948657559721045
8.039292,15.849347698820136,0.0948109230457424
8.04168,15.81699490922698,0.0947645330823233
8.044056000000001,15.79088073929855,0.0947048440690481
8.04646,15.768351461982377,0.0946369912774912
8.048848,15.75261988283837,0.0945440455434836
8.051227999999998,15.745408563359227,0.0944237980817536
8.053624,15.736846769439728,0.0943148461693435
8.056011999999999,15.731078472199563,0.0941976555451539
8.058388,15.728895067571653,0.0940724604771824
8.060784000000002,15.730156785929132,0.0939420355415737
8.063172000000002,15.733141065779307,0.0938091186156174
8.065552,15.737056511189262,0.0936731462056137
8.067955999999999,15.73855054697222,0.0935545299128191
8.070343999999999,15.74497994980779,0.0934164074769623
8.072724000000001,15.749686791150664,0.0932803842542465
8.075128,15.754533402120396,0.0931415033568194
8.077516,15.756167207530217,0.0930196440516441
8.079892000000001,15.761944984059728,0.0928783094111636
8.082287999999998,15.769864630962516,0.0927257980747732
8.084672000000001,15.769496335625917,0.0926125985780013
8.087067999999999,15.773923637715068,0.0924831135082411
8.089459999999999,15.782866997976251,0.0923433596744633
8.091847999999999,15.792741523797217,0.0922013847863259
8.094228000000001,15.798611848125343,0.0920759974430441
8.096627999999999,15.798987726893415,0.0919817264204241
8.099015999999999,15.798292670474854,0.0918934495989361
8.101396000000001,15.801042737041683,0.0918007060202562
8.1038,15.80537559547435,0.0917089264036318
8.106183999999999,15.811431015399714,0.0916151670835706
8.108564000000001,15.820839010511854,0.0915021195638427
8.110968,15.831317940810631,0.0913838135827476
8.113356,15.845521533348522,0.0912555385404069
8.115735999999998,15.86265839219261,0.0911167742235781
8.118132,15.877513611036555,0.0909921932543981
8.120515999999999,15.899957923985587,0.0908451182565773
8.122900000000001,15.923985028800464,0.0906995093653182
8.125295999999999,15.950433543242331,0.090537092045507
8.127680000000002,15.97180692100473,0.0903962295791534
8.13006,15.991829824326768,0.0902669534526557
8.132476,16.018929965074694,0.0901088126613221
8.13486,16.045098940262843,0.0899537603597416
8.137243999999999,16.069545353958297,0.089801091476724
8.139644,16.093060602093974,0.0896514361706445
8.142032,16.118298411722343,0.0894996712049305
8.144411999999999,16.147680192470407,0.089329605848663
8.146816000000001,16.170915901352362,0.0891857342731189
8.149204000000001,16.197504185421092,0.0890239429134656
8.151584,16.221438742437343,0.088866713777504
8.153987999999998,16.245792608334177,0.0887016324525907
8.156372000000001,16.268144373484592,0.0885447613592558
8.158756,16.28635216751532,0.0884057759268104
8.161152000000001,16.304559961546044,0.0882673896517086
8.163536,16.320114028524294,0.0881331937341442
8.165916,16.33715833956976,0.0879855137719941
8.168323999999998,16.346473786883283,0.0878622456047895
8.170708000000001,16.35192480233083,0.0877510437768043
8.173092,16.35830698333816,0.0876377574572275
8.175488000000001,16.370695466584735,0.0875026636701501
8.177872,16.387088151324146,0.0873534563624809
8.180256,16.399476634570725,0.0872191874728309
8.182659999999998,16.412796283377077,0.0870831156252393
8.185044000000001,16.42732663699693,0.0869395172121509
8.187428,16.439203263564313,0.0867997674267779
8.189832,16.452709903825767,0.0866440447053618
8.192215999999998,16.46449398259453,0.0864902457053454
8.194596,16.48149296766962,0.0863143591406432
8.197,16.49569845606538,0.086145849151945
8.199387999999999,16.512837210767334,0.0859684662862025
8.201768000000001,16.52583199434959,0.0858081416682218
8.204172,16.53868700830499,0.0856507767262323
8.20656,16.556896698193583,0.0854690398501681
8.208939999999998,16.574454761776117,0.0852844916294566
8.211331999999999,16.598810523530823,0.0850806641183933
8.213719999999999,16.620093249352472,0.0848887507032337
8.216096,16.645659715920676,0.0846775943317895
8.218492000000001,16.672157348048657,0.0844640491126128
8.220876,16.700936620176776,0.0842393200220846
8.223256,16.723057963759583,0.0840321144944651
8.225660000000001,16.741734184357004,0.0838284072076826
8.228048000000001,16.76096948346186,0.0836137392749569
8.230428,16.777830594767966,0.0833972738327276
8.232824,16.79348100126057,0.0831886550536308
8.235208,16.813927005178925,0.0829679871290533
8.237587999999999,16.836095570589976,0.082747228369688
8.239984,16.862268337493866,0.0825144448247238
8.242367999999999,16.888580874024612,0.0822800189413879
8.244748000000001,16.912099913876023,0.0820515528633722
8.247156,16.93710919779465,0.081811814373333
8.24954,16.961466855407227,0.0815679890463871
8.251919999999998,16.991039419326135,0.0813055597012006
8.254316,17.02033244399132,0.0810497131002488
8.256699999999999,17.047623367910088,0.0808005982071186
8.25908,17.066905888843188,0.0805771041936771
8.261475999999998,17.087259344962927,0.0803489817544023
8.263864000000002,17.10640209626917,0.0801284896736389
8.266244,17.129176962015908,0.0798873457345818
8.268640000000001,17.145805755896536,0.0796676737699054
8.271028000000001,17.165228046456498,0.0794426498015395
8.273408,17.183439632202955,0.0792248949601326
8.275811999999998,17.20630704574831,0.0789994922640387
8.278196000000001,17.23089702078636,0.0787738290962385
8.280576,17.25669770063791,0.0785417045520906
8.282976000000001,17.27984465343699,0.0783129091053864
8.28536,17.300337879183584,0.0780873359934317
8.28774,17.316035507504434,0.0778733323893065
8.290132,17.32879986951909,0.0776671662417029
8.29252,17.343286793026436,0.07746040989767
8.294899999999998,17.352558810227453,0.0772724571575902
8.297296,17.368908064854363,0.0770635850384628
8.299684,17.378459621309098,0.0768714820344976
8.302064000000001,17.387359551457777,0.0766763271770897
8.304476000000001,17.39747018641995,0.0764746284512343
8.306864000000001,17.41093339656891,0.0762579279737967
8.309244,17.42760941227778,0.0760294845535227
8.31164,17.445496132800148,0.0757949041539448
8.314028,17.463103314068796,0.0755665295282516
8.316408,17.485785632016913,0.0753234000593574
8.318804,17.510749589965172,0.0750705217526717
8.321192,17.537855418286707,0.0748101537190862
8.323571999999999,17.563098915488688,0.0745541449589783
8.325987999999999,17.588342412690665,0.0742988974880193
8.328372000000002,17.612934283586583,0.0740407007782665
8.330752,17.63831755041542,0.0737843127409895
8.333148000000001,17.659696615751425,0.0735381997155515
8.335539999999998,17.68014451552765,0.0732933925707857
8.33792,17.703153594557733,0.0730338950029634
8.340316000000001,17.727373378401317,0.0727686425333447
8.3427,17.754805967804817,0.0724922926976053
8.345084,17.77809458608862,0.0722298961214191
8.347496,17.80552717549212,0.0719555329744232
8.349884,17.832168368962698,0.0716807584998652
8.352264000000002,17.859740727993053,0.0714054959570871
8.354659999999999,17.88945495739669,0.0711238913312059
8.357047999999999,17.91530475493435,0.0708502640896741
8.359428000000001,17.941154552472014,0.0705775261470136
8.361823999999999,17.963279687770562,0.0703100460718233
8.364211999999998,17.983682261576416,0.0700432916460462
8.366588,18.001011799449213,0.0697854851175391
8.369004,18.015408071015813,0.0695337541528037
8.371388,18.026079680343305,0.0692868686687857
8.373767999999998,18.036239432991596,0.0690342798962108
8.376164,18.04905291269236,0.0687816546671425
8.378551999999999,18.06321686683349,0.06852152781778
8.380932000000001,18.086460159146917,0.0682404801847399
8.383344000000001,18.11184532183362,0.0679527435943304
8.385732,18.137090714893468,0.0676685730547333
8.388112,18.162755416833896,0.067378246745831
8.390516000000002,18.18562662209499,0.0670913759019993
8.392900000000001,18.20770643142317,0.0668033936273981
8.39528,18.226573435191423,0.0665261558397053
8.397684000000002,18.246371604519464,0.0662486814064604
8.400072000000002,18.26565791716831,0.0659657655453273
8.402452,18.28201096351095,0.0656886862126072
8.404851999999998,18.301297276159787,0.065406887708169
8.407240000000002,18.318861027315933,0.0651249891996181
8.40962,18.33935804477827,0.0648384757376149
8.412023999999999,18.359715292613743,0.0645548474724911
8.414411999999999,18.383564885262857,0.0642577453651819
8.416792000000001,18.407833786792555,0.06395352951719
8.419196,18.432242457949112,0.0636468978689373
8.421579999999999,18.45464902835925,0.0633445886413024
8.423964000000002,18.4706772094778,0.0630458237407119
8.426368,18.48218933242432,0.0627490299761887
8.428752,18.487695153131583,0.0624648041705307
8.431132000000002,18.49334074346572,0.0621786212224033
8.433536,18.49684446342657,0.0618988576447267
8.435924,18.49899770894706,0.0616272187247207
8.438303999999999,18.503013285587105,0.0613542174346974
8.440708,18.51145237260057,0.0610676801854214
8.443096,18.52217309961417,0.0607732796677448
8.445476,18.53224220032171,0.0604755636641372
8.447872,18.54110059621576,0.060183390895825
8.450256,18.55303202804286,0.0598854487495901
8.452635999999998,18.562169963190623,0.0595895583463336
8.45504,18.573449768711665,0.0592884331938551
8.457428,18.584077947926648,0.0589839729809612
8.459807999999999,18.59205240008916,0.0586787901507581
8.462212000000001,18.59667427706489,0.0583848660915299
8.464596,18.606091751466376,0.0580867104082577
8.466975999999999,18.618722031427776,0.057780662164872
8.469380000000001,18.63442534732223,0.0574690566247068
8.471768,18.65413286470952,0.0571510509409243
8.474148,18.674212469149147,0.0568413805093282
8.476552000000002,18.69270928172294,0.056528001066113
8.478940000000001,18.71227702948337,0.0562127974518747
8.48132,18.730122215751106,0.0558960308464207
8.483716000000001,18.745313674966365,0.0555782137015964
8.486108000000002,18.757571867875427,0.0552637804761415
8.488488,18.76247328410488,0.0549657897870378
8.490884000000001,18.760577002162165,0.054674370701628
8.493272000000001,18.75160348279356,0.0543935763817137
