Time,Force,Position
8.079672000000002,14.260898518798502,0.1459507609473227
8.082123999999993,14.28375834891238,0.1458053069558048
8.084564,14.311740537533971,0.1455971699127145
8.087015999999991,14.337068999103089,0.1454035589672694
8.089459999999988,14.366309114366423,0.1451616155652697
8.091904,14.400531818510617,0.1448629745786646
8.094343999999992,14.431029860415691,0.1445897799698334
8.09678799999999,14.460084880081792,0.1443183982645749
8.099227999999997,14.490490374188251,0.1440306462021386
8.101664,14.530254745720738,0.1436637975143357
8.104112,14.563081649454196,0.1433526256514759
8.106551999999994,14.600052524307348,0.1430062210584744
8.10899599999999,14.638466421399476,0.1426607296188918
8.111443999999992,14.674598678491463,0.142339181378905
8.113887999999989,14.70658696446376,0.1420527892238385
8.11633599999999,14.742719221555747,0.1417321849398299
8.118775999999997,14.780853579394153,0.1413958164563866
8.12121599999999,14.817777232419065,0.1410731454701615
8.123660000000001,14.8496257487645,0.1407923906564091
8.126108000000002,14.875887271751266,0.1405481665464213
8.128551999999999,14.899355298058694,0.1403220806570998
8.130991999999992,14.918399813992709,0.1401380505412535
8.133427999999995,14.932369193247254,0.1399948018923787
8.135871999999992,14.949551378061711,0.1398229027106151
8.138315999999989,14.965802397316397,0.1396581594404002
8.14076,14.974696639891468,0.1395563354533756
8.14322,14.98401019134712,0.1394435570681741
8.145655999999988,14.992252807616136,0.1393401660181244
8.160343999999995,14.951477993730338,0.139293894729664
8.162791999999996,14.939421959139333,0.1392938628779755
8.165223999999995,14.92606267193621,0.1392904046878196
8.167667999999992,14.911260362494112,0.1392874213742589
8.170107999999999,14.896085965999678,0.1392757310847779
8.172556,14.879748086519983,0.1392575197167443
8.174995999999993,14.862339271853658,0.1392487793498392
8.177436,14.84534976606791,0.1392291141617792
8.179879999999997,14.82985050434938,0.1391893149999757
8.18231999999999,14.817424278563903,0.1391249877927375
8.184764000000001,14.802204556099095,0.1390777443855414
8.187215999999992,14.781769927327954,0.1390734871259148
8.189672000000002,14.761335298556812,0.139069536673372
8.192127999999997,14.743554396838144,0.1390516996877909
8.194575999999998,14.727915365492755,0.1390150149061352
8.197023999999999,14.713347269334005,0.1389689784787957
8.199467999999996,14.703994079481587,0.138879699073472
8.201915999999997,14.695292515935227,0.1387918785290773
8.204359999999994,14.686171643508285,0.1387149001680997
8.206812,14.682777534066874,0.1385999063849643
8.209255999999996,14.682828547610857,0.1384693478774444
8.211699999999993,14.68152908671448,0.1383553368484194
8.214147999999994,14.6771093680568,0.1382853841103399
8.216591999999991,14.674272441264964,0.1382112890832137
8.219031999999999,14.67394947189874,0.1381274621010198
8.221475999999996,14.677863021450822,0.1380261648592892
8.223919999999993,14.690296830667773,0.1378708590140344
8.22636,14.705896223616396,0.1377079854980723
8.228803999999997,14.724800969923551,0.1375340214214573
8.231251999999998,14.74128430660371,0.1373857081030657
8.233711999999997,14.76321486701568,0.137208090535933
8.236167999999992,14.790732420786316,0.1369971028959725
8.238608,14.821183240863151,0.1367656761815784
8.241056,14.851354521686265,0.1365426201592994
8.243499999999997,14.8798957888153,0.1363432875564121
8.245964,14.912953114116362,0.1361209825283083
8.248403999999994,14.943589029790427,0.1359247488565138
8.250855999999999,14.977297981397552,0.135706170586546
8.253299999999996,15.010867163377815,0.135491035343308
8.255743999999993,15.045227741290995,0.1352755913146941
8.258191999999994,15.07772598808462,0.135071627212066
8.260635999999991,15.113157501184435,0.1348483580169537
8.263075999999998,15.150079258351475,0.1346051418935699
8.265512000000001,15.187792411451433,0.1343610257594408
8.267955999999998,15.223503463804972,0.1341317945468445
8.270404,15.25907474653165,0.1339072285223549
8.272847999999996,15.28863972701908,0.1337264309150271
8.275300000000001,15.315550980454036,0.1335586438865917
8.27773599999999,15.339808506836516,0.1334037467534582
8.280187999999995,15.368210004338687,0.1332180444713302
8.282627999999988,15.391815904415113,0.1330624668538284
8.285067999999995,15.412768077439056,0.1329195529396419
8.287515999999997,15.433440711209284,0.1327838192735412
8.289959999999994,15.453182179419732,0.1326536781723969
8.29240399999999,15.477207388376735,0.1324899911550305
8.294843999999998,15.497368165467764,0.1323508391656732
8.297287999999995,15.51738917293193,0.1322150355927844
8.299735999999996,15.53591993632888,0.1320986984060983
8.302175999999989,15.553799073419771,0.1319805029727065
8.30462,15.567022382711771,0.1318877769189423
8.307063999999997,15.582247792750188,0.1317819189619382
8.309495999999996,15.595610871669049,0.1316863937466561
8.311951999999991,15.612838382453884,0.1315680923922264
8.314391999999998,15.62955403655952,0.1314451956015774
8.316843999999989,15.647620165105511,0.1313075656471361
8.319288,15.663963732158813,0.1311767741985629
8.321739999999991,15.678864276973137,0.1310455934474927
8.324179999999998,15.69283365622768,0.1309193132952817
8.32663199999999,15.706942805109083,0.1307898063687058
8.329076,15.722914285110043,0.1306516793934488
8.331519999999998,15.740096469924506,0.130501977068441
8.333967999999999,15.758349589925604,0.1303443755537474
8.336407999999992,15.776230622874364,0.130178592535965
8.338851999999989,15.792668633584151,0.1300126973707643
8.341296,15.802588485375486,0.1298809572644589
8.343739999999997,15.814789977166958,0.129729981585297
8.34617999999999,15.829552648212292,0.129553275074943
8.348624000000001,15.841149735525953,0.1293826101003754
8.351072000000002,15.855680089145803,0.1291945732670213
8.353515999999999,15.87500604019141,0.1289797165046458
8.355971999999994,15.893121286423517,0.1287768427801171
8.358412000000001,15.912447237469122,0.128563073024024
8.360851999999994,15.92404432478278,0.1283937614170138
8.363299999999995,15.933359772096304,0.1282438269902849
8.365747999999996,15.942395680156109,0.1281007924330644
8.368191999999993,15.953573458589185,0.1279422274612024
8.370639999999995,15.970617769634655,0.1277497208805388
8.373083999999992,15.991526512546098,0.1275359072708676
8.375531999999993,16.01643945695037,0.1272983218242835
8.377972,16.030830040943368,0.1271177404185271
8.380415999999997,16.044149689749723,0.1269449821364081
8.38285599999999,16.057329568929216,0.1267758579074067
8.385291999999993,16.07223200960141,0.1266013207470883
8.387748000000002,16.088717242139435,0.1264243123551271
8.390191999999999,16.108647597662856,0.1262353354491101
8.392635999999996,16.125504917253224,0.1260668147527067
8.395088000000001,16.141942927963008,0.1259087424159774
8.397531999999998,16.1650388672181,0.1257168620815778
8.39998399999999,16.191207842406246,0.1255069143571811
8.402423999999996,16.213652155355284,0.1253152684857166
8.40486399999999,16.232371806065206,0.1251409602486525
8.407308,16.251603313454325,0.1249723702285109
8.409756000000002,16.27777228864247,0.1247634952328669
8.412199999999999,16.30422080308434,0.1245480281438184
8.414639999999991,16.328667216779788,0.1243446081543318
8.417083999999988,16.352973860848383,0.1241454025597515
8.419528,16.371925828983784,0.1239844329574296
8.421971999999997,16.386082199693433,0.1238485808791409
8.424415999999994,16.393952728910108,0.1237546982658042
8.426863999999995,16.41341655372471,0.1235997195192034
8.429299999999998,16.44074901189811,0.1234022506415089
8.431751999999989,16.467150304511737,0.12320936751278
8.434196,16.49476230193886,0.1230073141656189
8.436635999999993,16.52144313380621,0.1228098035217226
8.43907999999999,16.55054537530055,0.1225924994728816
8.441524000000001,16.58658508459392,0.1223381506823237
8.443972000000002,16.6209022323946,0.1220897444702316
8.446416,16.647862603515666,0.1218894939548308
8.448852000000002,16.66881667239748,0.1217240411261976
8.45129999999999,16.689351432398716,0.1215675431872703
8.453744,16.71682366019898,0.1213735093521748
8.456187999999997,16.744435657626102,0.1211771892878317
8.45862799999999,16.770836950239726,0.1209921327053424
8.461063999999993,16.801754301025387,0.1207906778107661
8.463519999999988,16.8369553925576,0.120561745361984
8.46596799999999,16.87001461371653,0.1203474296567215
8.468412,16.90242220856941,0.1201304767213183
8.470860000000002,16.941627501594454,0.1198804615958076
8.473315999999997,16.982834895365915,0.1196188682174013
8.475771999999992,17.01803598689813,0.1193918418183461
8.478212,17.043226574698256,0.1192202994796832
8.48066,17.072421363991218,0.1190279574474904
8.483103999999997,17.099474282910904,0.1188504363005954
8.485551999999998,17.12946046813678,0.1186589972556926
8.487995999999995,17.155023142989247,0.1184983555660573
8.49045199999999,17.172577414856043,0.1183809699218635
8.492891999999998,17.192925183402174,0.1182526297697951
8.495335999999995,17.21955879344128,0.1180870500622008
8.497783999999996,17.248054734599936,0.1179139983264681
8.500227999999993,17.282836517251567,0.1177044325027669
8.502675999999994,17.315755968783638,0.1175039283025683
8.505119999999991,17.348163563636515,0.1172992918354775
8.507564000000002,17.379919532183333,0.1170933591810732
8.510011999999989,17.410232478491174,0.1168874850118139
8.512456,17.440265885545298,0.1166888030209706
8.514904000000001,17.473791637413058,0.116465758289398
8.517364,17.513323691520068,0.1162132783821424
8.519815999999992,17.548060148201323,0.1159829810329181
8.522263999999993,17.59029315118905,0.115709952882044
8.524711999999994,17.634016398243993,0.1154226421048176
8.52715599999999,17.682954551605274,0.1151063160351846
8.529603999999992,17.725234776421246,0.1148181695981123
8.532047999999989,17.76858593642385,0.1145248615451185
8.534499999999994,17.810354304560622,0.1142343498701425
8.536947999999995,17.854683851951254,0.1139231122883756
8.539391999999992,17.902226204901798,0.1135930869213084
8.541832,17.94618366524009,0.1132750540731902
8.544275999999996,17.987627168152766,0.1129636530327574
8.54671599999999,18.03056091513266,0.1126389581620208
8.54916,18.070701165433224,0.1123267846460304
8.551603999999998,18.112052120547283,0.1120076274824479
8.55404399999999,18.15326330603449,0.1116923202473881
8.556488000000002,18.195545426708325,0.1113723038273227
8.558935999999989,18.23475451144911,0.1110683439706646
8.56138,18.27037870357764,0.1107755086662649
8.563835999999995,18.30185892458648,0.1105047463995775
8.566276000000002,18.32933494410248,0.1102534328693737
8.568723999999989,18.35695073324534,0.1099997005772605
8.571168,18.37441624902926,0.1097951164865879
8.573619999999991,18.39309246962668,0.1095828036205994
8.576064000000002,18.412187999104678,0.109363368484715
8.578515999999993,18.436498434889007,0.1091178552105962
8.580956,18.45908630918064,0.1088765480685773
8.583399999999997,18.481534413845413,0.1086385941973855
8.58583999999999,18.505984619256605,0.1083929616519297
8.588284000000002,18.529503659108013,0.1081508490845936
8.590723999999994,18.55409363414607,0.1079032530540138
8.593171999999996,18.57654173881084,0.1076674325849091
8.59562799999999,18.59605657716942,0.1074438565521179
8.598075999999992,18.613848854035304,0.1072242735702004
8.600519999999989,18.627776699035213,0.1070198024732659
8.602971999999994,18.64291524884862,0.1068077864314475
8.60542799999999,18.65619146754247,0.1066021575964231
8.607883999999999,18.67375142698287,0.1063749775576919
8.610323999999991,18.69545535754297,0.1061290941744956
8.612771999999993,18.71930115847635,0.1058725386333729
8.61521599999999,18.74663930422336,0.1055953790600516
8.61766399999999,18.77518815478387,0.1053108324527641
8.620111999999992,18.80895191165072,0.1050019229210572
8.622559999999993,18.83922332370392,0.1047151234158079
8.62500399999999,18.86707332613013,0.10444514735686
8.627448000000001,18.8955749548624,0.104179002376958
8.629887999999994,18.923797044340944,0.1039183558501957
8.632331999999991,18.95537170900627,0.1036406741320593
8.634771999999998,18.98308194180561,0.1033773364368754
8.637211999999991,19.012002879418468,0.1031068142956003
8.639656000000002,19.041854982591094,0.1028342469078077
8.642095999999995,19.073709186510136,0.1025541998373543
8.644539999999992,19.10821711748165,0.1022693223578035
8.646991999999997,19.13937247326639,0.1020024484418018
8.649435999999994,19.17318155610361,0.101730762365061
8.651888,19.20806157412747,0.101455528463267
8.654327999999992,19.24280182252446,0.1011832827027274
8.656768,19.27633136610796,0.100920199925947
8.659211999999997,19.308650204877956,0.1006661700007727
8.661655999999994,19.34003787808817,0.1004153325166471
8.66409999999999,19.36993530723117,0.1001783637895786
8.666539999999998,19.401695067493733,0.0999375665177712
8.668976,19.43145272700987,0.0997050312403996
8.671419999999998,19.465494127272564,0.0994533809124148
8.67385999999999,19.50302787234889,0.0991831147038538
8.676304000000002,19.536557415932396,0.0989282524231777
8.678751999999989,19.572368599516025,0.0986619397866844
8.681196,19.60282510716647,0.0984209425071315
8.683647999999991,19.639939543362217,0.0981621144981749
8.686087999999998,19.676774440304243,0.097908994376203
8.688527999999991,19.715471668365836,0.0976523441956952
8.690975999999992,19.756170997173832,0.0973898855229637
8.693432000000001,19.799012196355115,0.0971195818763302
8.695875999999998,19.85186389926848,0.0968156405648913
8.698324,19.90685747255512,0.0965042847653517
8.700755999999998,19.959429636214768,0.0962084599741912
8.703204,20.016006001367245,0.0959004296914161
8.705643999999992,20.06922979133294,0.0956090930262045
8.708091999999994,20.120311710925368,0.0953277833858479
8.710532,20.17311619201049,0.09504537173378
8.712975999999998,20.22512927716269,0.0947639171258592
8.715427999999989,20.278213297501534,0.0944801393508914
8.717872,20.33395104489285,0.0941934057762119
8.720315999999997,20.38754692191088,0.0939169961257469
8.722768000000002,20.442585821167903,0.0936456739501606
8.725223999999997,20.50055798673111,0.093366370050495
8.727679999999992,20.559181778600383,0.0930912093449932
8.73012,20.623811872708902,0.0927981750926509
8.732559999999992,20.686719405324723,0.0925098602273312
8.73500399999999,20.7526999738736,0.0922126524893303
8.737459999999999,20.821613808728674,0.0919098438600042
8.739903999999996,20.889316938770246,0.0916152580087201
8.742356000000001,20.95208470175921,0.0913362054010293
8.744799999999998,21.00991709769556,0.0910736818122911
8.747243999999995,21.06295389620616,0.0908240939964203
8.749687999999992,21.11533906841069,0.0905725413754204
8.752139999999997,21.16586190949568,0.090326386479943
8.75457999999999,21.222018965767575,0.0900564229934156
8.757024000000001,21.28259953241289,0.0897694326710086
8.759467999999998,21.34546173905834,0.0894740112815248
8.761907999999991,21.41139698163684,0.0891705503517866
8.764352000000002,21.473048483468787,0.088884412926834
8.766803999999993,21.537121394927738,0.0885882781899513
8.76924799999999,21.60454688157346,0.088279989577043
8.771695999999991,21.667456310047147,0.087979932470863
8.774135999999999,21.733997852961338,0.0876641239879298
8.776575999999991,21.801098474382965,0.0873417616699573
8.779019999999988,21.8635432680057,0.0870295755140675
8.78146799999999,21.921052694575824,0.0867312657920052
8.783912,21.97604816372034,0.0864353935791264
8.786355999999998,22.02387384764034,0.0861497999652857
8.788787999999997,22.06946511338845,0.085861429406867
8.791231999999994,22.11640685357692,0.0855655664599854
8.793683999999999,22.160043240406853,0.0852704771075074
8.796127999999996,22.205821497610067,0.0849686456629562
8.798580000000001,22.25201906369386,0.0846612348631153
8.801012,22.29784454272532,0.0843484149854177
8.803463999999991,22.33929373321161,0.0840405987478063
8.805908000000002,22.37701826145878,0.0837402752145201
8.808343999999991,22.41129766672056,0.0834431644974213
8.810788000000002,22.439198682690744,0.0831551547747695
8.81323599999999,22.466075985302545,0.0828579234223521
8.81568,22.484712567503195,0.0825725370844874
8.818128000000002,22.49576005559876,0.0823011914443399
8.82056399999999,22.503502190335794,0.082029317232254
8.823008000000002,22.50272406540796,0.0817727614810227
8.825447999999994,22.492494515255483,0.0815321042619543
8.827891999999991,22.47909938137133,0.0812885846748231
8.830331999999999,22.46146772856887,0.0810452944498026
8.832775999999996,22.440111413527298,0.0808073530829742
8.835228,22.41875509848572,0.0805690013067825
8.837667999999994,22.398609488257648,0.0803250456567869
8.84011199999999,22.37809179097724,0.080074151781996
8.842556000000002,22.356782697763908,0.0798220527735623
8.845019999999991,22.33109731600541,0.0795722044268034
8.847467999999992,22.302758207194437,0.0793238946149054
8.84991199999999,22.27227722801017,0.079082093572658
8.852347999999992,22.243798349572337,0.0788354518790378
8.85479199999999,22.21187434814911,0.0785893489117419
8.857236,22.177156850046543,0.0783465683603405
8.859679999999997,22.14551238787704,0.0780954733368389
8.86211999999999,22.112796990520888,0.0778470155564661
8.864555999999993,22.08287508984408,0.0775941968780135
8.86699999999999,22.06030996584687,0.0773204171808636
8.869439999999997,22.04039856890214,0.0770444649842508
8.871883999999994,22.021138798263475,0.076770611950788
8.874336,22.01282069691667,0.0764731950698014
8.876779999999997,22.006225157062552,0.0761749012529532
8.879232000000002,22.005496149820832,0.0758649727661271
8.881675999999999,22.006769243325525,0.0755504485551565
8.884115999999992,22.007250940897304,0.0752347030496694
8.886559999999989,22.0055907680958,0.0749253559482169
8.889011999999994,22.00164895529416,0.0746241341333055
8.891455999999991,21.998498538425444,0.0743234205975332
8.893907999999996,22.00014371898248,0.0740150321843738
8.896351999999993,22.002580295472427,0.0737072268987899
8.898792,22.00222337528304,0.0734023463522857
8.901235999999997,21.99572038322755,0.0731118401729369
8.90367599999999,21.99373344934409,0.0728178708897135
8.906120000000001,21.9926776810204,0.0725224947622313
8.908563999999998,21.98948004232344,0.0722332872419271
8.911019999999994,21.988424273999755,0.0719377326693545
8.91346399999999,21.988299671235847,0.0716413193837744
8.915908000000002,21.97881619104591,0.0713680181342878
8.918359999999993,21.97040364604261,0.0710917295047044
8.92080399999999,21.967066237718797,0.070804543294753
8.923255999999995,21.95851392308864,0.0705308103995361
8.925699999999992,21.951544400324323,0.0702590907718212
8.928139999999999,21.945086734239204,0.0699927015563763
8.930583999999996,21.94049139927364,0.0697246463572519
8.933027999999993,21.93747885617391,0.0694584870467633
8.93547199999999,21.9364684138206,0.0691885262647835
8.937916000000001,21.9391826337064,0.0689150071164788
8.940359999999998,21.946692451017952,0.0686355376726601
8.942808,21.95485389463557,0.0683599168089634
8.945247999999992,21.969813036425347,0.0680751982693786
8.94769199999999,21.989428006014023,0.0677863704993689
8.950136,22.01556113452114,0.0674917996015114
8.952568,22.039272853401265,0.0672072332058838
8.955023999999995,22.06857156564006,0.0669187401127241
8.957467999999992,22.09852190418491,0.0666335119826127
8.959915999999993,22.132988300901797,0.0663475006567807
8.96235999999999,22.16517305761853,0.0660692471294158
8.964811999999995,22.20522644769409,0.0657791519390933
8.967255999999992,22.24500029851593,0.0654937059359471
8.969699999999989,22.2804904085912,0.0652197233418149
8.972135999999992,22.31476981385298,0.0649505596399688
8.974579999999989,22.349188988741613,0.0646800613693119
8.977024,22.381885602137555,0.0644096384500104
8.979467999999997,22.410578014040667,0.0641462477570843
8.981915999999998,22.44248323150369,0.0638757604755742
8.984347999999997,22.473969140086137,0.0636116449682928
8.986791999999994,22.50545504866858,0.0633483789334495
8.989232000000001,22.53279698613133,0.0630942452705434
8.991675999999998,22.559487297288022,0.0628378751266327
8.994124,22.58031107583233,0.0625900560340767
