Time,Force,Position
8.167691999999999,15.024886408202793,0.1327440060290993
8.170096,14.997892086258569,0.1326244819864071
8.172483999999999,14.969454742075364,0.132504692789692
8.174864,14.94273995938486,0.132377378753801
8.177264,14.909739335201383,0.1322992188503531
8.179651999999999,14.879252668443526,0.1322121054732893
8.182032,14.84899831911114,0.1321372858068531
8.184436,14.81948814388343,0.1320794680047268
8.186819999999999,14.795425192387532,0.1319932678150879
8.189204,14.773968746115864,0.1319137381336932
8.1916,14.753116704322013,0.1318550277336037
8.193988,14.742227944432,0.131745978853537
8.196368,14.736506869020076,0.131616153223316
8.198763999999999,14.729947175846991,0.1315073520256088
8.201148,14.724131656778583,0.1314163175926566
8.203527999999999,14.72520638368096,0.1312981273765868
8.205928,14.734941139875062,0.1311274047917585
8.208316,14.750123119800977,0.1309299224912037
8.210695999999999,14.767958826779363,0.1307202785520465
8.213099999999999,14.79138152711642,0.130480494236287
8.215484,14.808518385960507,0.1302882654254242
8.217863999999999,14.831382007790124,0.1300614540084373
8.220267999999999,14.856480047791637,0.1298331470582266
8.222655999999999,14.882229714099202,0.129607474204907
8.225036,14.915568474511854,0.1293375048387088
8.227432,14.950117939738009,0.1290557734526877
8.22982,14.984574857165548,0.1287578169048374
8.232199999999999,15.013444781234414,0.1284900380373531
8.234604,15.039800747877669,0.1282312771893474
8.236991999999999,15.061920195602603,0.1279883895405068
8.239372,15.082736390715432,0.1277423182547319
8.241776,15.09703442690981,0.1275317161851291
8.244159999999999,15.108166879372511,0.1273273316930337
8.24654,15.122651907021996,0.1270944912829555
8.248944,15.138115322059496,0.1268380401977257
8.251327999999999,15.149202448551826,0.1266005634186748
8.253708,15.151722093551047,0.1264304122736857
8.256112,15.151448241870934,0.1262751847337
8.258496,15.155737670191096,0.1260808894402798
8.260876,15.15444010515259,0.1259153189971161
8.26328,15.163292813473026,0.1256819604297695
8.265668,15.175218557726518,0.1254289169895248
8.268048,15.190357107539924,0.1251525627167302
8.270444,15.20577519660705,0.1248702564891032
8.272827999999999,15.220541659368122,0.1245874105740279
8.275208,15.237170453248748,0.1242963244575151
8.277612,15.258827161980603,0.1239922835902887
8.279995999999999,15.288632043324988,0.1236359539655357
8.282376,15.319879946908346,0.1232810510624024
8.28478,15.35271064235754,0.122924385848189
8.287168,15.384330632993237,0.1225791540860705
8.289548,15.422748321801102,0.1221968887041283
8.291952,15.46661323434078,0.1217927390828154
8.294336,15.510338377253593,0.1213942544107173
8.296716,15.550431405725911,0.1210291223282994
8.29912,15.59038466457137,0.1206680986928486
8.301508,15.631828167484048,0.1202887591520675
8.303887999999999,15.672200735210088,0.1199173642184582
8.306292,15.707218627002934,0.1195861782921962
8.308676,15.745821411408034,0.119240810957495
8.31106,15.777207188760386,0.1189437063157057
8.313455999999999,15.802446894246623,0.1186864358016274
8.31584,15.824893103053526,0.1184431844478102
8.31822,15.845476980740871,0.1182089406112932
8.320623999999999,15.861777117681664,0.1180048977794639
8.323008,15.87686654980896,0.117812301249851
8.325388,15.885437823017806,0.1176492537235868
8.327784,15.890656521039876,0.1175122680065839
8.330167999999999,15.892569865703418,0.1173820854185012
8.332552,15.8908983177547,0.1172651029721336
8.334947999999999,15.890577244246344,0.1171343652664771
8.337332,15.88480894700618,0.1170251778459454
8.339711999999999,15.87559552678062,0.116925984106725
8.34212,15.859863947636615,0.1168549543426146
8.344503999999999,15.850697749239304,0.1167373566600234
8.346884,15.838738054162654,0.1166316401718623
8.349283999999999,15.82784929427264,0.1165185953311297
8.351671999999999,15.81602936882285,0.1164094027424978
8.354052,15.806351313746337,0.1162857522314865
8.356451999999999,15.796021632363766,0.1161597288683084
8.358839999999999,15.78317799355558,0.1160389751921061
8.36122,15.772476225120672,0.1159036773495453
8.363615999999999,15.761494917432044,0.1157747011541475
8.366007999999999,15.748092200116416,0.1156662869134538
8.368388,15.739764619480262,0.1155282889796551
8.370783999999999,15.729714477351411,0.1153950377434058
8.373168,15.721526666342118,0.115253560737631
8.375563999999999,15.711476524213268,0.1151200276616101
8.37796,15.70608220988331,0.1149665382404103
8.380348,15.703341622605826,0.1148041148523662
8.382728,15.70097312238068,0.1146506374467481
8.385131999999999,15.702189514767786,0.1144846943470237
8.38752,15.699913562341257,0.114346277536401
8.389899999999999,15.703224603273398,0.1141839592026389
8.392296,15.69810793233929,0.1140755110033375
8.394684,15.697647089204072,0.1139474287726623
8.397064,15.694113210135802,0.1138373163705526
8.39946,15.69151049662731,0.1137231236605819
8.401843999999999,15.689699179051733,0.1136084423054645
8.40424,15.68681692628952,0.1135008072062447
8.40664,15.69324632912509,0.1133545190564395
8.409028,15.701677832707077,0.1131977578013424
8.411408,15.708386774796365,0.1130454342003018
8.413812,15.721241788751763,0.1128575337960977
8.416196,15.729161435654555,0.1126954400254007
8.418576,15.738152017743984,0.1125264750041429
8.420971999999999,15.752217736512884,0.1123297624948038
8.423356,15.763350188975586,0.1121469760221967
8.425735999999999,15.773271936624791,0.1119748942097848
8.428139999999999,15.784264619460636,0.1117962145992833
8.430524,15.792743344870866,0.1116224939977748
8.432903999999999,15.79800926472118,0.1114696731515067
8.4353,15.807698694944907,0.1112861357581991
8.437683999999999,15.81538602442222,0.1111133507622647
8.440064,15.826006620205725,0.1109256339323872
8.442459999999999,15.831691848936618,0.1107628966377508
8.444847999999999,15.84031034397371,0.1105856014382764
8.447227999999999,15.848137443077883,0.1104086721616034
8.449639999999999,15.848095908823248,0.1102708185106462
8.452027999999999,15.84977693606131,0.1101287185330209
8.454407999999999,15.847593531433398,0.1100051653559079
8.456812,15.841405925312651,0.1099026787387568
8.4592,15.836940880684605,0.1097958649565918
8.46158,15.831544670496774,0.1096929617952796
8.463984,15.828010791428502,0.1095826693421991
8.466372,15.821264106800314,0.1094925652350239
8.468752,15.808511119932875,0.1094336125101859
8.471155999999999,15.803766536051109,0.1093331713355293
8.47354,15.795157520303365,0.1092502019658598
8.475924,15.785337799742122,0.1091770673363556
8.478328,15.776961101419854,0.1091060307722955
8.480711999999999,15.770586503844005,0.1090246525573015
8.483092,15.763932367014434,0.108949529256705
8.485488,15.758069626117782,0.1088739079713912
8.487876,15.754488525221268,0.1087818130950341
8.490255999999999,15.755842791377365,0.1086656972796628
8.492659999999999,15.75891961902616,0.108545830816264
8.495047999999999,15.764789943354288,0.1084154164614353
8.497428,15.777457965854584,0.1082535851017381
8.499824,15.78905505316824,0.1080986364724005
8.502208,15.797718874175706,0.1079573754131606
8.504588,15.806103155929453,0.107822001070599
8.506984,15.815418603242977,0.1076833119886763
8.509371999999999,15.816446108317107,0.1075913183174131
8.511752,15.81840477895102,0.1074958960297154
8.514147999999999,15.825159047010684,0.107379712735407
8.516539999999999,15.832425171749543,0.1072691399300923
8.51892,15.836478490928492,0.1071789660038647
8.521324,15.846398342719828,0.1070617006201373
8.523712,15.855247259324528,0.1069509755393618
8.526092,15.865446650369586,0.1068276188590363
8.528488,15.872433235854729,0.1067239696213145
8.530876,15.880071447645928,0.1066233738194069
8.533256,15.889851529810404,0.1065099479840041
8.53566,15.899352072721156,0.1064030396808177
8.538048,15.906570975631777,0.106312438254043
8.540427999999999,15.912858712982615,0.1062255195772185
8.542831999999999,15.92072924219929,0.1061383205830136
8.545219999999999,15.93153303772216,0.1060385114734257
8.5476,15.940614271752334,0.1059422575194067
8.549999999999999,15.953699707275344,0.1058266891895588
8.552387999999999,15.966785142798352,0.1057107428858874
8.554768,15.976797542388304,0.1056109227520573
8.557164,15.993747409777288,0.105477900187301
8.559552,16.00483074455388,0.1053709388218996
8.561931999999999,16.01698501451711,0.1052581484135604
8.564335999999999,16.0317004637342,0.1051234710917656
8.56672,16.043622416271955,0.1049988611644079
8.569104,16.053682037690155,0.1048814627875397
8.571496,16.063369572056015,0.1047550192943517
8.573884,16.069052904929038,0.1046478672437702
8.576264,16.080230683362117,0.1045060643057165
8.578655999999999,16.086612864369442,0.1043837557076944
8.581043999999999,16.089130613510797,0.1042777784106123
8.58344,16.09178813227901,0.1041689627038702
8.585835999999999,16.09686706067422,0.1040416822082786
8.58822,16.10208575869629,0.1039116437851746
8.590603999999999,16.102788398546327,0.1037948822552235
8.593008,16.09562240503756,0.1037130192891368
8.595391999999999,16.093252008954543,0.1036120877061472
8.597776,16.089159051378832,0.1035146592901812
8.60018,16.09056053936317,0.1033833802913908
8.602564,16.096385537720927,0.1032244977187551
8.604944,16.10477171533254,0.1030449638967708
8.607348,16.121306065556677,0.1028253048578908
8.609736,16.13118248723551,0.1026306228072186
8.612115999999999,16.13812564260815,0.1024483960603026
8.614519999999999,16.1470708987272,0.1022568556438899
8.616907999999999,16.15187218372656,0.1020866039707645
8.619292,16.160118591711313,0.1019100680891467
8.621687999999999,16.175302467495094,0.1017032082954008
8.624075999999999,16.184340271412765,0.1015270315427262
8.626456,16.19752204645013,0.1013294356112063
8.62886,16.215499418913247,0.1011138690682594
8.631243999999999,16.231195151376223,0.1009135235051786
8.633624,16.243817847906147,0.1007286858688208
8.63602,16.25536960924943,0.1005501755188374
8.638408,16.273207212085687,0.1003393810099937
8.640787999999999,16.298401591601554,0.1000899565938869
8.643184,16.317869208131892,0.0998617754767334
8.645567999999999,16.335194954288948,0.099645483585891
8.647948,16.35117022600565,0.0994422034415416
8.650352,16.36593479290885,0.0992485219064005
8.65274,16.376415619065497,0.0990787773708244
8.655116,16.38461480522201,0.0989242234135301
8.65752,16.39760958880427,0.0987522048034988
8.659908,16.413397869065864,0.0985716886716241
8.662288,16.42997754526038,0.0983915787605729
8.664691999999999,16.454053767761362,0.0981716609202196
8.667079999999999,16.47761813358315,0.0979467809114446
8.669459999999999,16.495455736419405,0.0977423390710708
8.671864,16.517577080002216,0.0975151468946662
8.674252,16.538907027652108,0.0972884130481406
8.676632,16.558514413809302,0.0970653488914398
8.679027999999999,16.579612044033716,0.0968280769969916
8.681415999999999,16.600989213511852,0.09658504983862
8.683796,16.624648022990122,0.0963287029774255
8.686188,16.642952156535205,0.096101265423587
8.688576,16.65683277970687,0.0958994816907274
8.690956,16.67485737399823,0.0956784620874338
8.693351999999999,16.699167809782555,0.0954280505539377
8.695739999999999,16.72268684963397,0.0951783984508476
8.698124,16.745134954298745,0.094934677848373
8.70052,16.768793763777012,0.0946828593983448
8.702907999999999,16.79086978138945,0.094430942425871
8.705288,16.813085568628747,0.094176956397842
8.707688,16.834509959935126,0.0939233002980341
8.710072,16.856353660122085,0.0936619517617573
8.712456,16.870700814002575,0.0934385525918874
8.714851999999999,16.883977032696425,0.0932209914965737
8.717239999999999,16.898463956203774,0.0929952211890505
8.719624,16.91160040527076,0.0927807786461563
8.722019999999999,16.925807789524395,0.0925615655556892
8.724407999999999,16.93629051153891,0.0923522552214837
8.726787999999999,16.947052772807147,0.0921377182119065
8.729192,16.95967736519494,0.0919186011334197
8.73158,16.967366590530123,0.0917173198417891
8.73396,16.974404189559245,0.091512699899082
8.736364,16.98628460784236,0.0912768272549157
8.738752,16.99816502612548,0.0910416357104872
8.741131999999999,17.001617732542353,0.0908449474433126
8.743528,17.00642091339958,0.0906382414674222
8.745916,17.012854107950886,0.0904158220107064
8.748296,17.020358237688836,0.0901887492405849
8.750691999999999,17.029864468173198,0.0899546467577269
8.753076,17.037508367538003,0.0897253599115751
8.755472,17.045152266902807,0.089496320905194
8.757868,17.04986289996142,0.0892768856617757
8.760252,17.059276582647165,0.0890293260760763
8.762635999999999,17.069621430892692,0.088779973478766
8.765032,17.084622106937108,0.0885204409515344
8.767415999999999,17.10218396223538,0.0882437342982446
8.769796,17.12002535678738,0.0879625740349963
8.772191999999999,17.14466444951154,0.0876617413653633
8.77458,17.168092837422208,0.0873688506310934
8.776976,17.189007267907257,0.0870773315685181
8.779371999999999,17.212063568765583,0.0867759352629018
8.78176,17.237121970370325,0.0864678167048235
8.784139999999999,17.256825696041876,0.0861845079390953
8.786536,17.277460587273207,0.0859002123149041
8.788924,17.30358992406459,0.085589418714432
8.791304,17.32236248417636,0.0853089068530784
8.793707999999999,17.339784569847772,0.0850391696880251
8.796095999999999,17.356275489959405,0.084772086516901
8.798475999999999,17.37397711488454,0.0844987668138435
8.800872,17.394751775742726,0.0842149298330856
8.80326,17.416737141414412,0.0839245845906737
8.805639999999999,17.441795543019154,0.0836235599765572
8.808043999999999,17.463641139063984,0.0833366834543562
8.810431999999999,17.487116748802894,0.0830360415933089
8.812812,17.505936530742908,0.0827458727665641
8.815208,17.519681176003452,0.0824731836051646
8.817596,17.53114418126386,0.0822124527060128
8.819975999999999,17.536740653911874,0.0819684732000256
8.822379999999999,17.543687601000247,0.0817150683119085
8.824767999999999,17.55235710958132,0.0814607474911392
8.827143999999999,17.55995568297575,0.081210667513313
8.829547999999999,17.56634355155668,0.0809676560614586
8.831935999999999,17.56937884495084,0.0807395476322906
8.83432,17.567618540919245,0.0805229180151707
8.836716,17.568000107260925,0.0802983030613308
8.839103999999999,17.575598680655357,0.0800484100612989
8.841484,17.582685397370597,0.0797926585019372
8.843879999999999,17.589772114085832,0.0795372155444209
8.846264,17.596579291547346,0.0792878609566502
8.848644,17.600313433075808,0.0790490442247863
8.851044,17.60404757460427,0.0788107788062778
8.853428,17.607781716132727,0.0785730622048471
8.855808,17.61752215990044,0.0783186733175964
8.858208,17.622559554041015,0.0780887628802324
8.860591999999999,17.628667883368227,0.0778549048049412
8.862988,17.64092228456155,0.0776019645824351
8.865383999999999,17.655458325755014,0.0773387840446621
8.867771999999999,17.669202971015558,0.0770742134226785
8.870156,17.68639273926149,0.0768097714731212
8.872551999999999,17.70465344269407,0.0765419756700133
8.874939999999999,17.728129052432976,0.0762575154477147
8.877324,17.7560281725453,0.0759556752482327
8.879728,17.79663874527042,0.0756102034898999
8.882116,17.842464224301878,0.0752484379100283
8.884495999999999,17.883354336280725,0.0749001550204798
8.886899999999999,17.92266165639373,0.0745512540925679
8.889284,17.96075827169324,0.0742090218780485
8.891663999999999,18.00020536143311,0.07385925678266
8.894067999999999,18.03313429225453,0.0735190031167635
8.896455999999999,18.067413697516308,0.0731706054567267
8.898836,18.09875983647189,0.0728291988455285
8.901228,18.1262415435615,0.0724957882879346
8.903616,18.14892765322536,0.0721725732172228
8.905996,18.17231261102352,0.071836834007553
8.908392,18.19276430251548,0.0715073693744691
8.910779999999999,18.206138756581563,0.0711968140719498
8.91316,18.217511109901224,0.0708916870929864
8.915555999999999,18.232747895086856,0.0705794036654766
8.917943999999999,18.242677226167537,0.070270214595348
8.920323999999999,18.251675391688444,0.0699628037076375
8.92272,18.258671456462928,0.0696612874974308
8.925108,18.263805190117857,0.0693631523873479
8.927503999999999,18.258648880786986,0.0690937830147562
8.9299,18.25214209701575,0.0688332433219315
8.932284,18.24628693955057,0.0685761610229526
8.934664,18.241083408391457,0.0683231100632551
8.937068,18.23788197797876,0.0680655064100347
8.939456,18.23374938200628,0.0678092841807997
8.941835999999999,18.23362098752663,0.0675437158010689
8.944239999999999,18.23270119711407,0.0672769135608341
8.946627999999999,18.23527375151514,0.0669955139847579
8.949008,18.240127945916356,0.0667048406905189
8.951404,18.242328413265085,0.0664142161564829
8.953792,18.246670750987104,0.0661171146735109
8.956171999999999,18.25236356314948,0.0658115844454543
8.958568,18.26154872012548,0.065491097450815
8.960956,18.267940380422157,0.0651728563041937
8.963336,18.27288901847986,0.0648497140439256
8.965732,18.275835555791136,0.0645300509199713
8.968116,18.275197200490165,0.0642110721653633
8.9705,18.26897185183052,0.0638967073240743
8.972904,18.258090675371985,0.0635861421532625
