Time,Force,Position
11.91686,15.135261113950984,0.1437516448243726
11.919244,15.116318625104933,0.1436800221429416
11.92164,15.10733941816272,0.1435508466427527
11.924028,15.1011064860716,0.1434232909239792
11.926408,15.098550994391353,0.1432913350041046
11.928808,15.094597806442495,0.1431950463510677
11.931196,15.092087640732622,0.143097804618537
11.933576,15.098656813195053,0.1429309073119856
11.935972,15.104247598269458,0.1427892133566222
11.938364,15.117659794874433,0.1426098920437715
11.940744,15.129581747412184,0.1424508931031215
11.94314,15.14667138442803,0.142267923823403
11.945528,15.167857770735322,0.1420710173137392
11.947907999999998,15.191138805587649,0.1418750483627138
11.950308,15.221589625664482,0.1416413792910939
11.952696,15.253995324659488,0.1414129566586309
11.955091999999995,15.284491470706698,0.1412155506261054
11.957487999999998,15.31857250936616,0.1409999406224659
11.959875999999998,15.360102872503845,0.1407400790156371
11.962259999999995,15.404007423440287,0.1404749834063456
11.964655999999998,15.449634535869423,0.1402018379002757
11.967047999999998,15.4968444401644,0.1399258434459787
11.969427999999995,15.53883943815304,0.1396924064001919
11.971823999999998,15.576690465021988,0.1394919120273063
11.974211999999998,15.6117479952116,0.1393075546678455
11.976595999999995,15.64936670465507,0.139095221603043
11.978996,15.68898751484496,0.1388695915989077
11.981383999999998,15.7189699083551,0.1387250995031748
11.983763999999995,15.750023237051876,0.1385722156671658
11.986164,15.77935400425596,0.138428002794534
11.988552,15.810407332952735,0.1382768642621408
11.990931999999995,15.841600431276378,0.1381231856972209
11.993332,15.87065165922674,0.1379877594538628
11.99572,15.897980325684406,0.1378598863753929
11.998099999999996,15.921444560276097,0.1377576106007013
12.0005,15.943465772628812,0.1376563814643771
12.002888,15.96511489792919,0.1375469914449512
12.005271999999998,15.98569308804293,0.1374469057927245
12.007668,15.999892888865082,0.1373803435224568
12.010056,16.01171850188848,0.1373196272284773
12.012439999999998,16.026105294165735,0.1372323117468023
12.014836,16.034113697151405,0.1371776962533979
12.017224,16.045195136070124,0.1371009570238599
12.019607999999998,16.055485179055932,0.1370257446664074
12.022004,16.071641754654124,0.136912964150313
12.024396,16.085656459879043,0.1368174711747581
12.026775999999998,16.097669064357547,0.1367359967712109
12.029176,16.11303424402282,0.136625367045484
12.031564,16.126676862195403,0.1365219861622225
12.033943999999998,16.14031948036798,0.1364190919930926
12.036344,16.15130837148809,0.1363283686725012
12.038732,16.160155392234916,0.1362546116791221
12.041116,16.16648845555613,0.1361894988991121
12.043516,16.175103158877484,0.1361045060858265
12.045904,16.182135070333,0.1360231416008004
12.048284,16.189027212161655,0.1359452642643056
12.050687999999996,16.198061224363588,0.1358509615229718
12.053072,16.204721048766764,0.1357620829134909
12.055452,16.217387175409193,0.1356336136867297
12.057848,16.226840496491704,0.1355297274556972
12.060236,16.232569155335103,0.1354461681955483
12.062615999999998,16.244443886044618,0.1353194932944719
12.065019999999995,16.256086299328647,0.1351819963007705
12.067407999999997,16.274294093359373,0.1349924566386919
12.069784,16.28919653403156,0.1348137701412919
12.072191999999998,16.306660153957612,0.1346096549280092
12.074575999999997,16.32482262201796,0.1343900093318798
12.07696,16.349550470825005,0.1341204150773092
12.079355999999995,16.376559959632186,0.1338324150770047
12.081743999999995,16.401986656573524,0.1335483802462242
12.084124,16.431277785380843,0.1332427775565269
12.086527999999998,16.46033659676268,0.1329259823284291
12.088911999999995,16.49461031445085,0.1325734633654855
12.091296,16.52595076583283,0.1322390977202583
12.093691999999995,16.560084713894142,0.1318912059405611
12.096079999999995,16.592635870089612,0.1315467666558057
12.09846,16.62532679591195,0.1312009420831482
12.100856,16.660671448786758,0.1308450390651812
12.103244,16.688007698675904,0.1305393274776899
12.105624,16.721490020431155,0.1301932968640375
12.108024,16.75562396849247,0.1298490136916667
12.110408,16.791480478046477,0.12950104259176
12.112787999999998,16.8269176787199,0.1291637147621936
12.115191999999997,16.85700020346014,0.1288661879183544
12.11758,16.888805289693067,0.1285637981583116
12.119964,16.922193167791836,0.1282608370306323
12.122359999999995,16.953019866636748,0.1279826786955659
12.124744,16.974627457682487,0.1277641533639479
12.127123999999998,16.995303883168454,0.1275510051198545
12.12952,17.01490937346778,0.1273454160125214
12.131908,17.03200090634149,0.1271475854541905
12.134287999999998,17.052817101454316,0.1269331023238235
12.136684,17.071351656567,0.1267374016635449
12.139072,17.091888312426107,0.1265303283480607
12.141451999999996,17.1087003060461,0.1263405956314257
12.143852,17.12658323485273,0.1261437288877908
12.14624,17.139670566233608,0.1259713891823791
12.148619999999998,17.15038370981573,0.1258030846791228
12.151015999999998,17.16645152933105,0.1255981998349667
12.153403999999998,17.179353765114694,0.1253988554555944
12.155787999999998,17.191883913846,0.1251917332815582
12.158192,17.198035673285716,0.1250113540025244
12.160576,17.2026046408596,0.1248334622713323
12.162959999999998,17.20973478768734,0.1246323543312271
12.165356,17.215282142649244,0.1244340096447102
12.167744,17.21058667645359,0.1242810162077093
12.170127999999998,17.20686959764595,0.124106880986531
12.172528,17.20664486365195,0.1239051010604525
12.174916,17.200833136299277,0.1237278433282734
12.1773,17.19651165301383,0.1235343764138488
12.179696,17.193540644168735,0.1233279902499396
12.18208,17.185122411591834,0.1231432100618602
12.184459999999998,17.175261156775957,0.1229575905299912
12.18686,17.16302571416132,0.1227750693353288
12.189248,17.156284717106743,0.1225544907313142
12.191627999999998,17.149823259305887,0.122328016189404
12.194024,17.145643441505165,0.1220842027876913
12.196412,17.141463623704443,0.1218402703167635
12.198791999999996,17.135840783664744,0.1215955290806149
12.201187999999998,17.128867469184694,0.1213634362186731
12.203575999999998,17.121102758771716,0.1211320722051966
12.205972,17.11361758761246,0.1208941486652298
12.208368,17.104689394214226,0.1206548136181199
12.210752,17.089894668203613,0.1204448108808003
12.213131999999998,17.074448315886933,0.1202325944859751
12.215532,17.065939431369284,0.1199830798684689
12.21792,17.05915310834433,0.1197287694493995
12.220299999999998,17.04957328864004,0.1194859471373251
12.222696,17.046651397481057,0.1192124450548136
12.225084,17.038933908896325,0.1189609730890416
12.227463999999998,17.026001514005262,0.1187407133337058
12.22986,17.013860515047117,0.1185190459999797
12.232247999999998,17.00199905534269,0.1182911573748855
12.234631999999998,16.991999926757824,0.1180552892945317
12.237028,16.973992395187288,0.1178621100294408
12.239416,16.95198066212392,0.1176899458633646
12.241812,16.92903776350077,0.1175211999302764
12.244207999999997,16.905303468944705,0.1173528808616159
12.246596,16.881801491814116,0.1171953585080252
12.24898,16.861232780989724,0.1170231243076627
12.251375999999995,16.842246862031164,0.1168489541492657
12.253764,16.823772799751804,0.1166795279524701
12.256144,16.809023399711556,0.1164946034441649
12.25854,16.798138431537282,0.1162910042431841
12.260928,16.78590298892265,0.1160998943331057
12.263308,16.77245684149452,0.1159184066395407
12.265708,16.753935557386914,0.1157644255385297
12.268092,16.739138935518422,0.1155951330274735
12.270471999999998,16.719546716224183,0.1154473206093405
12.272872,16.705541490288617,0.115276757249407
12.27526,16.693678134726323,0.1150922402099397
12.277644,16.685027584723944,0.1148874187645294
12.28004,16.676237265094702,0.1146854271574002
12.282432,16.66036970803957,0.1145208343456503
12.284812,16.649577287663913,0.1143281844775606
12.287212,16.641857903221315,0.1141179001634175
12.2896,16.63572131064455,0.1139060772785773
12.291984,16.627303078067648,0.1137101766714487
12.29438,16.615719261759075,0.1135166411334344
12.296768,16.59961938727847,0.1133382602474099
12.299152,16.577932519439194,0.113181609870634
12.301555999999998,16.558667061226913,0.1130050869794095
12.303939999999995,16.534046927081445,0.1128618304805104
12.306324,16.51249982886903,0.1127011676398518
12.308719999999996,16.48615713323086,0.1125613917614504
12.311107999999995,16.459442350540353,0.1124126110476999
12.313488,16.435009207849987,0.1122468434227798
12.315883999999995,16.40564069810701,0.112105092399354
12.318272,16.379484993923946,0.1119426933061026
12.320652,16.349884166755487,0.1117882786878362
12.323048,16.32377568440067,0.1116071447195828
12.325436,16.296084410180008,0.1114265782279355
12.327816,16.267461970399573,0.1112490247176738
12.330216,16.249269343231806,0.1110109360619061
12.3326,16.231076716064038,0.1107726599445286
12.334984,16.214886189642684,0.1105241720148755
12.33738,16.20125684247519,0.1102537763999805
12.339768,16.194984271987302,0.1099410026952022
12.342163999999997,16.193367529298307,0.109610751297989
12.344559999999998,16.197617319221703,0.1092539543401924
12.346947999999998,16.21401948325046,0.1088360346679827
12.349328,16.22869908578652,0.108422307657803
12.351723999999995,16.25008383869613,0.1079647162400419
12.354111999999995,16.26802346862035,0.1075157085246045
12.356496,16.29639291115723,0.1070094902160875
12.358891999999996,16.326345145559955,0.1065032743288464
12.361279999999995,16.35843925033595,0.1059852098029932
12.363664,16.398541758097615,0.1054304019207999
12.366068,16.438923805113003,0.1048715701822003
12.368455999999998,16.484241219181,0.1042923197486051
12.370835999999995,16.523133022129166,0.1037501508551909
12.373231999999998,16.56253668175653,0.1032150398306041
12.375619999999998,16.603011276570534,0.1026741998771541
12.378,16.638410734705065,0.1021601396149657
12.380399999999998,16.66929413466756,0.1016584397559028
12.382783999999996,16.69552170683117,0.1011724795138269
12.385168,16.716953681569024,0.1007058663916875
12.387563999999998,16.73359005888113,0.100258847368956
12.389951999999996,16.749435040260312,0.0998131768686583
12.392332,16.76434885607972,0.0993723215490243
12.394727999999995,16.76925216816704,0.098976495633473
12.397115999999995,16.77801991212034,0.0985670415127862
12.3995,16.781992058647884,0.0981753157049425
12.401895999999995,16.788106075548704,0.0977725934544295
12.404283999999995,16.78928472539691,0.097390505259715
12.406664,16.789160122633003,0.0970025934123009
12.40906,16.788383893563044,0.0966120599246952
12.411448,16.780437879268575,0.0962378037049691
12.413828,16.77076930348141,0.0958659518121919
12.416228,16.76217166288088,0.0954899194150655
12.418616,16.76121033821368,0.0950730347313944
12.421011999999996,16.760156465747862,0.0946422305570746
12.423407999999998,16.75658863585643,0.0942127786554241
12.425795999999998,16.752508949285808,0.0937767659632603
12.428175999999995,16.755506500141067,0.0933119731690674
12.430571999999998,16.759854525436687,0.0928351791342574
12.432959999999998,16.76448208998603,0.0923519825886554
12.435343999999995,16.77073966822945,0.0918524993990008
12.437739999999998,16.775414454607034,0.0913526056254854
12.440127999999998,16.777203196506665,0.0908459830749923
12.442511999999995,16.781832656913878,0.0903142194737101
