Time,Force,Position
11.710572,15.134712100895626,0.1443985400911024
11.71296,15.179128508511264,0.1441148766628793
11.71534,15.22563956467194,0.1438333618089511
11.717736,15.271871081578892,0.1435620903074734
11.72012,15.316007949940811,0.1432924189438948
11.722512,15.359959722705495,0.1429955131267813
11.724916,15.395485679461803,0.1427196747260136
11.727304,15.425239547262205,0.1424500552528799
11.729684,15.449780404614144,0.1421719004225246
11.732088,15.466267533010043,0.141920183832199
11.734472,15.473722545061875,0.1417182389757557
11.736852,15.48145709636743,0.1415088196838107
11.739248,15.48718954692657,0.1413138746586475
11.741632,15.4963671204711,0.1411031701948638
11.744012,15.511783313680358,0.1408606648996993
11.746408,15.532646730621424,0.1405877713087943
11.748796,15.553929456443074,0.1403060219235112
11.751176,15.574700325585525,0.1400199320056875
11.753568,15.599430070250436,0.1396701282379928
11.755956,15.626535898571971,0.1392612966881464
11.758348,15.639489147899596,0.1389043404639495
11.760752,15.649511026778896,0.1385159990535281
11.76314,15.65194570741098,0.1381221091968641
11.76552,15.644651319422568,0.137739618199013
11.767924,15.630653676918472,0.1373635494943465
11.770312,15.603899255831202,0.137055559216337
11.772688,15.57290831582562,0.1367633159437384
11.775084,15.538844339886982,0.1364934585243098
11.777472,15.50021708394807,0.1362650232059647
11.779852,15.46103074950172,0.1360496925666558
11.782248,15.422496041361423,0.1358352776561016
11.784636,15.385823664340686,0.1356092231511249
11.787016,15.35380711511884,0.1353554276854118
11.789412,15.323792666643412,0.1350867824693813
11.7918,15.286700980742092,0.1348689344606158
11.794196,15.24588463260166,0.1346716969173741
11.796592,15.1981308166622,0.1345213254179406
11.798976,15.147583504043403,0.1343860156141264
11.801356,15.093031989931772,0.1342777421909807
11.803752,15.035919296566286,0.134195887420061
11.80614,14.987187093238806,0.1340654311026648
11.808524,14.9362657977098,0.1339701881943328
11.810928,14.889533799270868,0.1338768710027436
11.813312,14.847782493854918,0.1337844742149611
11.815692,14.812502125529171,0.1336734652295723
11.818096,14.786533412801212,0.1335088475231955
11.820484,14.7658721541782,0.1333188733977499
11.822864,14.749075327421163,0.1331038306747156
11.825264,14.741218069209571,0.1328271135131719
11.827648,14.73378011987856,0.132538981384632
11.830032,14.730905450547825,0.1322085147946933
11.832428,14.728310320470808,0.1318709279261729
11.834816,14.719616340355923,0.131558842366813
11.837196,14.708408402815426,0.1312551371876067
11.839592,14.699901414155644,0.1309186804739578
11.84198,14.692605130309364,0.1305688368131621
11.84436,14.691035609448614,0.1301833741613932
11.846764,14.689046779707285,0.1298070661118212
11.849152,14.69278471295148,0.129395673625604
11.851532,14.699176373248152,0.1289721393528029
11.853928,14.705288494291104,0.1285565047927893
11.856316,14.710609219401135,0.1281416114201131
11.858696,14.71686111007095,0.1277224238563807
11.8611,14.72446347518112,0.1272877049065232
11.863488,14.728341178052178,0.1268732544072504
11.865868,14.72914584499018,0.1264813266828598
11.868268,14.72636561931593,0.1261059333216748
11.870656,14.71799840028301,0.125760022898166
11.873036,14.699900216771724,0.1254743593293238
11.87544,14.684595529939775,0.12517321036539
11.877824,14.665518959040472,0.1249113556708784
11.880204,14.64867680631306,0.1246487523794199
11.882608,14.633649762876962,0.1243952093399259
11.884992,14.616433627239346,0.1241777957604284
11.887372,14.603965867199234,0.123952018993351
11.889776,14.597596957196991,0.1237028858782425
11.892164,14.588666867940894,0.1234808280569212
11.894544,14.585463541670324,0.1232260940060949
11.896944,14.579000188011594,0.1230162487348164
11.899332,14.572257295099147,0.1228134664181971
11.901712,14.56523486293298,0.1226177205122964
11.904108,14.559236144125206,0.1224331230872545
11.906492,14.547231123078184,0.1222872583892101
11.908872,14.533735857963938,0.1221600139428499
11.911272,14.523685715835088,0.1220206182729439
11.913656,14.51694092706477,0.12187280555776
11.916052,14.510800542772268,0.121746873404309
11.918456,14.509548303704133,0.1216098901250598
11.92084,14.513975605793286,0.1214604522842482
11.923224,14.518355686054196,0.1213312454948257
11.92562,14.524178788554082,0.1212030340126133
11.928004,14.52772025105383,0.1210951268555099
11.930384,14.53484660616583,0.120972001468371
11.93278,14.546768558703585,0.1208217730515905
11.935168,14.55440677049478,0.1207046900452048
11.937548,14.55627099747221,0.1206392909510516
11.939952,14.564373844114362,0.1205485822594763
11.942336,14.571638072995354,0.1204792007525712
11.944716,14.581835568182544,0.1203925828238948
11.94712,14.5939879422879,0.1203133724249213
11.949508,14.60595332493816,0.1202574120136298
11.951888,14.622574535387312,0.1201788941622268
11.954292,14.647156926993889,0.1200696713360631
11.956676,14.671971636025935,0.119972991616992
11.959056,14.699160532856745,0.1198739548026038
11.961452,14.722996854500773,0.1198024320639303
11.96384,14.750837377637634,0.1197060535087233
11.96622,14.780400462267194,0.1196047710568364
11.968624,14.809032381336976,0.119507981065698
11.971008,14.838455696339674,0.119410501069035
11.973388,14.86480597540932,0.1193327897404896
11.975788,14.89301858559852,0.1192465002362138
11.978172,14.921091426160862,0.1191642547022004
11.980556,14.947162165976788,0.1190946556145298
11.98296,14.974164071352488,0.1190203452468524
11.985344,15.00358738635519,0.1189233090006721
11.987728,15.02849464318586,0.1188458503676585
11.990124,15.054752374456884,0.1187544948765702
11.992508,15.082081040914549,0.1186561243045565
11.994888,15.104893649200184,0.1185761810514473
11.997288,15.128684644873838,0.1184728185228228
11.999672,15.146888647188824,0.1183958505607671
12.002068,15.161647526518417,0.1183299018023013
12.004464,15.179247124355587,0.1182320728055766
12.006852,15.189117858460811,0.1181754416189181
12.009232,15.200059527752671,0.1181109750214486
12.011628,15.208487239618924,0.1180530354398481
12.014016,15.216263325179114,0.1179930592493311
12.016396,15.22832315148586,0.1179030415652294
12.018792,15.241873221859825,0.1177960719285988
12.02118,15.263431695219454,0.1176423383604975
12.02356,15.28205690227289,0.1175047559816288
12.02596,15.298819778206768,0.1173758455993162
12.028344,15.318515920446844,0.1172315141946424
12.030728,15.340493702687056,0.1170693250433148
12.033124,15.361540319367489,0.1169115791700279
12.035512,15.38258693604792,0.1167539515539912
12.037908,15.398558416048878,0.1166271099407697
12.040312,15.408011737131392,0.1165292805863073
12.042696,15.420817633400684,0.1164058685647721
12.045076,15.431621428923554,0.1162941974569716
12.04748,15.448571296312537,0.1161450715331788
12.049868,15.466592098888158,0.1159888579274519
12.052248,15.48326242702342,0.115847171134871
12.054644,15.50500789183815,0.1156747728933594
12.057032,15.530245701466525,0.1154745433501561
12.059412,15.554552345535114,0.1152784852281134
12.061816,15.571921521804676,0.1151203218934525
12.064204,15.583563935088712,0.1149903170350615
12.06658,15.591202146879908,0.1148833293102721
12.068984,15.594464070125936,0.1147904734151389
12.071372,15.598005532625685,0.1146910554963447
12.073752,15.601174908073096,0.1145827097138191
12.076156,15.599828225348478,0.1144912179717866
12.078544,15.59689875075802,0.1144013585239092
12.080924,15.594109045794422,0.1143082869230454
12.083328,15.589736548964993,0.1142166116137182
12.085712,15.588576857695472,0.1141033319930212
12.088096,15.593143929411484,0.1139629160054476
12.090492,15.592496094821165,0.1138550655109785
12.092876,15.5937105913504,0.1137393127696323
12.095256,15.584914584147551,0.1136793125645111
12.097652,15.575187411384928,0.1136232305785807
12.10004,15.563597907502748,0.1135750216812931
12.10242,15.552427712501146,0.1135170591846355
12.104816,15.53646192007379,0.1134817414534706
12.107204,15.52128752357936,0.1134456575516258
12.109584,15.511328033391257,0.1133770752506693
12.11198,15.50202016950921,0.1133109359884616
12.114368,15.492852075254028,0.1132414931655878
12.116748,15.481262571371843,0.1131927739789653
12.119144,15.47139562898236,0.1131393619170431
12.121528,15.465904975138043,0.11307279621769
12.123912,15.462276652413284,0.112998346764493
12.126316,15.459160186367727,0.1129296944633163
12.1287,15.45297068438911,0.1128790839405905
12.13108,15.44808443502261,0.1128335301210425
12.133484,15.442406789723194,0.1127886259595907
12.135872,15.434727043677356,0.112754681591279
12.138252,15.432262203937857,0.1126884207747338
12.140648,15.4267243282653,0.1126402141197876
12.143036,15.42812392039177,0.1125549135455815
12.145416,15.427241872518104,0.1124870436113097
12.147812,15.427430759831076,0.112412003254686
12.1502,15.426129403076834,0.1123538636830062
12.152596,15.42813339968112,0.1122898840597307
12.154992,15.432279266658682,0.1122118472531394
12.15738,15.44014979587536,0.1121187915428045
12.15976,15.452304065838591,0.1119978921576782
12.162156,15.463247630988322,0.1118870067488959
12.164544,15.475262131324692,0.1117688165058422
12.166924,15.485274530914646,0.1116615513519061
12.16932,15.486347361959156,0.1116016343148565
12.171708,15.487280423376802,0.111544957351226
12.174092,15.482207182555198,0.1115209297747185
12.176488,15.482069308786208,0.1114711590066738
12.178876,15.482071204644075,0.1114181554324113
12.181256,15.480582856434726,0.1113819043918255
12.183652,15.480165443412014,0.1113386018223852
12.18604,15.480539426322222,0.1112947861838264
12.188424,15.484917610725264,0.1112292911987113
12.19082,15.488085090314804,0.1111741048094177
12.193208,15.494884684344845,0.1110882516316636
12.195604,15.50275521356152,0.1109955838602433
12.198,15.509974116472138,0.1109002615498697
12.200388,15.51574999714378,0.1108030958256009
12.202768,15.517521676322586,0.1107274521610301
12.20516,15.51608054994148,0.1106728374283516
12.207548,15.510355682813818,0.1106458569427431
12.209928,15.508355477925267,0.1106040239277423
12.212332,15.510219704902696,0.1105442668684866
12.214716,15.51222370150698,0.1104812621331245
12.217096,15.52037376997738,0.1103830104183487
12.219492,15.532528039940608,0.1102640376161574
12.22188,15.5568346840092,0.110078995908269
12.224272,15.58314342882421,0.1098848329767843
12.226668,15.613735914385776,0.1096645913622886
12.229056,15.649543306253673,0.1094145327632437
12.23144,15.685071158867844,0.1091713803386189
12.233844,15.72232157297472,0.1089258301679208
12.236228,15.760223613387646,0.1086842745338205
12.238612,15.80012775454699,0.1084331074401413
12.241008,15.84263840093057,0.1081942324748144
12.243392,15.882308328806568,0.107983865967462
12.245772,15.92621477560088,0.1077660231904733
12.248176,15.97328680612686,0.1075476838040304
12.250564,16.02659745631757,0.1073119531280659
12.252944,16.08055973281434,0.1070794012895729
12.25534,16.14104016822956,0.1068240640537984
12.257728,16.206595740324246,0.1065455276979676
12.260108,16.27373410428477,0.106268950339147
12.262504,16.346319691977108,0.1059766368066794
12.264888,16.421279467468196,0.1056850654185045
12.267272,16.494748998892067,0.1054112542759
12.269668,16.564586415875443,0.1051688389042731
12.272052,16.629860552858542,0.1049581237319544
12.274448,16.689780013908447,0.1047792918039615
12.276844,16.7466264390253,0.1046174146712962
12.279232,16.80347286414215,0.1044559341006503
12.281612,16.858317188512583,0.1043049594832996
12.284008,16.910507785830546,0.1041611528563151
12.286396,16.964840253521782,0.1040068058735602
12.288776,17.015355511175287,0.1038515288638733
12.29118,17.073646854388983,0.1036498450347959
12.293568,17.132776815363844,0.1034331823478529
12.295948,17.18659932223375,0.1032294609955965
12.298352,17.237256245371988,0.1030278526592061
12.30074,17.28595828959205,0.1028186088196095
12.30312,17.325767987094906,0.1026314398333908
12.305516,17.356266028999986,0.1024750644465941
12.3079,17.381596386426974,0.1023286381462966
12.310284,17.40404069937601,0.1021781042485274
12.31268,17.424390363780013,0.10202302730896
12.315064,17.440783048519425,0.1018686797782907
12.317448,17.45028548728805,0.101726295248214
12.319844,17.466120989377888,0.101536956000941
12.322232,17.485728375535082,0.1013200141277337
12.324628,17.500959473147105,0.1011114988226513
12.327024,17.516098022960513,0.1008895731000114
12.329412,17.52835052829597,0.100662575728127
12.331792,17.541162112138863,0.1004247430878394
12.334192,17.54573297557062,0.1002094870473729
12.33658,17.54872104713653,0.0999942416225979
12.33896,17.54332862866444,0.0998044721720521
12.341356,17.531138512020185,0.0996395910719544
12.343744,17.523511675376202,0.0994472490808943
12.346128,17.513231111679744,0.0992602778257924
12.348524,17.502019382423505,0.0990757686488026
12.350908,17.494672085033244,0.0988772788994126
12.353292,17.488255953202756,0.0986756156073396
12.355688,17.482398899879716,0.0984628030431337
12.358076,17.47225810581012,0.0982716881923038
12.360456,17.462536620621098,0.0980725031411492
12.362852,17.454025840245578,0.0978648837253517
12.36524,17.446725764683556,0.0976484135915375
12.367636,17.42792494132223,0.0974860173129817
12.370032,17.40898434833405,0.0973264112737713
12.37242,17.395770518331393,0.0971480344783423
12.3748,17.384139480194577,0.096969987603023
12.377196,17.3728805291101,0.0968000071465141
12.379584,17.36148180839876,0.0966327209132017
12.381964,17.357532412165646,0.0964445856213533
12.38436,17.356236742985004,0.0962514481080682
12.386748,17.356384096043342,0.0960610513983775
12.389128,17.35760238428832,0.0958649421187264
12.391524,17.351603665480546,0.0957003264096804
12.393912,17.349329608911887,0.0955255290408409
12.396308,17.35078021458234,0.0953406553079827
12.398704,17.350088949879513,0.0951662163626059
12.401092,17.35526421778908,0.0949715133191623
12.403472,17.362534134243678,0.0947832311755994
12.405868,17.376741518497305,0.0945696952478079
12.408256,17.388108184243357,0.0943803661828267
12.410636,17.400917872228383,0.0941945349226198
12.413032,17.419174783945223,0.0939970435977465
12.415424,17.44865290420764,0.0937539798293942
12.417804,17.470122621484393,0.0935409712531275
12.4202,17.492803043574646,0.0933213788763443
12.422588,17.512550199358703,0.0931121773224823
12.424972,17.532576894396477,0.0928976006011196
12.427368,17.551672423874475,0.0926856456671252
12.429756,17.569976557419555,0.0924744701050472
12.43214,17.589211856524418,0.0922617248261074
12.434536,17.61152019156233,0.0920370993111654
12.436924,17.637413419212496,0.0918062515158741
12.439304,17.669964575407967,0.0915563781174236
12.4417,17.700653400483883,0.0913119922915106
12.444088,17.72961966406711,0.0910704294652162
12.446472,17.762729898770026,0.0908123001906913
12.448868,17.78610916899458,0.0905848251983758
12.451256,17.808045416980157,0.0903545730988069
12.453652,17.820250700487367,0.0901546389816761
12.456056,17.832223666569103,0.0899435232313916
12.45844,17.84354500634478,0.0897297474084246
12.46082,17.85207284944112,0.0895232105662019
12.463224,17.852312750298072,0.0893503258212966
12.465612,17.863354550820027,0.0891430395772448
12.467992,17.871043776155208,0.0889533044889097
12.470396,17.879012540744114,0.0887583302376001
12.472784,17.891776902758764,0.088550694606775
12.475164,17.907194991825893,0.0883396887605344
12.47756,17.921542145706386,0.088134104176089
12.479944,17.93188509809404,0.087942261637844
12.482328,17.941436654548774,0.0877505006330638
12.484724,17.949265649510817,0.087560678832273
12.487108,17.954301147793522,0.0873772317485922
12.489488,17.957194775702952,0.0872029273551657
12.491884,17.962742130664857,0.0870255899662354
12.494272,17.966147615253487,0.0868577359635311
12.496652,17.979284064320478,0.0866622312797293
12.499048,17.993072139693524,0.0864702469577311
12.501436,18.016591179544932,0.0862508778051212
12.503816,18.04397465126232,0.0860216765157074
12.506212,18.069867878912486,0.0858048267082997
12.5086,18.09576110656265,0.08558840266665
12.510984,18.124075743839818,0.0853576526035024
12.51338,18.143730351825266,0.0851499289395467
12.515768,18.161150541638804,0.08493772904601
12.518164,18.178570731452343,0.0847256833481335
12.520568,18.188401827160803,0.0845316956566699
12.522956,18.194927569510728,0.0843378631472048
12.525336,18.196797484061765,0.0841532694625379
12.527732,18.20029741230688,0.0839539593377471
12.530116,18.201935009432432,0.0837585545692283
12.532496,18.202920980251932,0.0835599879534244
12.5349,18.20632836069843,0.0833478123047945
12.537288,18.21043458927922,0.08312270466993
12.539668,18.21002475968799,0.0829044138293815
12.542072,18.210174008604195,0.0826761841656947
12.544456,18.203525559348236,0.0824656828946287
12.546836,18.19357175673374,0.0822545428404583
12.54924,18.180033061506997,0.0820482829275745
12.551628,18.164492265533827,0.0818481261832037
12.554008,18.1507212528816,0.0816311120203237
12.556412,18.136950240229368,0.0814140798890565
12.558796,18.1262522635102,0.0811870836719061
12.56118,18.12156058903028,0.0809423758516481
12.563584,18.1143077352965,0.0807126460897712
12.565968,18.107706507868777,0.0804861947460884
12.568348,18.10482994268017,0.0802527091370906
12.570744,18.10567803973068,0.0800127965240824
12.573128,18.109831490139715,0.079773392045811
12.575508,18.11342586204132,0.0795439736569534
12.577904,18.11688046431605,0.0793170156723611
12.580288,18.121917858456627,0.0790920397935126
12.582668,18.12667571334348,0.0788725686705169
12.585064,18.13394752565595,0.078653490065504
12.587452,18.14229027315506,0.0784302962855165
12.589832,18.145138575094112,0.0782294841561041
12.592228,18.151339452219943,0.0780139236110635
12.594616,18.16112522195803,0.0777947133846575
12.597008,18.169840056509475,0.0775797319560597
12.599412,18.177623725501142,0.0773664370445707
12.6018,18.18405692005245,0.0771622668174007
12.60418,18.190629884230614,0.0769558413527498
12.606576,18.19198794210245,0.0767668466054031
12.608964,18.191483668854733,0.076581164159983
12.611344,18.2004780426599,0.076362779346324
12.613736,18.210822890905423,0.0761359613340384
12.616124,18.22065588247175,0.0759034175376054
12.618504,18.226764211798965,0.0756768672003004
12.6209,18.233199302208146,0.0754298305606337
12.623284,18.24205580224432,0.0751705325032561
12.62568,18.25133161116108,0.0749039743600797
12.628076,18.25543973559974,0.0746380116590089
12.630464,18.25624250667987,0.0743701453528444
12.632844,18.25332061552089,0.0741075405403482
12.635248,18.24653429249594,0.0738520573517185
12.637636,18.246732659098253,0.0735638603494923
