Time,Force,Position
17.637736,16.216632404486198,0.134469173705388
17.640131999999998,16.25471764463849,0.1342481064809763
17.642519999999998,16.285587773595907,0.1340296142111508
17.644904,16.305750446544806,0.1338449491939452
17.647299999999998,16.317207764231604,0.1336791799818055
17.649687999999998,16.32903906482861,0.1334712311815911
17.652084,16.335098276469708,0.1332639158892057
17.65448,16.336688651767023,0.1330597755821586
17.656868,16.33888532740002,0.1328249788005369
17.659252,16.343271095234535,0.132556382611577
17.661648,16.342349408964104,0.1323099241291765
17.664036,16.33691166452164,0.1320838867828576
17.66642,16.333895329706177,0.1318345752372133
17.668816,16.33008759895779,0.1315863475435094
17.671204,16.32455730671671,0.1313441439200346
17.673583999999998,16.31264862518404,0.1311324417330865
17.675984,16.294501323986644,0.1309477354198844
17.678372,16.26732190644518,0.1308043840099228
17.680752,16.235905969985414,0.1306748540117313
17.683152,16.204537255353884,0.1305269026973458
17.68554,16.173075992923742,0.1303638330546803
17.68792,16.142453348254758,0.1301807318983616
17.690316,16.107314645413748,0.1300176676493079
17.692708,16.065657783654284,0.1298877482053489
17.695088,16.023209525961907,0.1297588910915637
17.697488,15.980761268269523,0.1296289218492988
17.699876,15.938824867256342,0.1295031411208512
17.702256,15.898611027735855,0.129370407836737
17.704656,15.855416700080932,0.1292727475327796
17.707044,15.805656991679314,0.1292262713585809
17.709428,15.760692880703449,0.1291519034135449
17.711824,15.71745133122028,0.1290710298805529
17.714212,15.674721638416308,0.1289946485240515
17.716596,15.630501701545118,0.1289363260505003
17.718995999999997,15.58600222542021,0.1288845799363884
17.721384,15.544296245974635,0.1288179695092294
17.723768,15.50859656876831,0.1287117985014048
17.726163999999997,15.47648178417424,0.1285891964219717
17.728551999999997,15.446089561072863,0.1284597599521227
17.730936,15.415417798717767,0.1283363104039237
17.733331999999997,15.384606266735814,0.128215583028008
17.735723999999998,15.355377526619696,0.1280912790497992
17.738104,15.331735779862248,0.1279378081626605
17.740503999999998,15.314612192023246,0.1277502279846567
17.742887999999997,15.30000256160986,0.1275545022385788
17.745268,15.28469408306217,0.1273753522119974
17.747664,15.267895360447262,0.1272140835786884
17.750048,15.253610595257973,0.127044986487854
17.752428,15.242398866001734,0.1268545101265104
17.754832,15.23584296454439,0.1266394394233637
17.75722,15.227796819019824,0.1264426552743285
17.7596,15.225197897227067,0.1262207274731614
17.762003999999997,15.222319436180596,0.1260054083546219
17.764391999999997,15.22623867330629,0.125750068231376
17.766772,15.234813738230873,0.1254710741467399
17.769164,15.238685753528324,0.1252338742740459
17.771552,15.238925654385282,0.1250313807971529
17.773932,15.240468807854352,0.12483310714145
17.776335999999997,15.24038194762934,0.1246562848768966
17.778724,15.239176930389451,0.1245065058219085
17.781104,15.238855856881097,0.1243709401652255
17.783507999999998,15.235694064865164,0.124268564172798
17.785892,15.22983132396851,0.1241960411686136
17.788276,15.225271835683976,0.1241276501326997
17.790671999999997,15.221084434451774,0.1240680966860564
17.793059999999997,15.216477724338992,0.1240186810872684
17.79544,15.21466451090555,0.1239550547021477
17.814552,15.160945926981476,0.1239488552357085
17.816948,15.161552227317156,0.1239164340473756
17.819343999999997,15.165883189891954,0.1238657065372392
17.821731999999997,15.17021415246675,0.123815094943639
17.824112,15.1805514172808,0.1237272947486085
17.826508,15.1963831276549,0.1235971351636096
17.828896,15.214356708402278,0.1234515236720977
17.831276,15.236194721015629,0.1232844521755295
17.833672,15.261897165494954,0.1230964194041754
17.83606,15.289322171466976,0.1229035713984665
17.83844,15.32061160930497,0.122690431812999
17.840836,15.35576547900894,0.1224567162923354
17.843228,15.394084932444583,0.1222194495265015
17.845608,15.440133249612169,0.1219407384979988
17.848004,15.487624589018733,0.1216635482401175
17.850388,15.535488015477632,0.1213965875968294
17.852784,15.586936334548788,0.1211164671251975
17.855188,15.641550237351616,0.1208313911446196
17.857575999999998,15.691461090527309,0.1205877671602373
17.859956,15.749240577061808,0.1203009189078497
17.862351999999998,15.808463085835282,0.1200163381868204
17.864739999999998,15.861771840168124,0.1197847021170938
17.86712,15.918385947859496,0.119547830590061
17.869524,15.976582847416708,0.1193100737192213
17.871912,16.032218567720065,0.1190985421884163
17.874291999999997,16.085013569515837,0.1189192949571995
17.876692,16.14153323355072,0.1187257335560569
17.879075999999998,16.196981962398972,0.1185400679257542
17.881456,16.254153252739915,0.1183514992072788
17.883851999999997,16.31304710457356,0.1181598591704848
17.886239999999997,16.37273235234012,0.117969735567634
17.88862,16.432929456785878,0.1177865399972302
17.891019999999997,16.493685639739077,0.1175930507319711
17.893407999999997,16.552299952318997,0.1174154503149085
17.895788,16.61105403452578,0.117235384238413
17.898183999999997,16.67101882154606,0.117046818327458
17.900572,16.728190111887006,0.1168707127507751
17.902952,16.78606025036225,0.1166800925056657
17.905351999999997,16.847562503277995,0.1164604419694957
17.907736,16.904269158767985,0.116264877833854
17.910116,16.95967256164586,0.1160658239324508
17.912512,17.02084994933751,0.1158259415233866
17.9149,17.078210126991426,0.1155889153710965
17.917296,17.135849843899063,0.1153475126474552
17.919696,17.194979804873924,0.1150919736686566
17.922083999999998,17.254948383609943,0.1148199075404203
17.924464,17.307607407494597,0.114575343396538
17.926859999999998,17.36175667544647,0.1143164641437236
17.929247999999998,17.408736158173838,0.1140812200689398
17.931628,17.449896330117053,0.113857432230702
17.934023999999997,17.486959752768822,0.1136411707440908
17.936411999999997,17.523418770942776,0.1134075827481101
17.938796,17.555361730944696,0.1131895641816298
17.941191999999997,17.586420747215083,0.1129595338792798
17.943579999999997,17.61845815087349,0.1127106373865219
17.94596,17.648680445240583,0.1124535884996121
17.948356,17.678298335129863,0.112178317124711
17.950744,17.708894612407164,0.1118847174481304
17.953139999999998,17.740329507445626,0.111576260481698
17.955536,17.768459049125557,0.1112726221933875
17.957919999999998,17.79621650375315,0.110961840468361
17.960303999999997,17.814010676476904,0.1106825465093605
17.962699999999998,17.828219956588406,0.1104136645631437
17.965083999999997,17.837541091475533,0.1101507201592738
17.967464,17.838901045205237,0.1099085436003272
17.969863999999998,17.83681587594955,0.1096739491728148
17.972248,17.834079080387806,0.1094365093970194
17.974632,17.832041132960363,0.1091857790442871
17.977027999999997,17.83456646553319,0.1089054013988608
17.979415999999997,17.838162733292656,0.1086188095612032
17.981811999999998,17.839384813253368,0.1083332958312287
17.984208,17.834880130228555,0.1080696746300565
17.9866,17.83186569127096,0.1077917679739332
17.988979999999998,17.826988921193802,0.1075203632502611
17.991376,17.81838748887754,0.1072616321019436
17.993764,17.805781855068442,0.1070207319949727
17.996143999999997,17.79862344499115,0.1067645451144399
17.998548,17.786389898234386,0.1065318889630095
18.000936,17.767079114051732,0.1063313878489219
18.003315999999998,17.753774632108332,0.1061043808641368
18.005716,17.742612020538207,0.1058660787998199
18.0081,17.734894531953476,0.1056206635766701
18.010479999999998,17.7302500793018,0.1053605628624095
18.01288,17.72746795776968,0.1050941565228141
18.015268,17.73441680071592,0.1047898651946858
18.017648,17.743507514035446,0.1044742752156748
18.020044,17.759955004034577,0.1041225609459088
18.022432,17.771467126981097,0.1037913447728825
18.024812,17.782559941047033,0.1034692239952962
18.027212,17.797936495859528,0.1031258396359812
18.029596,17.81661840403055,0.1027793722291216
18.031976,17.84074753593339,0.1024188443237381
18.034376,17.86552829414228,0.1020619073268911
18.03676,17.888027412351033,0.1017183657094541
18.039144,17.910898617612126,0.1013826834482649
18.04154,17.938425650672112,0.101033480225496
18.043928,17.95673357593293,0.1007261237240879
18.046308,17.98062849455242,0.1004027796090928
18.048716,18.008387845037877,0.1000654792101235
18.0511,18.032003224403645,0.0997483173743613
18.05348,18.053197194142417,0.0994483813982346
18.05588,18.07825559574716,0.0991359226506277
18.058268,18.1026151492176,0.0988373505358639
18.060648,18.128697264180744,0.0985367945454343
18.063044,18.149284933583832,0.0982664711287594
18.065432,18.16745119335992,0.0980121542793226
18.067816,18.17891230276245,0.0977953796706867
18.070212,18.194470161456444,0.0975764282810943
18.0726,18.208817315336933,0.0973657642792719
18.074996,18.21832164996343,0.0971869309706681
18.077392,18.225172257537448,0.0970131995376891
18.079776,18.22908959880528,0.0968499350683539
18.08216,18.228862968953408,0.0967045139434386
18.084556,18.233711475781007,0.0965387782528346
18.086944,18.241121161862463,0.0963551700813243
18.089324,18.24652874719751,0.0961795283155981
18.09172,18.257291008465742,0.0959783810432755
18.094108,18.26418883786801,0.0957901171641028
18.096488,18.27201783283005,0.0955997767587108
18.098884,18.27984682779209,0.0954094272188417
18.101272,18.284602786821072,0.0952313585577498
18.103656,18.284563148424308,0.0950681591562429
18.106052,18.284803049281265,0.0948998451028315
18.108436,18.285834346071137,0.0947321253596786
18.110836,18.289147282861148,0.0945520377248789
18.113232,18.299397687450185,0.0943483073527486
18.11562,18.315514624651616,0.0941258939591196
18.118,18.33032830924093,0.09389841967116
18.120396,18.343139893083823,0.0936780463016136
18.122784,18.35944382174036,0.0934383518856138
18.125164,18.378121938195644,0.0931996239646075
18.12756,18.39880215539734,0.0929541874425632
18.129948,18.424697278905377,0.092687431458081
18.132328,18.449521467226777,0.0924265776791113
18.134724,18.47592844741401,0.0921676521938749
18.137112,18.502335427601245,0.0919091712770873
18.139508,18.528602638161612,0.0916541473636008
18.141904,18.55473007909513,0.0914017174317557
18.144288,18.57671354890895,0.0911656276102394
18.146672,18.600559349842328,0.0909255963411483
18.149068,18.62775772596248,0.0906689529415346
18.151456,18.657889368388823,0.0904036917423459
18.153836,18.688952176374947,0.0901369506889975
18.156232,18.71549892618904,0.0898786959701898
18.15862,18.739112409696943,0.089629628337822
18.161,18.7532744679802,0.0894045730071803
18.163396,18.76320000734514,0.0891831501564457
18.165784,18.772985777083225,0.088964553250542
18.16818,18.785192956448302,0.0887318647339251
18.170576,18.79325616469369,0.088515107235426
18.172964,18.801087055513605,0.088288284584371
18.175344,18.804773975213816,0.0880769407942459
18.17774,18.8056673982347,0.0878719435961614
18.180128,18.803627554949387,0.0876754302683304
18.182512,18.793998617558987,0.0874971276950033
18.184908,18.781715953116112,0.0873220218882471
18.187296,18.768502123113457,0.0871489122378068
18.189676,18.754496897177887,0.0869750254572926
18.192072,18.745566807921787,0.0867838856194332
18.19446,18.73719579717313,0.0865830685936194
18.19684,18.730547347917167,0.0863811330515428
18.199236,18.723107502728286,0.0861787895049931
18.201628,18.71208276492715,0.0859813633544484
18.204008,18.70385152380535,0.0857780694075738
18.206404,18.69962448417639,0.0855624850928228
18.208792,18.699773733092595,0.0853421084856228
18.211176,18.697361802754944,0.0851374426827653
18.213572,18.69574126835021,0.0849336033553387
18.215956,18.695051899505263,0.084728201510408
18.218356,18.69771510584708,0.0845076327501166
18.220752,18.70102993849496,0.0842905070651431
18.22314,18.709699447076037,0.0840523591193328
18.22552,18.71902058196316,0.0838174805876559
18.227916,18.734348019089538,0.083565378519317
18.230304,18.756612924014945,0.0832937932683276
18.232684,18.78395296561983,0.0830067639211621
18.235084,18.808639280172237,0.0827225839896961
18.237472,18.83868027065783,0.0824186402059676
18.239852,18.86620730371781,0.0821158205205439
18.242248,18.887588264911688,0.0818327056781924
18.244636,18.90538433349331,0.0815543392456323
18.24702,18.92196969726143,0.0812827206450739
18.249416,18.941628096962607,0.0810014262414963
18.251804,18.960355331104005,0.0807220588827602
18.254184,18.976289068566068,0.0804481970590322
18.256588,18.993852819722207,0.0801613502038718
18.258976,19.01397775013221,0.0798591021704045
18.261356,19.031868262370317,0.0795523901009141
18.263752,19.04803621311572,0.0792469828397211
18.26614,19.058617170502465,0.0789507730014047
18.268524,19.06654440083673,0.0786569918065316
18.27092,19.06967603374524,0.0783734192599087
18.273308,19.069362543668365,0.078090771814154
18.275692,19.061320189859536,0.0778250448925718
18.278088,19.048202699371235,0.0775738150564748
18.280476,19.03201217294988,0.0773318421770517
18.282856,19.018475373581,0.0770875599716578
18.285264,19.001865538279063,0.0768526168582184
18.287648,18.987397573350403,0.0766100995422992
18.290032,18.9818691769672,0.0763455569148574
18.292428,18.97727194614377,0.0760794114821126
18.294812,18.974304729014413,0.0758001929968002
18.297196,18.97026657669842,0.0755247561516744
18.299592,18.969580999569207,0.0752363027878537
18.30198,18.96610192576065,0.0749513526059997
18.30436,18.96341424788502,0.0746680998189107
18.30676,18.961517965942303,0.0743859874746504
18.309148,18.957991670305518,0.0741163499199228
18.311528,18.95525677060164,0.0738478551700147
18.313924,18.95983142574913,0.073571658293503
18.316316,18.965337246456397,0.0732941200286397
18.318696,18.97470749902963,0.0730094285564891
18.321092,18.99166684570796,0.0727131555368431
18.323476,19.01155945869248,0.072410635750984
18.325876,19.031591841303864,0.0721052395368377
18.328272,19.04869095760905,0.0718054567259083
18.33066,19.06499867798132,0.071504837808363
18.333044,19.07809359279368,0.0712147067680046
18.33544,19.08755639316554,0.0709423028225152
18.337828,19.091012891298146,0.0706843597998394
18.340212,19.0955403246174,0.0704231523856926
18.342608,19.09936890980234,0.0701738306647491
18.344996,19.10720169648012,0.0699161246191199
18.34738,19.109540037597853,0.0696778051124389
18.349776,19.11867607688775,0.0694276603057195
18.352164,19.12194558356525,0.0691884717280203
18.354548,19.125494629496472,0.0689449968957558
18.356944,19.136679991361028,0.0686765849037836
18.359332,19.146142791732885,0.0684080363608925
18.361716,19.15295186505227,0.0681409508366379
18.364112,19.16297374393157,0.0678647175646521
18.3665,19.174066557997502,0.0675861745237281
18.36888,19.181574479451196,0.0673101072237556
18.37128,19.19015333609152,0.0670311219838936
18.373668,19.207159904598093,0.0667301544939807
18.376048,19.22989323609019,0.0664218506207058
18.378448,19.254908207582428,0.066105846945216
18.38084,19.286348790194506,0.0657721107245865
18.38322,19.31927961687379,0.0654286875591223
18.385616,19.35342114836658,0.0650801896924295
18.388004,19.38355847836653,0.0647394584759265
18.390388,19.41332372131415,0.0643911403385385
18.392784,19.44015569795557,0.0640488117340755
18.395172,19.47169072422413,0.0636882380062738
18.397552,19.499221548999856,0.0633363307878375
18.399948,19.53275867601483,0.0629737369494265
18.402336,19.56643557265666,0.0626100250896139
18.40472,19.593826627805523,0.0622629626318674
18.407116,19.62401117963372,0.0619144520437996
18.4095,19.65326456590214,0.0615672576746078
18.411884,19.677303045864228,0.0612327204948112
18.41428,19.70041036026653,0.0609001281108977
18.416668,19.72044463873579,0.0605739516990987
18.419052,19.74047891720504,0.0602484118657476
18.421448,19.756089685300875,0.0599378258338265
18.423836,19.770117661530875,0.0596249066506694
18.426216,19.784937033693804,0.0593146782276421
18.428616,19.79640383066995,0.0590156424684682
18.431004,19.81187482913893,0.0587111243637705
18.433384,19.83055863316782,0.0583995420434338
18.435784,19.85846154499588,0.0580717672578125
18.438172,19.891299823876555,0.0577389000827554
18.440556,19.92348647645117,0.0574030200370032
18.442952,19.955533359398924,0.0570706543203963
18.44534,19.9907930479066,0.0567317879542413
18.44772,20.024190405294718,0.0563949930232138
18.450116,20.056097518615605,0.0560675717963906
18.452504,20.08907556712314,0.0557379535022828
18.454888,20.1193998885782,0.055407999231032
18.457284,20.149724210033256,0.0550784888214831
18.459672,20.183401106675085,0.0547399751986888
18.462052,20.213213571450943,0.0544053282671843
18.464456,20.245167906600084,0.0540660520912994
18.466844,20.274468514696743,0.0537259133605014
18.469228,20.298973525367657,0.0533894180252759
18.471624,20.318543168985958,0.0530582454597095
18.474012,20.33103557517836,0.0527371381340184
18.476396,20.3367302831986,0.0524211356215886
18.478792,20.33762939379309,0.0521089179897659
18.48118,20.32809869177492,0.0518147597270673
