Time,Force,Position
18.9842,17.224280476874995,0.1352141196900088
18.986596,17.204178296759427,0.1350394468125031
18.988984,17.179839597725543,0.134879074792056
18.991368,17.15219554533313,0.1347280739731877
18.993764,17.12301592290312,0.1345629852394612
18.996152,17.088016989688967,0.134414836302045
18.998532,17.054275983116558,0.1342381951139258
19.000928,17.016438227252692,0.1340719199642224
19.003316,16.97543488765716,0.1339113385579501
19.005696,16.932848756195785,0.1337529563352156
19.008104,16.890402394361274,0.1335905357486088
19.010492,16.8507495292061,0.1334130894506559
19.012872,16.817894362223093,0.1331956678870455
19.015272,16.786621987105924,0.1329741261174304
19.01766,16.75507007273503,0.1327581088802193
19.02004,16.71960650466992,0.132580721945385
19.022436,16.687588059590205,0.1323900661854129
19.024824,16.65515030562991,0.1322083191374587
19.027208,16.624714652416028,0.1320134221201957
19.029612,16.59441876882901,0.1318148457947285
19.032,16.564122885241993,0.1316157260887061
19.034384,16.534246310535554,0.1314064820246583
19.03678,16.50143646952292,0.1312139176161894
19.039168,16.468906167764004,0.131014331897183
19.041548,16.43809842749779,0.1308076887031969
19.043944,16.409525105403468,0.1305989992862685
19.046332,16.37997339592112,0.1304119535005845
19.048716,16.35251633498381,0.130226153429892
19.051112,16.331669980763568,0.1300216146048975
19.0535,16.313569901394413,0.1298202719839573
19.05588,16.297424700943434,0.1296237445702898
19.058276,16.283094609783767,0.129435436291768
19.060664,16.26764636160922,0.1292723983554935
19.063044,16.257226028285903,0.1290942096055874
19.065444,16.24904011313448,0.1289147108875421
19.067828,16.2473723569015,0.1287027071304476
19.070208,16.248218558094138,0.1284838495594753
19.072608,16.25372058708567,0.1282422275556522
19.074992,16.25652166719648,0.1280289996631538
19.077388,16.266632302158662,0.1277833035996386
19.079784,16.27590431935968,0.1275565270380195
19.082172,16.29220635215834,0.1273041222790707
19.084556,16.31367606943509,0.127034346781258
19.086956,16.342547889361825,0.1267476894334604
19.089344,16.373886444885933,0.1264726579476592
19.091724,16.40932174970149,0.1261893942119342
19.09412,16.447922638248723,0.1259019963111871
19.096508,16.490760045714264,0.1256028956940407
19.098892,16.5353200146725,0.1253004546408349
19.101288,16.58211440180263,0.1249985641799511
19.103676,16.634356012664572,0.1246764278745526
19.10606,16.685386918713014,0.1243652784136115
19.108456,16.741213422187208,0.124031106860713
19.110844,16.79769155196746,0.1237009955023275
19.113228,16.857754574359966,0.1233588665921673
19.115624,16.91725851824503,0.12303054099496
19.118012,16.9731303476896,0.1227341323239668
19.120396,17.031236595306066,0.1224400727207808
19.122792,17.09399867072142,0.1221267168836703
19.12518,17.15326840132314,0.1218431693578501
19.12756,17.219196060470164,0.1215300160770676
19.129956,17.279489504430277,0.1212595106335646
19.132344,17.34029480506959,0.1209954858579558
19.134724,17.396584047536866,0.1207503374812304
19.13712,17.45687749149698,0.1204862746522094
19.139508,17.516100000270455,0.1202310557134928
19.141904,17.577604149044067,0.1199619219430138
19.1443,17.640970628937236,0.1196876312916405
19.146688,17.703266173643765,0.1194223189137605
19.149068,17.76877452391021,0.1191397817779315
19.151464,17.829207737497185,0.1188864114079561
19.153852,17.893225843696413,0.1186220397420264
19.156236,17.95417091396259,0.1183759118030041
19.158632,18.01832878978868,0.1181133005200932
19.16102,18.08155550005498,0.117856363231467
19.1634,18.148134785508063,0.1175796074336477
19.1658,18.22006874689434,0.1172726971648026
19.168188,18.28734688048173,0.1169849147195523
19.170568,18.35397338776306,0.1166975332486466
19.172964,18.424371779111745,0.1163830577422457
19.175352,18.491744356355618,0.1160718585391927
19.177732,18.563028587293704,0.1157297303661884
19.180128,18.63743307599309,0.1153598038011769
19.182516,18.715469679132976,0.1149663276810029
19.184912,18.78261183480924,0.1146087241054525
19.187308,18.849801212313743,0.1142380112603763
19.189696,18.907678934220478,0.11390097529838
19.192076,18.961599676462605,0.1135690222699054
19.194476,19.012634374226785,0.1132354157597222
19.19686,19.055056264527483,0.1129221442124851
19.199244,19.097013519977228,0.1125894763683458
19.20164,19.1347814783369,0.1122506692096439
19.204028,19.17380736333832,0.1118893104464556
19.206408,19.202869966435895,0.111558391304177
19.208808,19.22560140207013,0.1112317880498088
19.211192,19.24279306617393,0.1109099340208919
19.213576,19.253513793187533,0.1105954532838082
19.21598,19.264049424603904,0.1102559344672744
19.218368,19.26890551486298,0.1099224542974349
19.220748,19.262727388031585,0.1096228967523957
19.223152,19.2501708719086,0.109341691105481
19.22554,19.23179504500146,0.1090684817518031
19.22792,19.202245231376985,0.1088308393393789
19.230316,19.16459446696822,0.1086142852375618
19.232704,19.132066061067174,0.1083591160822994
19.235088,19.094509740314905,0.1081106185173332
19.237484,19.06100484288371,0.1078290322120888
19.239872,19.02633646246726,0.1075397341959086
19.242252,18.99236693018511,0.1072368398187177
19.244652,18.96202951234346,0.1069088362371631
19.24704,18.930900698568884,0.1065804389823198
19.24942,18.89939979774197,0.1062435857761361
19.251816,18.865524709116304,0.105906948764951
19.2542,18.83435056937136,0.1055479154013601
19.25658,18.807180631119248,0.1051714394184997
19.258988,18.77921929693422,0.1047942392454601
19.261376,18.74939563162963,0.1044212100392631
19.263756,18.71864080076526,0.1040499074460018
19.266152,18.69137831471453,0.1036564882058597
19.268544,18.664814676798105,0.1032477562783492
19.270924,18.64202292294903,0.1028113870610847
19.27332,18.6203021042866,0.1023684342464064
19.275712,18.6020736304378,0.1019022797184791
19.278092,18.58319353028294,0.1014315062570412
19.280488,18.560309228635248,0.1009756790804423
19.282876,18.536633531054644,0.100518184759672
19.28526,18.51002456716784,0.1000699418933939
19.287656,18.479690941041923,0.0996306993517721
19.290044,18.445492883050036,0.0992032950772754
19.292424,18.40594014912495,0.0988005835719358
19.294828,18.36294229221448,0.0984012519596254
19.297216,18.317523025677005,0.0980158031744752
19.2996,18.269961888766257,0.0976391742609747
19.301996,18.222121212601785,0.0972661802383853
19.304384,18.169484939011564,0.0969067887881988
19.306768,18.111773528741868,0.0965658691867906
19.309164,18.056064219218587,0.0962152553573642
19.311552,17.99700233450854,0.0958807932243262
19.313936,17.930304133865157,0.0955831666542451
19.316332,17.872498279938974,0.0952668044427594
19.31872,17.812922642691852,0.0949671001610429
19.321104,17.75614050212407,0.0946584200797
19.3235,17.697169269354767,0.0943743654484306
19.325888,17.64429688662333,0.0940797757429904
19.328272,17.592727756504008,0.0937893647592055
19.330668,17.545115606049272,0.0934988747390264
19.33306,17.503742075259268,0.0931958870248248
19.33544,17.46539435857408,0.0928953084788384
19.33784,17.426999420060646,0.0926096287450306
19.340228,17.3949828708388,0.0923091398548417
19.342608,17.36664376202782,0.0920144856454414
19.345008,17.343472337694934,0.0917131429102935
19.347396,17.321464396347302,0.091419643939803
19.349776,17.303692973917983,0.0911224148694042
19.352176,17.29174086227281,0.0908218899940342
19.354564,17.29082296771812,0.090496319773482
19.356948,17.294653448760936,0.0901737251612364
19.359344,17.30830744208073,0.0898348690584364
19.361732,17.33406658767764,0.0894671485709303
19.364116,17.357404323647557,0.0891163151864278
19.366512,17.385630204841846,0.0887664283895066
19.368904,17.41152722420775,0.0884458437737918
19.371288,17.4468756687983,0.0881017786420394
19.373688,17.480454330067907,0.0877767269632099
19.376072,17.52106300693516,0.0874440175585254
19.378452,17.561904001227894,0.0871233800814055
19.380848,17.59855380257269,0.0868361205782054
19.383232,17.640511058022437,0.086542941693652
19.385612,17.689917637950405,0.0862341105881502
19.388008,17.737694204184294,0.0859414526298611
19.390396,17.791849159709773,0.0856392487822085
19.392776,17.845584806354676,0.0853461849291508
19.39518,17.905559072664303,0.0850459604303232
19.397568,17.96190122453343,0.0847681879969987
19.399948,18.020617564201316,0.0844940731213389
19.402352,18.07584155905556,0.0842404505750626
19.404736,18.12971507946945,0.0839979919921354
19.407116,18.179444628763648,0.0837723484168614
19.40952,18.224750667684425,0.0835683046712711
19.411908,18.26963739772463,0.0833726684337415
19.414288,18.31573483257833,0.0831718372844689
19.416692,18.363834368178445,0.0829651367126749
19.419076,18.41193390377856,0.0827607575701879
19.42146,18.464037640871517,0.0825454848276153
19.423856,18.51199740684477,0.0823459366768666
19.426244,18.561819503937585,0.0821438381779372
19.428624,18.618067212150223,0.0819176474553011
19.43102,18.67124188442981,0.0817028034206149
19.433408,18.723345621522768,0.0814937478073845
19.435788,18.777591228989,0.0812773062244633
19.43818,18.82382843346955,0.0810847185582815
19.440568,18.871788199442808,0.0808921863399158
19.442948,18.91430074168425,0.0807080361659954
19.445344,18.959886319858757,0.0805146353770221
19.447732,19.004960041354057,0.080317082003701
19.450116,19.051104698036,0.0801163175571304
19.452512,19.096597728411883,0.0799132015314312
19.454896,19.143581002854987,0.0797000082272557
19.457296,19.19312545655195,0.0794729741311129
19.459688,19.246022485435685,0.0792332978769211
19.462076,19.29398414726681,0.0790070058088674
19.46446,19.34422744909808,0.0787717978062961
19.466856,19.389814923130444,0.078545500922868
19.46924,19.434611001229904,0.0783199721498243
19.47162,19.48103709302343,0.0780823219563402
19.474016,19.52322666589865,0.0778455363023406
19.476408,19.560620641348123,0.0776194382445547
19.478788,19.597362990491533,0.0773906356049007
19.481184,19.63466441814239,0.0771540675393182
19.483568,19.670103514673684,0.0769210014886857
19.485968,19.71331869676517,0.0766588300179921
19.488364,19.756301561431183,0.0763880217056141
19.490752,19.80114675721675,0.0761150960587939
19.493132,19.84627149225604,0.0758388433160516
19.495528,19.887531795429343,0.0755710264210672
19.497916,19.92828024192346,0.0752987965483635
19.500296,19.96916845804444,0.0750252143554162
19.5027,20.007914803792133,0.0747596000859906
19.505088,20.043588113606777,0.0745032633645303
19.507468,20.074326056368808,0.0742585481620473
19.509864,20.10413283357106,0.0740149723877588
19.512248,20.127141912601143,0.0737846698643811
19.514632,20.148009121257942,0.0735613383831618
19.517028,20.163149566929224,0.0733478002992819
19.519416,20.17628791185408,0.0731394209615935
19.5218,20.192499292712,0.0729233272466909
19.524196,20.20819881689072,0.0727020149610488
19.526584,20.226319750696437,0.0724701915160688
19.528964,20.2355011159567,0.0722574795908664
19.53136,20.24682435159025,0.0720385638839946
19.533748,20.24692637867821,0.0718475228404466
19.536132,20.243024204273343,0.071665445011188
19.538528,20.23553713725622,0.0714854646829138
19.540912,20.22646727837326,0.071303477150424
19.543308,20.218747893930654,0.0711138132421371
19.545704,20.20995757430142,0.0709275231365641
19.548096,20.199584462806342,0.0707390033537294
19.550476,20.18748878981857,0.0705502298153561
19.552872,20.17180822421854,0.0703630697423365
19.55526,20.15440509712582,0.0701754250138318
19.557644,20.13742127891368,0.0699808686465873
19.56004,20.124721201448097,0.0697731623213684
19.562424,20.11122972804959,0.0695638308995331
19.564808,20.097738254651087,0.0693539552680956
19.567204,20.082384450133027,0.0691458867367776
19.569592,20.06488877524169,0.0689441277848386
19.571976,20.04697379146977,0.0687486994429669
19.574372,20.02277296620488,0.0685697309820197
19.57676,20.00457844317924,0.0683779010716061
19.57914,19.983590423474265,0.0681889034518094
19.581536,19.966746374888988,0.0679888719042569
19.583924,19.948971160743923,0.067789303947705
19.58632,19.932918508091564,0.0675896796643273
19.588716,19.912582114692647,0.0674021438399011
19.591104,19.88903291573381,0.0672235933876499
19.593488,19.86669442158848,0.0670396758319309
19.595884,19.841934517816146,0.0668658849143021
19.598268,19.81610367885718,0.0666946849712811
19.600652,19.79413727176418,0.0665173248551353
19.603048,19.77496436135052,0.0663370195653568
19.605432,19.75551191168314,0.0661607157630808
19.607812,19.73498852682912,0.0659872598327627
19.610208,19.71981981790829,0.0657984704553628
19.612596,19.70479087861433,0.0656069596987235
19.614976,19.68897054338744,0.0654136181621731
19.617376,19.67408137372033,0.0652193419009949
19.61976,19.65840080812031,0.065023391831991
19.62216,19.643930947333786,0.0648216079575042
19.624556,19.63053202173389,0.0646169101757114
19.626944,19.617924492066923,0.0644135353063815
19.629324,19.60731906314637,0.0642062643773233
19.631732,19.597365260531877,0.064002176354484
19.634116,19.59048449385044,0.0637915945653131
19.6365,19.58574559754227,0.0635746140917637
19.638896,19.58207763642075,0.0633542852977722
19.641284,19.570261502686694,0.0631502852597944
19.643664,19.56058723932593,0.0629400709989435
19.64606,19.553986011898203,0.0627230568003029
19.648448,19.54803641077654,0.0625099174533405
19.650828,19.540084708908463,0.0623002442159927
19.653224,19.53627697816008,0.0620813219333779
19.655612,19.5341918089044,0.0618633725976419
19.657992,19.52861429483508,0.0616585964110486
19.660392,19.527832378191505,0.0614484066559243
19.66278,19.52863325341377,0.0612410538082013
19.66516,19.52850296307625,0.0610343861763616
19.667556,19.52930383829852,0.0608269516689004
19.669944,19.53583147650632,0.0606138715112173
19.672324,19.53900653952733,0.0604114112685584
19.674724,19.538177401055517,0.0602154223655152
19.677112,19.53706872332998,0.0600239161074574
19.679492,19.53917285116436,0.0598241993444907
19.681888,19.539274878252325,0.0596281381797816
19.684276,19.543241337206258,0.0594278857938974
19.686656,19.551072228026168,0.0592235408128478
19.689056,19.568634083324444,0.0590071770273
19.691444,19.58512500343608,0.0587934905662166
19.693824,19.603478254667277,0.0585794003375845
19.69622,19.621179879592404,0.0583619570181093
19.698608,19.64288570601037,0.0581386119725192
19.701008,19.66445176280148,0.0579183668195599
19.703404,19.682944783659536,0.0577039992771347
19.705788,19.69864430783825,0.0574907559966004
19.708168,19.71341266645719,0.0572786537319423
19.710564,19.730974521755467,0.0570656005230504
19.712952,19.75053847780016,0.056849944118936
19.715336,19.771173369031484,0.0566320401093518
19.717732,19.788874993956615,0.0564181900977689
19.720116,19.80978942444167,0.0561970064244868
19.722496,19.83684992679283,0.055965213595664
19.724904,19.864329738024573,0.0557275663865423
19.727292,19.89194931888317,0.055488638048881
19.729672,19.91784633824908,0.0552485667623584
19.732068,19.939739156122148,0.0550144978881556
19.734456,19.96070080843544,0.0547815653484359
19.73684,19.979288272949976,0.054544112271237
19.739236,20.00201970858421,0.0542995929192852
19.741624,20.019815777165835,0.054060983039854
19.744004,20.036540910560817,0.0538250106673554
19.746404,20.047539280970263,0.0535928706621506
19.748788,20.05267111876733,0.0533664940477315
19.751168,20.06008459656453,0.0531333513761736
19.753568,20.074156002907028,0.0528965567675923
19.755956,20.084362977383563,0.0526628792143628
19.758352,20.09005389368807,0.0524283569038738
19.760756,20.09160083887288,0.0522008942158508
19.76314,20.094870345550387,0.0519755085330091
19.76552,20.09520658592169,0.0517526272288086
19.767924,20.091398855173317,0.0515366296254343
19.770312,20.07930318218554,0.0513341629812417
