Time,Force,Position
19.005551999999994,16.03400714949524,0.139376662138513
19.00799599999999,16.095278980843375,0.1390003630686493
19.010436,16.15748197775129,0.1386212207527922
19.01287599999999,16.21833450021884,0.1382586357243465
19.015324,16.28049027529851,0.1378999783708185
19.01776799999999,16.343437446311096,0.1375419314361456
19.020208,16.41052858844338,0.1371576457470442
19.022652,16.478970205016026,0.1367611471066899
19.02509599999999,16.55290626714872,0.1363215249070692
19.027536,16.624188602228937,0.1358979089146232
19.029979999999995,16.690303252831068,0.1354968059822986
19.03243599999999,16.750830910074527,0.1351265915422476
19.03486799999999,16.805399486906982,0.1347802298149219
19.037324,16.854660609634486,0.1344591460823573
19.03976399999999,16.90476035012315,0.1341221245082144
19.042211999999992,16.946200061320088,0.1338366167967006
19.04465599999999,16.984474188785356,0.1335590711144619
19.047107999999994,17.021584833265365,0.1332773571969789
19.04955199999999,17.054319189200207,0.1330141467032035
19.051999999999992,17.08724053659015,0.1327319475869811
19.05444399999999,17.127937969540287,0.132391216228269
19.056888,17.161465617265907,0.1320822980051865
19.059328,17.192758846819647,0.1317760726594146
19.06177199999999,17.222097197455206,0.1314651677839558
19.064212,17.249480669172588,0.1311500521546319
19.066648,17.272767391598528,0.1308460329998711
19.06909999999999,17.287673623986457,0.1305837238195221
19.07154,17.298063798202353,0.1303412788749201
19.073984,17.306731410925554,0.130105952010285
19.076436,17.312885066223146,0.1298782279925474
19.07888,17.32118059189401,0.1296359026978547
19.081328,17.331106131258956,0.1293738411685451
19.083767999999992,17.343173540997178,0.12909728506373
19.086208,17.356870964429476,0.1288018658940611
19.088656,17.365260933756826,0.128527343270604
19.0911,17.37313904640498,0.1282474623752851
19.093543999999994,17.38343856868013,0.1279477350860136
19.09598799999999,17.38908226315639,0.1276696912782199
19.09841999999999,17.394725957632648,0.1273915783662285
19.100864,17.401021278414962,0.127116068280777
19.103308,17.39958773546534,0.1268811833279315
19.105751999999995,17.401878854754823,0.1266293959212864
19.108211999999995,17.40482160035036,0.1263797001440289
19.11065599999999,17.41456204411807,0.1260958117726568
19.113112,17.429237854938393,0.1257864807705176
19.115552,17.44642762318433,0.1254709409515101
19.11799599999999,17.4681334496023,0.1251380647067305
19.120439999999988,17.494634873446017,0.1247826916714958
19.122892,17.521927693222658,0.1244281033229088
19.12533599999999,17.54973236967849,0.1240785240632606
19.127787999999995,17.57525540613419,0.1237462418313796
19.13022799999999,17.605294500761918,0.1233984281182671
19.132672,17.635333595389646,0.123051881479825
19.13512,17.667095251510073,0.1227023813335475
19.137564,17.70188272173531,0.1223524275937769
19.140007999999995,17.74826348755847,0.121950072916801
19.142444,17.79194330450091,0.1215742247879028
19.144887999999995,17.84200151073494,0.1211757338287238
19.147328,17.89671554476786,0.1207601271927842
19.149772,17.949147938800646,0.120362073055645
19.15222399999999,18.002231959139486,0.1199659025908448
19.154668,18.057318080224743,0.1195617226184007
19.157119999999992,18.1136149061235,0.1191500932140093
19.15956,18.163905429783007,0.1187715603122599
19.162004,18.209120816763043,0.1184216964794639
19.164448,18.25661784374321,0.1180581867976618
19.166903999999988,18.302532078857546,0.1176976523044768
19.169348,18.342719550986352,0.1173622101636458
19.171796,18.379461900129765,0.117036778640095
19.17423199999999,18.41662355815376,0.1167036082160787
19.176676,18.457137791364524,0.1163497260904565
19.17912,18.49378759270932,0.116014370102648
19.181563999999995,18.5284352933077,0.1156894317972343
19.18400799999999,18.558007857226603,0.1153909049552459
19.186443999999995,18.58506646371989,0.1150978252542841
19.18889999999999,18.600531774615263,0.1148555642787202
19.191344,18.619349660697416,0.1145931008791302
19.193788,18.63258055342089,0.114351473010415
19.19623999999999,18.63943305685278,0.1141309718780123
19.198684,18.644051142112776,0.1139094941533706
19.20113599999999,18.653884133679103,0.1136612967063164
19.203576,18.661854794125876,0.1134205470724622
19.20601599999999,18.66838243233367,0.1131789189924935
19.208459999999988,18.67491007054146,0.1129372467578415
19.21090799999999,18.682508643935897,0.1126897826096493
19.213352,18.685311619904574,0.112461505904088
19.215796,18.688905991806173,0.1122330054542358
19.218232,18.697575500387245,0.1119807439028387
19.220672,18.705965469714595,0.1117338325666391
19.223124,18.711422172735755,0.1114989451425203
19.22556399999999,18.717158415010637,0.1112596160923174
19.228012,18.72238280060631,0.1110156245330296
19.23045599999999,18.72588462470929,0.1107749289723773
19.232907999999995,18.73087669287949,0.1105203781562879
19.235351999999992,18.735356904370494,0.1102608637243709
19.2378,18.744260626234915,0.1099758144898623
19.24024,18.74464408843447,0.1097210486137506
19.24269199999999,18.74637802507438,0.1094550985130604
19.245135999999988,18.751976393580268,0.1091742268212226
19.24758399999999,18.762370359511905,0.1088757078478414
19.250028,18.76410429615181,0.1086100204914512
19.252472,18.76039100905992,0.1083595421340022
19.25491199999999,18.75267352047518,0.1081261185204786
19.257356,18.744444175211253,0.1078875329956115
19.259795999999994,18.736773908454765,0.1076384863294549
19.262243999999995,18.731525051325274,0.1073728487771638
19.264687999999992,18.72352991934469,0.1071005347491786
19.267128,18.71381222587141,0.1068318258392728
19.269572,18.69999778310668,0.1065664695858173
19.27202,18.686090792543336,0.1062874612039201
19.274463999999995,18.662592607128488,0.1060422245902366
19.276912,18.63830302578072,0.1057967736256605
19.27935199999999,18.617505789246582,0.1055289831316915
19.281792,18.597127861593037,0.1052529359565213
19.284236,18.576098307633423,0.1049738170962005
19.28667999999999,18.547200120315008,0.1047246484531645
19.28912799999999,18.52044380336987,0.1044633800981853
19.291568,18.494386334559028,0.1041883669631721
19.294004,18.46330095089696,0.1039190790892407
19.296448,18.427047882756803,0.1036581160582539
19.29889999999999,18.39428715943028,0.1033745123401927
19.301344,18.36394784573076,0.1030735524150447
19.303792,18.33495900647159,0.1027607734406101
19.306224,18.306249706466144,0.1024419361193068
19.308679999999995,18.273396435341,0.1021414018940071
19.31111999999999,18.23453686197661,0.101864420338772
19.313559999999995,18.19418704454501,0.1015996183657285
19.316008,18.15011256487429,0.1013448584114854
19.318456,18.109902517069543,0.1010752075752077
19.320899999999995,18.074208527436824,0.1007936874028388
19.323352,18.048664811163054,0.1004680457847783
19.325796,18.021398533396585,0.1001441307981488
19.32824,17.986123852644447,0.0998511653547804
19.33068,17.946565431145757,0.0995785583831056
19.333124,17.909800506326402,0.0992970464408826
19.33556399999999,17.87703978299988,0.0989981253121577
19.338004,17.848702570046775,0.0986742901951319
19.340464,17.81673324265317,0.0983735012569766
19.34290399999999,17.785415541565627,0.0980740321727303
19.345348,17.75381830122436,0.097778637401185
19.347799999999992,17.72021896013668,0.097490027933156
19.35025999999999,17.688342180541696,0.0971979950067467
19.352712,17.657396566506485,0.0969023975894034
19.35515199999999,17.625519786911497,0.0966083710145114
19.357592,17.592060215450676,0.0963125966629095
19.360036,17.56288438473641,0.0959944424784953
19.362488,17.535990194022276,0.0956619623404569
19.364927999999992,17.510306708121643,0.0953202729040308
19.367376,17.482621121474594,0.0949852565705802
19.369824,17.448277606282232,0.0946695160786952
19.37226799999999,17.406437544783408,0.0943893610710612
19.374708,17.367251210337052,0.0941033397832332
19.377151999999995,17.33407117812995,0.0937927459357867
19.379591999999988,17.304103951482766,0.0934653019585344
19.38202799999999,17.271622767409966,0.0931388891252185
19.38448,17.241423223337303,0.092798455916555
19.386928,17.20880226963764,0.0924730144067143
19.389371999999995,17.179254351871034,0.0921339778917231
19.391824,17.152499930783765,0.0917868250499676
19.394268,17.12853900637583,0.0914316339738423
19.396716,17.10816297458015,0.0910690415465596
19.399159999999995,17.085784842038052,0.09071308355286
19.401599999999988,17.063127170242225,0.0903618224127105
19.404044,17.03925879363291,0.0900170702622083
19.406492,17.02283974150182,0.08965334977552
19.408936,17.00800348123656,0.0892902954459632
19.41137599999999,16.99554140877006,0.0889286570606253
19.41382,16.980238617795983,0.0885892361629464
19.416264,16.969451884993934,0.0882410773694898
19.418707999999995,16.964112375923694,0.0878815951618603
19.421151999999992,16.96305660760001,0.0875015874245233
19.4236,16.958927803343272,0.0871329533587414
19.426036,16.960385992445197,0.0867522984743029
19.428488,16.966220470092296,0.0863672603606146
19.430927999999994,16.972938891470932,0.0859967813129769
19.433368,16.98161219176774,0.0856372057501764
19.43581599999999,16.991868283930383,0.0852791290065755
19.43826399999999,17.00184483683931,0.0849266779317378
19.440708,17.015406282360487,0.0845699790665807
19.443159999999992,17.028548419001083,0.0842215843070363
19.445595999999995,17.0412712467611,0.0838818781211099
19.448039999999992,17.05930152862607,0.0835365298468777
19.45048399999999,17.081847868663065,0.0831851797388796
19.452928,17.110772597991648,0.0828237738799065
19.455368,17.13555335620054,0.0824788545804186
19.457804,17.158052474409295,0.0821460800896144
19.46025999999999,17.18148275817783,0.0818129418351504
19.462703999999988,17.215063315305304,0.0814464899362413
19.465148,17.24957503799256,0.0810800715104946
19.46759999999999,17.28688025735915,0.0807101908334358
19.470044,17.326280125270777,0.0803495033629063
19.472495999999992,17.374200252847267,0.0799720484632989
19.474936,17.41983874042362,0.0796087732877279
19.47738799999999,17.460541860947366,0.079260427958675
19.479832,17.50403847815044,0.0789080357820313
19.48227999999999,17.54595230348768,0.0785553254193932
19.484724,17.58865752475784,0.0782047734206134
19.487164,17.63308530752069,0.0778545725037645
19.48960799999999,17.677373320656685,0.0775094634210911
19.49205599999999,17.72659670084529,0.0771532675601537
19.494496,17.779824282526732,0.0767879907270803
19.496939999999995,17.830118597901976,0.0764316151466907
19.499383999999992,17.878410812530806,0.0760827192694048
19.501819999999995,17.925492322346134,0.0757423391078476
19.50427599999999,17.981513400706913,0.0753814267632764
19.506716,18.042050537239717,0.0750170539435308
19.509159999999994,18.10137696895902,0.0746610789344189
19.51160399999999,18.158421760678195,0.0743186665659314
19.514056,18.214255847583868,0.0739843962832002
19.5165,18.26981039523582,0.0736574704750206
19.51894,18.32750681326105,0.0733253049376384
19.52137599999999,18.38026786423366,0.073006628832197
19.52382399999999,18.43102681445986,0.0726943048391133
19.526264,18.485370657298315,0.0723801886544613
19.528712,18.541204744203988,0.0720573683952049
19.531156,18.59848185334863,0.0717407391448279
19.533592,18.65990293361297,0.0714146544503416
19.536048,18.72332611462373,0.071085789472183
19.538488,18.780882763022092,0.070769654362099
19.540935999999988,18.837228706606965,0.0704618457033269
19.54338399999999,18.890501614258778,0.0701641005737507
19.545828,18.946707788216784,0.0698622340877974
19.548283999999995,19.002122566241876,0.069560312034813
19.550723999999988,19.057165257214628,0.069251802225517
19.553168,19.104059775574854,0.0689654123774972
19.555612,19.149371502069247,0.068677912897107
19.55806,19.191889731884302,0.0683940449355362
19.560503999999995,19.231614465020023,0.0681145054318654
19.56294799999999,19.271339198155747,0.067835956186461
19.565383999999995,19.30934136979877,0.0675584243796331
19.56782799999999,19.34468981438932,0.0672830702849145
19.57027199999999,19.38204035972628,0.0670045734011831
19.572716,19.42046184024989,0.0667237599387979
19.57516,19.458511233721158,0.0664361031410241
19.577596,19.492556425699583,0.0661576675976156
19.580051999999995,19.525158595439045,0.0658752184574291
19.582491999999988,19.550823297379463,0.0656065870806071
19.584936,19.57090100596123,0.0653435498009633
19.58738,19.5941915201029,0.0650714327025636
19.589832,19.61417668088604,0.0647967872218984
19.592276,19.6344413809229,0.0645185102895371
19.59472799999999,19.65005025316087,0.0642447853013834
19.597163999999992,19.667661226145256,0.0639680882586769
19.59960799999999,19.683270098383225,0.0636956680074896
19.602052,19.69929827950177,0.0634168112399436
19.604496,19.714674834314263,0.0631349700841293
19.60693599999999,19.73219325950004,0.0628475101222098
19.609372,19.74784935356625,0.0625616395537172
19.61181599999999,19.7669977924461,0.0622641371394714
19.61426,19.782281799459977,0.0619716475736875
19.616704,19.7944927705408,0.0616857667224378
19.61915599999999,19.80405001456914,0.0614002195862906
19.62160399999999,19.812815862664564,0.0611136753847153
19.62406,19.817437739640297,0.0608361622095192
19.626504,19.822990782175808,0.0605582117905124
19.62894399999999,19.825750328031987,0.0602819856950574
19.631388,19.83051197463458,0.0600024411323666
19.633844,19.839417592356867,0.059714308789264
19.63628399999999,19.849394145265794,0.0594240735823752
19.638724,19.857089058174584,0.0591411879058501
19.641172,19.862130244030897,0.0588580104301142
19.643615999999994,19.868242365073847,0.0585721140851736
19.646056,19.870629823877685,0.0582885627691252
19.6485,19.874879613801085,0.0580043705314918
19.65093999999999,19.878198238164707,0.057720584354834
19.653375999999994,19.88044592734168,0.0574395928061975
19.655828,19.87962058058561,0.0571640364340549
19.658272,19.87972639938931,0.0568878876746545
19.660716,19.871684045580484,0.0566259239421334
19.66315999999999,19.866854497331573,0.0563561700642842
19.665612,19.863375423523017,0.0560794769301193
19.668056,19.859756580087605,0.055804847121828
19.670508,19.853064700719138,0.055535340086492
19.672951999999995,19.851587727657005,0.0552556749881862
19.675391999999988,19.846386092355758,0.0549770575328739
19.67783999999999,19.843698414480123,0.0547014630111295
19.680284,19.83942794473865,0.0544222483615583
19.682724,19.832736065370188,0.0541522704158604
19.68516799999999,19.821900214882028,0.0538896552049912
19.687612,19.815068565886698,0.0536215752841333
