Time,Force,Position
16.818868000000002,12.352941368117856,0.1426997033371678
16.821255999999998,12.377988394575384,0.142552705214696
16.823639999999997,12.394050526517091,0.142445575286683
16.826036000000002,12.403549173569978,0.1423459453328258
16.828424,12.412583185771911,0.142216980124898
16.830804,12.421943959055806,0.1420558922419146
16.833208,12.427068213421393,0.1419172585513327
16.835596000000002,12.430237588868804,0.1417737348399958
16.83798,12.4296823020771,0.141658528384153
16.840376,12.423540021926726,0.1415859279133887
16.842764000000003,12.418887985843574,0.1414884726460373
16.845143999999998,12.413304784200642,0.1413982222115924
16.847540000000002,12.405579712184432,0.1413309094696812
16.849928,12.401067445728138,0.1412292277232078
16.852308,12.39562401371207,0.1411348740618435
16.854703999999998,12.390320351322858,0.1410364188485587
16.857092,12.385156458560504,0.1409336524004935
16.859476,12.3781302346786,0.1408446523641097
16.861871999999998,12.375667290796969,0.1407019821319838
16.86426,12.3733441165422,0.1405554165954108
16.866644,12.37530468303398,0.1403646594000561
16.86904,12.375263148779345,0.1401916688129595
16.871428,12.379365585644402,0.1399783470408156
16.873812,12.386121749561932,0.1397485766743899
16.876208,12.392318834972023,0.139536284960805
16.878596,12.397956841874676,0.1393414249346131
16.880975999999997,12.40703997176272,0.1391278421457921
16.883380000000002,12.423944513181327,0.1388724908148347
16.885768,12.445365112771968,0.1385878706348685
16.888148,12.473024332027336,0.1382657505179814
16.890548000000003,12.504920070201011,0.1379238585149988
16.892936,12.533463233187918,0.1376186103203824
16.895316,12.564008496921236,0.1372956151772959
16.897712,12.591992581400698,0.1370081343349405
16.900100000000002,12.614110133267769,0.1367690524006682
16.902479999999997,12.63129231808223,0.1365720961039936
16.904876,12.6534098699493,0.1363351693689841
16.907263999999998,12.68218535036168,0.1360492006627915
16.909644,12.710401752266622,0.1357819468967082
16.912044,12.735265578984786,0.1355514470007917
16.914428,12.75835962238201,0.1353542415204387
16.916824,12.78862345100374,0.1351156490226011
16.919219999999996,12.820842158543645,0.1348847527294936
16.921608,12.854084579441944,0.134666651312826
16.923988,12.88877002257922,0.1344488462720686
16.926384,12.927040358328746,0.1342116034623914
16.928772000000002,12.967684881877029,0.1339696267986915
16.931151999999997,13.00232310318606,0.1337796535717759
16.933552,13.037612950801153,0.133593154227279
16.935935999999998,13.069550223229465,0.1334420896542339
16.938319999999997,13.102139121963836,0.1332945680888451
16.940723999999996,13.143527819616796,0.1330826422198112
16.943108000000002,13.189712114695505,0.1328397361259297
16.945487999999997,13.240692007199964,0.1325649015504135
16.947884000000002,13.302054490488848,0.1322237604175661
16.950272,13.3707265286291,0.1318417555135234
16.952655999999998,13.43632553083629,0.1314892191361002
16.955052000000002,13.50085359785685,0.1311511193641102
16.957436,13.565102125623683,0.1308222960270706
16.95982,13.633866711562549,0.130469911666366
16.962215999999998,13.706495729367388,0.1300952632782362
16.964604,13.774189380119616,0.1297593071076525
16.967,13.841371174192645,0.1294207443444662
16.969395999999996,13.909903442706032,0.1290672121507935
16.971784,13.981508747152477,0.1286929854297112
16.974164000000002,14.052182886039144,0.1283278061319183
16.97656,14.120203297873331,0.1279768374098624
16.978948000000003,14.186081839334246,0.1276431606417013
16.981327999999998,14.256104351914855,0.1272821590234888
16.983728,14.331761079682376,0.1268729644833107
16.986116000000003,14.408396194837918,0.1264432915348843
16.988500000000002,14.477442215888374,0.1260618738540864
16.990896,14.542763574699716,0.1257050714346907
16.993284000000003,14.607852616085582,0.125340093558723
16.995663999999998,14.663909541127383,0.1250206547738264
16.998060000000002,14.711585976131182,0.1247464506971215
17.000451999999996,14.757539849642283,0.1244793484841761
17.002831999999998,14.800979765727773,0.1242217165551515
17.005232,14.846980861067117,0.1239388566047477
17.007619999999996,14.88995614230165,0.1236592198498465
17.009999999999998,14.926553034244591,0.1234112233251013
17.0124,14.965850875068254,0.1231342521414494
17.014787999999996,15.001424053652803,0.1228770199438817
17.017167999999998,15.03876701555829,0.1225970361053457
17.019568,15.07187345854547,0.1223317320955135
17.021955999999996,15.105259440786368,0.122061409519107
17.024340000000002,15.142277537467765,0.1217588159541065
17.026736,15.183067518216514,0.1214192649029672
17.029123999999996,15.216547944113897,0.121114959284975
17.031508000000002,15.24523277258553,0.1208389210598304
17.033915999999998,15.26856292512397,0.1206028245216495
17.036308,15.29817891915538,0.1203250308003613
17.038683999999996,15.32341862464162,0.1200625771877412
17.041092,15.340649927142191,0.1198486351245317
17.043476,15.3606747263221,0.1196216640678065
17.045859999999998,15.389127237368257,0.1193375013908664
17.048251999999998,15.41813882692185,0.1190406220285073
17.05064,15.446498790169388,0.1187422386485037
17.053019999999997,15.471553400058394,0.1184528678833038
17.055416,15.497027318827978,0.1181543625259585
17.057803999999997,15.522268920172088,0.1178434856743151
17.060184,15.543134232971026,0.1175481858495992
17.062579999999997,15.564838163531125,0.1172333193378018
17.064963999999996,15.580023935172774,0.1169487718161399
17.067344,15.59390645420231,0.1166596203335808
17.069747999999997,15.601829892820838,0.1163866192400766
17.072136,15.60272331584172,0.1161372441475681
17.074516000000003,15.59938021994429,0.1158986568923533
17.07692,15.593662936248103,0.1156620182113916
17.079307999999997,15.582777968073833,0.1154396868429899
17.081688,15.572219760981522,0.1151917240682205
17.084083999999997,15.549696171238956,0.1149930185343825
17.086472,15.527591890376968,0.1147838618435718
17.088851999999996,15.510470198395836,0.1145283906766728
17.091248,15.489531296376974,0.1142731184691214
17.093635999999996,15.460631213200688,0.1140440486116711
17.096016,15.429217172598785,0.11381980051097
17.098416,15.39556871382499,0.1135937567748475
17.1008,15.357543966506023,0.1133801498035962
17.103180000000002,15.316074096201667,0.1131749101457302
17.105576,15.274883765151026,0.1129620735382718
17.107964000000003,15.233041807794333,0.1127455553327538
17.11036,15.190408454504716,0.1125285703929822
17.112755999999997,15.146843935655324,0.1123144990816337
17.115144,15.100485920126596,0.1121110638502808
17.117523999999996,15.055478379038226,0.1118925246298029
17.119928,15.011262233882777,0.1116720600379772
17.122315999999998,14.968117023913962,0.1114431059379238
17.124696,14.924320187639092,0.1112101324502788
17.127091999999998,14.884667322483914,0.110950163478033
17.12948,14.844734918075018,0.1106955920967496
17.131859999999996,14.813462542957843,0.1103979212460593
17.134259999999998,14.78461157746767,0.1100780481386292
17.136643999999997,14.75389828085794,0.1097649982395211
17.139024,14.723976380181126,0.1094500276747176
17.141427999999998,14.695637271370147,0.1091327412569567
17.143816,14.668229328118953,0.1088105186751947
17.146195999999996,14.641752550427537,0.1084833166914182
17.148592,14.618720895721507,0.1081463639581812
17.150976,14.598203198441098,0.10780368451202
17.15336,14.57954783228024,0.1074529204519222
17.155752,14.559541991679026,0.1071146543773471
17.158139999999996,14.54018777738387,0.106778678490461
17.160536,14.521624959021633,0.1064410297578001
17.162931999999998,14.508649134018064,0.106080150540659
17.16532,14.497116331253473,0.1057212263158329
17.167699999999996,14.487026550727853,0.1053642872973974
17.170096,14.478519562068072,0.1050064667940444
17.172483999999997,14.478253293819437,0.1046191547560875
17.174867999999996,14.475146307063222,0.1042620997773487
17.177264,14.47641560885218,0.1038942552273457
17.179651999999997,14.476334436200776,0.1035407521360329
17.182032,14.479279077654189,0.1031907459075492
17.184432,14.48124533171958,0.102863589113467
17.186816,14.488379270263056,0.1025258536271627
17.1892,14.495885295858873,0.102197732967626
17.191595999999997,14.50669667481322,0.1018662868003564
17.193984,14.516529666379547,0.1015576686022987
17.196364000000003,14.529668011304407,0.1012462178184276
17.19876,14.543038673654744,0.1009481063083707
17.201147999999996,14.55557071824392,0.1006704154065773
17.203544,14.574341382497826,0.1003759807873321
17.20594,14.594415299363844,0.1000886019024246
17.208328,14.620588066267732,0.0997885190097332
17.210707999999997,14.650066186530154,0.0994875730498387
17.213108,14.682570120897385,0.0991910784667083
17.215496,14.721592214183064,0.0988741283899389
17.217875999999997,14.759496150453865,0.0985835955562458
17.220276,14.792557267470666,0.0983333409325198
17.222659999999998,14.8301344426595,0.0980704972574181
17.225043999999997,14.861425776355365,0.0978433075484485
17.22744,14.894020362663346,0.097623665858949
17.229827999999998,14.926055870463884,0.0974186047908472
17.232208,14.962467666809594,0.0972048350978623
17.234603999999997,14.996597823155168,0.0970080796206686
17.236992,15.036175203232547,0.0967974604845713
17.239376,15.076124670362269,0.0965979294478055
17.241776,15.12059019566402,0.0963868104530705
17.244163999999998,15.161842915405856,0.0961951126544537
17.246547999999997,15.20602890145389,0.0959922535998192
17.248944,15.252728844927532,0.0957876345982558
17.251331999999998,15.29700737877418,0.095602490176665
17.253712,15.340866603740247,0.0954272095901834
17.256112,15.38286349758676,0.095259289900252
17.258499999999998,15.41750361475366,0.0951308787476083
17.26088,15.45428560229384,0.0949920781367256
17.263275999999998,15.481708712407992,0.0949008014718012
17.265664,15.515697203268836,0.0947721163547893
17.268048,15.547963132636982,0.0946456467245556
17.270443999999998,15.580368831631992,0.0945168873497593
17.272832,15.61649919286611,0.094376643416919
17.275211999999996,15.65370048928687,0.0942315685758948
17.277611999999998,15.688108289028287,0.0940954227195365
17.28,15.724006332836932,0.0939457694585833
17.282379999999996,15.763256951832354,0.0937772146565225
17.284776,15.799434534894717,0.0936240290136969
17.287163999999997,15.834029326091244,0.0934709780939283
17.289547999999996,15.869183195795213,0.0933072547488827
17.291944,15.907549871059096,0.0931274806078426
17.294331999999997,15.944193984830282,0.0929510642013847
17.296728,15.980466011549131,0.0927666147259601
17.299124,16.018088512708342,0.0925713794428829
17.301512000000002,16.05934312830805,0.0923521846888467
17.303891999999998,16.098735412788194,0.0921388151568214
17.306288000000002,16.142551207641763,0.0919008327950898
17.308672,16.18078000913665,0.0916793254249982
17.311056,16.225574191378236,0.0914225335552916
17.313451999999998,16.262639509887876,0.0911930597572247
17.31584,16.306130439517343,0.0909323769840732
17.318219999999997,16.352834174706725,0.0906579733228372
17.320616,16.403030254709744,0.0903636917097711
17.323003999999997,16.451503773220065,0.0900728691078694
17.325400000000002,16.503050327663445,0.0897703675675867
17.327796,16.54980128468107,0.0894840166902474
17.330184000000003,16.59226850095214,0.0892198205896931
17.332568000000002,16.630638967931766,0.088956151588196
17.334964,16.669288974165106,0.0886877824385227
17.337351999999996,16.705936879652032,0.0884282246872404
17.339731999999998,16.73913966215357,0.0881732073181996
17.342128000000002,16.7723424446551,0.0879190263852545
17.344516,16.80247219122358,0.0876777797222605
17.346899999999998,16.831158915553083,0.0874334829551455
17.349296000000002,16.858123078389887,0.0871925812579328
17.351684,16.88629794604019,0.0869445428076611
17.354067999999998,16.914752352944213,0.0866922339822034
17.356464000000003,16.940925119848107,0.0864519944567973
17.358852,16.96458392932638,0.0862137858655345
17.361232,16.989965300297342,0.085974034532399
17.363632000000003,17.011342469775478,0.0857494172108656
17.366016000000002,17.024059609961885,0.0855495845446606
17.3684,17.031981152722544,0.0853634818733578
17.370796,17.03617803324409,0.0851855436884117
17.373184000000002,17.035067459660684,0.0850145942424196
17.375563999999997,17.035167590890772,0.0848361958208962
17.37796,17.03461609581481,0.0846543595232007
17.380347999999998,17.036997867045038,0.0844635870029463
17.382728,17.035654976036152,0.0842807897139445
17.385128,17.033939997974933,0.0840893820269402
17.387512,17.031154084727074,0.0839024714345463
17.389908,17.024923048493825,0.0837179227858386
17.392308,17.016178054834956,0.0835334257390947
17.394695999999996,17.009435161922507,0.0833425196610268
17.397076,16.99482363565125,0.0831749405414984
17.399471999999996,16.97862931751416,0.0830057137009966
17.40186,16.95763940195131,0.0828485754314867
17.404244,16.940561140082682,0.0826637470796559
17.406639999999996,16.921341007840784,0.0824878246182691
17.409024000000002,16.89988645742698,0.0823063998093998
17.411403999999997,16.88085331664018,0.0821103947488623
17.413804,16.86410181585352,0.081901919232556
17.416192000000002,16.84455681838752,0.081698458574497
17.418571999999998,16.829295561668076,0.0814764763899062
17.420975999999996,16.816827801627966,0.0812486078271276
17.423364,16.80142677528166,0.0810285770286454
17.425744,16.78551389225616,0.0808018751542555
17.42814,16.768530074044016,0.080579511947951
17.430528000000002,16.75569022695157,0.0803415742085623
17.432912,16.738426869485714,0.0801238101951371
17.435308,16.72116351201985,0.0799055579442236
17.437696000000003,16.70655388160646,0.0796843067189816
17.440075999999998,16.698881718992105,0.0794424988468978
17.442476,16.686553728578854,0.0792093411186231
17.44486,16.67822993965844,0.0789628668621665
17.447243999999998,16.669626611484304,0.0787216235487858
17.449640000000002,16.663165153683444,0.0784710822328383
17.452028,16.65335112069581,0.0782362180527008
17.454423999999996,16.643397318081313,0.0780036078028298
17.45682,16.635026307332655,0.0777726007131627
17.459207999999997,16.619950146210446,0.0775732045969024
17.461588,16.609390043260266,0.0773682264314498
17.463988,16.604696472922477,0.0771477365722896
17.466375999999997,16.59972336333097,0.076933012565808
17.468756,16.59489002336632,0.0767157042092181
17.471156,16.59205878414809,0.0764921267941374
17.473543999999997,16.594954307915387,0.076256840016994
17.475924,16.597989601309546,0.0760188178423429
17.478319999999997,16.599674420263344,0.0757907888460746
17.480708,16.603501109590418,0.0755536516402892
17.483092,16.610261065223693,0.0753093299786155
17.485487999999997,16.617160790483826,0.0750626098746392
17.487876,16.618845609437624,0.0748345494881937
17.49026,16.623835781749953,0.0746084946370425
17.492655999999997,16.63320224260746,0.0743807495800493
17.495044,16.648575005704213,0.0741372350208723
17.497424000000002,16.666321956599724,0.0738979185033685
17.499823999999997,16.687793569734342,0.0736529811696358
17.502212,16.713269384361798,0.073397519412872
17.504592000000002,16.74246986122837,0.0731372723863954
17.506991999999997,16.778095949214766,0.0728528612199826
17.50938,16.810788770894973,0.072576490928858
17.511764,16.841339722201898,0.0723091869816038
17.514159999999997,16.869748803135547,0.0720503761823712
17.516548,16.89773857518862,0.0718000130401986
17.518928000000002,16.93038417504058,0.0715442133309132
17.521327999999997,16.955952537466654,0.0713087651022085
17.523716,16.987247662878257,0.0710643329064497
17.526096000000003,17.020544889036273,0.0708157248792929
17.528495999999997,17.058777482246906,0.0705566232033716
17.530884,17.10073473769665,0.0702944463871362
17.533264000000003,17.146556425012367,0.0700265323605956
17.535663999999997,17.199455349753975,0.0697415834604826
17.538055999999997,17.251702648189525,0.0694537086859729
17.540439999999997,17.300644593266544,0.0691641024941981
17.542836,17.34250930091767,0.0688940548835669
17.545223999999997,17.38400192151646,0.0686163746646595
17.547607999999997,17.427496642861666,0.0683354300083716
17.550004,17.47313323458015,0.0680494188168342
17.552388,17.519328904806077,0.0677555880689248
17.554767999999996,17.562311769472085,0.0674732853527803
17.557172,17.604503238205172,0.067190099343326
17.559559999999998,17.648836577311542,0.0669011202645683
17.56194,17.69344945567163,0.0666075225588999
17.564335999999997,17.73927303884522,0.066308869445639
17.566724,17.777367758286857,0.0660236437599717
17.569103999999996,17.81853551366155,0.0657306817395742
17.5715,17.851183009371383,0.0654497878888371
17.573887999999997,17.881037008401883,0.065172535836857
17.576268,17.9099598418726,0.0648977573139606
17.578663999999996,17.92850008455889,0.064635708695076
17.581052,17.94038239869988,0.0643829229805556
17.583447999999997,17.941323043549005,0.064152045160609
17.585844,17.94040135727857,0.0639228334651772
17.588231999999998,17.93920013175442,0.0636984063335534
17.590612,17.93734727992421,0.0634694966731068
17.593007999999998,17.93335255772072,0.0632472729475489
17.595396,17.92805458290512,0.0630176104507503
17.59778,17.91716961473085,0.0627930144140447
17.600184,17.901349279503965,0.0625771760155149
17.602567999999998,17.887019188344297,0.0623508428137459
17.604951999999997,17.874551428304187,0.0621230249870325
17.607348,17.859150401957887,0.0618998818388883
17.609735999999998,17.84696218117149,0.0616675496519851
17.612119999999997,17.83226000295949,0.0614324243761718
17.614516000000002,17.82398343586732,0.0611787373358896
17.6169,17.817848739148424,0.0609193539081639
17.619284,17.81758057504192,0.0606512483432726
17.621679999999998,17.813308209442575,0.0603897728391932
17.624068,17.804380016044348,0.0601314508827414
17.626447999999996,17.801458124885368,0.0598616341185393
17.628844,17.80254043521922,0.0595846028890558
17.631231999999997,17.812050457419325,0.0592859182641536
17.633612,17.8237023499927,0.0589814519314161
17.636012,17.839637983312635,0.0586660781938008
17.638396,17.85929827887168,0.0583486302322929
17.640791999999998,17.87723601293803,0.0580297632704491
17.643192,17.89061046700411,0.0577274114182311
17.645576,17.90170328107005,0.0574326693898429
17.647959999999998,17.91437888700182,0.057141727596281
17.650356000000002,17.92505239218718,0.0568543202824295
17.652744,17.93321193994692,0.0565638812973901
17.655124,17.942721962147022,0.0562662001661813
17.657524000000002,17.943944042107738,0.0559859224190847
17.659912,17.94474681318787,0.0557123959009581
17.662292,17.940986304267728,0.0554549179688693
17.664687999999998,17.932290428294976,0.0552041754744389
17.667076,17.92066128601603,0.0549571518125631
17.66946,17.911313783737217,0.0547013506524572
17.671860000000002,17.90475977813774,0.0544441741806287
17.674248,17.897926233284544,0.0541918311514126
17.676623999999997,17.89002175324471,0.0539424262010233
17.67902,17.874900266152125,0.0537066260593461
17.681407999999998,17.857776678313122,0.0534734929145791
17.683788,17.830642586742037,0.0532543396048834
17.686192,17.799783832931837,0.0530358530887716
17.68858,17.770368101360614,0.0528232195872292
17.690959999999997,17.740300743483328,0.0526052149101651
17.693356,17.713166651912243,0.0523833848442262
