Time,Force,Position
18.044688,15.984886587554335,0.1424746838144961
18.047084,16.029442764796837,0.1422127066155879
18.049472,16.06985686677751,0.1419346492394471
18.051852,16.101193526443748,0.1416737444049993
18.054252,16.127689262713858,0.1414108180610717
18.05664,16.148645227453546,0.141163522211461
18.05902,16.162571176595584,0.140948942759546
18.061416,16.17384339868515,0.1407464164620743
18.063808,16.187629578200326,0.1405343722137931
18.066188,16.204441571820322,0.1403177434115756
18.068588,16.226001941037822,0.1400897384190964
18.070976,16.249145102121155,0.1398587267436169
18.07336,16.275780608018128,0.1395957278111307
18.075756,16.301252630929845,0.1393256541671397
18.078144,16.321045112684274,0.1390740452999806
18.080528,16.33422688772164,0.1388457636328956
18.082924,16.338423768243185,0.1386461190597076
18.085312,16.335637854995323,0.1384606203287721
18.087692,16.326008917604927,0.138285882197285
18.090088,16.308326251258485,0.1381333521459753
18.092476,16.29404338192706,0.1379339892139298
18.09486,16.277014237744545,0.1377316934198191
18.097256,16.25346693464358,0.1375648704825734
18.099644,16.2296400922889,0.1374039125057078
18.102024,16.20953791217333,0.1372217399058055
18.10442,16.19232177653571,0.1370384099275204
18.106808,16.1803658731748,0.1368483757926918
18.109204,16.173390662836876,0.1366583856365192
18.1116,16.16795102253654,0.1364828780824312
18.113988,16.16171998630329,0.1363092758275559
18.116368,16.15060080484567,0.1361498633986408
18.118764,16.134174169283103,0.1360143054572263
18.121148,16.116304511481555,0.1358789408574179
18.123532,16.102346507374225,0.1357021071957512
18.125928,16.087364789908502,0.1355154321714677
18.128312,16.07429262539058,0.1353006275009564
18.130696,16.06592351049979,0.135042743008781
18.133088,16.065982107475246,0.1347226165515461
18.135476,16.0677632659434,0.1343951861315755
18.137872,16.068845576277255,0.1340830564754664
18.140268,16.071370908850085,0.1337714599694222
18.142656,16.07985532183392,0.1334386473511233
18.14504,16.092017175228634,0.1331032055599073
18.14744,16.104271576421958,0.1327819095146082
18.149828,16.115547590227255,0.1324841015805237
18.152212,16.124541964032424,0.1322061732077189
18.154608,16.137820078584145,0.1318969005556004
18.156992,16.1552893860838,0.1315422469601683
18.159376,16.171502662799586,0.1311670287235745
18.161772,16.186692226156975,0.1307821694930707
18.16416,16.203651572835305,0.1303732704452015
18.16654,16.221868846155374,0.129934413146065
18.168936,16.235849600557135,0.12950953703631
18.171324,16.250529203093194,0.12907034078748
18.173704,16.264557179323198,0.1286289593647477
18.1761,16.275651889247005,0.1282049683855117
18.178488,16.283114484730316,0.1278147649225453
18.180872,16.28093866353388,0.1274951456841326
18.183268,16.28020586457642,0.1271759189556342
18.185656,16.281195627111657,0.1268498988678239
18.188052,16.280834915206537,0.1265386217674299
18.190448,16.27768070662208,0.1262413657776061
18.192836,16.276947907664624,0.125922508578717
18.195216,16.2779848920281,0.125579717435681
18.197612,16.277718623779464,0.1252329595147382
18.2,16.277499577359073,0.1248680346306848
18.20238,16.27104191127395,0.1245283770193682
18.204776,16.258997251830163,0.1242156803888838
18.207164,16.244531182759374,0.1239238975338366
18.209544,16.231508135927562,0.123632608369669
18.211948,16.21671530577481,0.1233642722630135
18.214336,16.20373758491337,0.1231047092998209
18.216716,16.193785678156747,0.1228432301742466
18.21912,16.178711412892405,0.1226304088636467
18.221508,16.167733896919515,0.1224086327636946
18.223888,16.16071336061121,0.1221812514028499
18.226284,16.153413285049194,0.1219597924833478
18.228672,16.15104857653979,0.1217101752946216
18.231052,16.14803224172432,0.1214585062545371
18.233452,16.149159878028545,0.1211806405619803
18.23584,16.145072608026442,0.1209359562384704
18.23822,16.14084556839748,0.1206943212372101
18.240616,16.134756197648958,0.1204612240647253
18.243004,16.13197218025897,0.1202212913526817
18.245384,16.13105049398854,0.1199730019530897
18.24778,16.131012751449642,0.1197384023441399
18.250168,16.134420131896135,0.119493621593283
18.252552,16.13605772902169,0.1192713627563162
18.254948,16.142490923573,0.1190256128117829
18.257336,16.150506909990145,0.1187786572685457
18.25972,16.165460364206318,0.1184950463114673
18.262116,16.18148475360913,0.1182049944068342
18.264504,16.198859617452303,0.1179023439643344
18.2669,16.222240783534723,0.1175669964409574
18.269296,16.24576171924401,0.1172303510962432
18.271684,16.26676869752767,0.1169000841523703
18.274064,16.29406151730431,0.1165324214550397
18.276468,16.324427373014004,0.1161489232699182
18.278856,16.356515790216395,0.1157618287363715
18.281236,16.389255833724842,0.1153796071527626
18.283632,16.433356855405734,0.1149330841864011
18.28602,16.483044870445294,0.1144668399844078
18.288404,16.53431567735069,0.1140005301142316
18.290808,16.581582282763254,0.1135567384852277
18.293192,16.633364946347847,0.1131008814302691
18.295572,16.6864980843728,0.1126337227280981
18.297976,16.74242471907709,0.1121590319892618
18.300364,16.80342649046085,0.1116581595854003
18.302748,16.866150823337307,0.1111572598247563
18.305144,16.93087725696018,0.1106502330880081
18.307532,16.9913199498365,0.1101726795681797
18.309912,17.054556139392158,0.109688243926849
18.312308,17.11937512081365,0.1092058855174981
18.314696,17.1831231670485,0.1087330302249036
18.31708,17.243378868469716,0.1082859354292249
18.319476,17.31122366399602,0.1078133770617262
18.32186,17.378509381014883,0.1073570445056436
18.324244,17.44430485396652,0.1069185382458215
18.32664,17.51275405397064,0.1064764030550601
18.329028,17.581994649907678,0.1060377510923128
18.331412,17.64546126103094,0.1056407145702697
18.333808,17.704923670661366,0.1052643652742696
18.336196,17.767598885851715,0.1048735484083778
18.33858,17.835209468094675,0.1044642325018927
18.340976,17.896022352165463,0.1040832388254451
18.343364,17.959768502542445,0.1036935618161517
18.345744,18.02258348735965,0.1033101847947832
18.348148,18.086189868109773,0.1029292495746336
18.350536,18.14672321292684,0.1025646782994883
18.352916,18.20152979475838,0.1022213022972917
18.355316,18.25661591584364,0.1018739584743651
18.3577,18.30890854024956,0.1015372919073345
18.360084,18.36548490540204,0.1011828956610099
18.36248,18.42527407611443,0.1008155914233286
18.364868,18.49069746201373,0.100418465183038
18.367248,18.548531753807957,0.1000480995078652
18.369644,18.60091882187036,0.0996923115445676
18.372032,18.65400473806708,0.0993256886707558
18.374416,18.70578740165167,0.0989566132049733
18.376812,18.752262611131314,0.0985990700027598
18.3792,18.800787143185623,0.0982201755715067
18.38158,18.848008422627814,0.0978369896411523
18.383976,18.891365270204027,0.0974684058695005
18.386368,18.93155653404857,0.0971015695818271
18.388748,18.97752178270689,0.0967038430330176
18.391144,19.01990213875295,0.0963153207114715
18.393532,19.057766436626984,0.0959372809924899
18.395912,19.093536085955986,0.0955554564191091
18.398308,19.127211086739944,0.0951687105001952
18.400696,19.165309597897323,0.0947612174929104
18.403092,19.202104856442585,0.0943494627823997
18.405488,19.23824848868179,0.093936193476641
18.407876,19.26615140050985,0.0935430750770486
18.410256,19.284882426366988,0.0931705649854627
18.412656,19.298957624425235,0.0928103794404801
18.415044,19.31373167061778,0.0924382262251519
18.417428,19.330927126437327,0.0920522309205139
18.419824,19.344397920017755,0.0916755474877378
18.422212,19.355354756172577,0.0913012959415004
18.424596,19.36794160602147,0.090912917460897
18.426996,19.374801692884837,0.0905397124478298
18.429384,19.380078987882364,0.0901655773810752
18.431764,19.383121864707995,0.0897878295390271
18.434168,19.38323147522744,0.089418539510367
18.436556,19.37719501388077,0.0890713774673663
18.43894,19.369995069548843,0.0887161063732235
18.441336,19.36349397335122,0.0883483985237326
18.443724,19.35620148122068,0.0879804000522238
18.446104,19.349188528343856,0.0876072234371005
18.448504,19.335797186175444,0.0872447748114696
18.450888,19.31975211695456,0.0868849477937552
18.453272,19.29961029844222,0.0865241706224603
18.455668,19.276674983250555,0.0861678993088068
18.458056,19.256812703991937,0.085800160537048
18.46044,19.234436467307702,0.0854323354608261
18.462836,19.206985093944,0.0850797332934561
18.465224,19.175948827968043,0.0847311843188193
18.467608,19.141979295685893,0.0843892465536847
18.470004,19.106147432284185,0.0840499619149089
18.472392,19.066311367389645,0.0837213412623627
18.474772,19.025683906562183,0.0833904821821645
18.477168,18.986127380921364,0.0830543174075499
18.479556,18.9472224815866,0.0827201606510493
18.481936,18.90831758225184,0.0823848251181448
18.484332,18.869692222170794,0.0820434555414584
18.48672,18.828505682835893,0.0817163149470832
18.489104,18.78475796424713,0.0814034141891326
18.4915,18.7388683752851,0.0810976119505016
18.493888,18.690697146322925,0.0808010872512736
18.496268,18.644900105159508,0.0805055391063959
18.498668,18.600406316608208,0.0802152408962607
18.501056,18.55600507585552,0.0799364266583858
18.503436,18.511044756595396,0.0796658659231696
18.505836,18.463663027708268,0.0794070967668903
18.508224,18.417584551433254,0.0791537350168839
18.510608,18.3792349388902,0.0788818684723052
18.513004,18.34018647821284,0.0786209918370746
18.515392,18.30500244940145,0.0783503601260806
18.517776,18.27112167320217,0.0780856335550145
18.520172,18.242408581480987,0.0778183342152398
18.52256,18.22072550535745,0.0775458456843625
18.524944,18.202627321846165,0.0772697197476983
18.52734,18.187043095760497,0.0769939185138023
18.529728,18.17397282710044,0.0767182718707783
18.532108,18.163556285492856,0.0764404397304896
18.534504,18.154582766124253,0.0761663714039033
18.536892,18.149613448248484,0.0758813484165226
18.539276,18.147297857425187,0.0755943756530877
18.541676,18.15243159108012,0.0752966179332164
18.544064,18.16422325328036,0.0749878309665471
18.546444,18.18081051290635,0.0746705905090233
18.54884,18.203264305144728,0.0743407419510684
18.551232,18.234517896301696,0.0739923355852564
18.553612,18.27228964637711,0.0736354316839738
18.556008,18.312854893131867,0.0732753766147491
18.558396,18.35272129175232,0.0729292237533349
18.56078,18.401107950037627,0.0725704705727025
18.563176,18.452799961681475,0.072215553466823
18.565564,18.50607476519116,0.0718639075880486
18.567948,18.556928159073845,0.0715249873536398
18.570344,18.60377735146369,0.0711969136651521
18.572732,18.64764605571911,0.0708914129420789
18.575116,18.69430825665386,0.0705842835667282
18.577512,18.7426930190813,0.0702784920012799
18.579904,18.792101494867143,0.0699857494259345
18.582284,18.84723673363851,0.0696850862471526
18.584684,18.90339568576828,0.0693975346387956
18.587072,18.96085789051016,0.0691184078111966
18.589456,19.013105188945712,0.068855351455087
18.591856,19.059858041821208,0.0686130631711251
18.59424,19.106331355442983,0.0683771434603022
18.59662,19.15303698649024,0.068153048489176
18.599012,19.19583096384327,0.0679514815369639
18.601396,19.23713469712909,0.0677611305994914
18.603792,19.27988145265388,0.0675766711407234
18.606196,19.319555172245614,0.0674001149650888
18.60858,19.35708702146408,0.0672313722444315
18.61096,19.39261676993613,0.0670676238002741
18.613356,19.428798144714225,0.0669080441726006
18.61574,19.46898372098516,0.0667408662086776
18.61812,19.51289395949521,0.066570761251293
18.620516,19.5590858380054,0.0663927041536547
18.6229,19.597920939835976,0.0662346731953826
18.625296,19.63633673278597,0.0660840550447838
18.627692,19.669677389056496,0.0659444080067375
18.630076,19.698734304580466,0.0658176566478988
18.632456,19.72686005454465,0.0656921419719443
18.634852,19.753775099695343,0.0655722546686973
18.63724,19.782272936711877,0.0654552446210413
18.639636,19.809699838541764,0.0653413276863734
18.642028,19.833634395558025,0.0652412753867828
18.644416,19.854915225521804,0.0651418360063936
18.646796,19.876755133993026,0.0650338752395015
18.649192,19.89501014985199,0.0649271276988898
18.651576,19.910192129777904,0.0648274391883818
18.653956,19.926445044890453,0.0647248355273597
18.656352,19.93669165776376,0.0646336584182228
18.65874,19.945727565823557,0.0645477749643731
18.661136,19.951969977204023,0.0644643411612058
18.663532,19.956210287838072,0.0643848708591943
18.665916,19.95630662735243,0.0643150770893001
18.6683,19.953981557239786,0.0642555300668867
18.670704,19.95566068861998,0.0641885789384681
18.673088,19.95654842406725,0.0641203467781669
18.675468,19.96293060507458,0.0640354252542251
18.677872,19.97159442608204,0.063942708220798
18.68026,19.98053778634322,0.0638458766711358
18.68264,19.98775858511171,0.0637484016842512
18.685036,19.99525892313392,0.0636467871796155
18.687424,20.001828095596345,0.0635457761901002
18.689804,20.005743541006304,0.0634446509655298
18.692204,20.0095192167894,0.0633457326320083
18.694592,20.011013252572354,0.063254742787203
18.696972,20.014090080221145,0.0631665780079637
18.699368,20.015444346377244,0.0630776233949816
18.701756,20.017590008466264,0.0629901949024611
18.704136,20.02080660574192,0.0628997283183335
18.706532,20.0230920374578,0.0628099568807128
18.708916,20.023515138054115,0.0627214447176146
18.711312,20.02207590753088,0.0626343548928054
18.713708,20.02277854738092,0.0625416038577142
18.716096,20.02017583387242,0.0624449774363388
18.718476,20.01198612700525,0.0623522963866677
18.720872,19.996858952339064,0.0622706852409551
18.72326,19.98052107285938,0.0621940772372784
18.72564,19.960178991886853,0.0621243771621242
18.728032,19.93275967348844,0.0620677841273815
18.73042,19.90361779359733,0.062010155655167
18.732816,19.870891021093968,0.0619527636829347
18.735212,19.8405856582176,0.0618851910417594
18.7376,19.81149100015474,0.0618124095132729
18.73998,19.77666957910634,0.0617454785235163
18.742376,19.738403035072547,0.0616765360638036
18.744764,19.69976440398642,0.0615992817953774
18.747144,19.664338578460207,0.0615133002252931
18.74954,19.62639879550838,0.0614246334208481
18.751928,19.59060088292983,0.0613300880450689
18.75432,19.55294063923172,0.0612365249416256
18.756724,19.51635133072026,0.0611398180117792
18.759112,19.475897590342814,0.0610474009070728
18.761492,19.430927791793344,0.0609554980996722
18.763888,19.38688915880365,0.0608625105213741
18.766272,19.35071915917277,0.0607577368793074
18.768652,19.32376826734105,0.0606340697680766
18.771048,19.293092713270216,0.0605125495170912
18.773436,19.26055482807983,0.0603918177522432
18.775816,19.237375820315464,0.0602500371215841
18.77822,19.21899240997685,0.060102977512071
18.780608,19.20219179150407,0.0599588487604338
18.782988,19.183109533031157,0.0598222806066367
18.785384,19.1658896056778,0.0596843916302319
18.787772,19.155607146123472,0.0595355893844997
18.790152,19.150120283994895,0.0593814377783962
18.792548,19.144214112985743,0.0592338076476215
18.794936,19.13430374048375,0.0590926612287909
18.79732,19.123042893541403,0.0589583638425719
18.79972,19.111642276972194,0.058826256486351
18.802108,19.10438563152268,0.0586852648028768
18.804488,19.10006225237936,0.0585404547388919
18.806884,19.103327967341123,0.0583892119127505
18.809272,19.11297207159448,0.0582366601649618
18.811668,19.127411773273582,0.0580794767028479
18.814064,19.13691610790008,0.05792946464672
18.816452,19.14041414028732,0.0577891413230559
18.818832,19.14884753972717,0.0576420995320903
18.821228,19.16421840696606,0.0574852683070889
18.823616,19.174234598271752,0.0573420363469947
18.826,19.181177753644388,0.0572047371128895
18.828396,19.18798113939017,0.0570695501503293
18.830784,19.19678662588236,0.0569312407132414
18.833164,19.20866514830761,0.05678762761244
18.83556,19.219472735546216,0.056646863083236
18.837948,19.230792179464025,0.0565124156011694
18.840328,19.243973954501385,0.0563772334074348
18.842724,19.26181155733764,0.0562400983363949
18.845112,19.284724296853373,0.056094489708967
18.847508,19.30842843230202,0.0559509207243266
18.849912,19.3337153596165,0.0558115151152918
18.8523,19.361656013983456,0.0556737702872776
18.854676,19.38773433723086,0.0555372954038725
18.85708,19.413021264545343,0.0553996501832878
18.859468,19.440030753352524,0.0552641296757749
18.861848,19.47155630033173,0.0551292873545421
18.864244,19.512253733281867,0.0549936830658683
18.866632,19.5522523180977,0.0548692786365941
18.869016,19.59197136365981,0.0547499226203696
18.871412,19.640490208140506,0.0546220633968651
18.873796,19.69394441967382,0.0544890115006583
18.876176,19.754475868633016,0.0543461867933576
18.878572,19.8208738502046,0.054198461373026
18.88096,19.885129961402917,0.054056432243451
18.88334,19.95725470596004,0.0539072722370691
18.885736,20.035805061636985,0.053745418671877
18.888124,20.117568222873857,0.0535776705068672
18.890504,20.20226465041692,0.0534083933050142
18.8929,20.2889631787064,0.0532379889492303
18.895288,20.37687241180937,0.0530641226656379
18.897672,20.464781644912343,0.0528913863903222
18.900068,20.550176920589703,0.0527164764943387
18.902456,20.638645232200123,0.0525381045603676
18.904852,20.725251212690985,0.0523611039414781
18.907248,20.809063696502516,0.0521857055753987
18.909636,20.89236432363484,0.0520055675520719
18.91202,20.968495165542663,0.0518239647983518
18.914424,21.044533459651863,0.0516313614004857
18.916808,21.11577615633532,0.0514421167948852
18.919188,21.178219054100182,0.0512612904500139
18.921584,21.23386425369289,0.0510860257591443
18.923968,21.283922459926917,0.0509127654536242
18.926348,21.326251802428995,0.0507453211949063
18.928752,21.364716713065107,0.0505804727262563
18.931136,21.392519493663077,0.0504236552175173
18.933516,21.409380604969176,0.0502783998163182
18.93592,21.421306349222668,0.0501379700583506
18.938308,21.42471183381129,0.0500005931037507
18.940688,21.420248685041116,0.0498698819398432
18.943092,21.41406297477824,0.0497375585654704
18.945476,21.399357004850494,0.0496077503912838
18.947856,21.379436128616412,0.049485889274641
18.950252,21.34950474865026,0.0493742976464329
18.95264,21.31449823200463,0.049268536704705
18.95502,21.27576705311988,0.0491627824017499
18.957424,21.231309111249608,0.0490589503980852
18.959812,21.18098463676695,0.0489587516368226
18.962192,21.12237222004489,0.0488701331165961
18.964588,21.060966306643508,0.0487811749420148
