Time,Force,Position
26.892676,10.970169139875232,0.1479509839365436
26.895076000000003,11.037811777083478,0.1475878784568108
26.89746,11.089252512723158,0.1473617284733913
26.89986,11.135013707205546,0.1471678827762664
26.902256,11.180170497210122,0.1469501585617189
26.904644,11.225933587550385,0.1466907901140171
26.907028,11.27058041673363,0.1463988753742132
26.909424,11.312760510319505,0.1460970539220134
26.911812,11.35154270274823,0.1457944038093764
26.914192,11.393584922565116,0.1454295336969092
26.916588,11.431809932344269,0.1450789823692307
26.918976,11.47008216395167,0.1447051529824505
26.921356000000003,11.50146414958828,0.1443777075327031
26.923752,11.532474048172556,0.1440399712843168
26.92614,11.565905356383826,0.1436694840905197
26.92852,11.595612002355985,0.1433307019810901
26.930916000000003,11.622153064596471,0.1430055191709338
26.933304,11.64669202609054,0.1427016439531899
26.935688,11.672301922771249,0.1423862796764922
26.938084,11.697772049825094,0.1420776668570944
26.940472,11.720169140945888,0.1418023910743265
26.942852,11.738422260946988,0.1415717830040434
26.945252,11.766034258374107,0.1412411057021834
26.947636000000003,11.794996730241593,0.140890590082202
26.950036,11.81678941688457,0.1405915228632787
26.952432,11.833134879795738,0.1403340874971924
26.95482,11.848968486027706,0.1400716538678597
26.9572,11.86550094039398,0.1397875700919487
26.959596,11.884734343640968,0.1394641054131296
26.961984,11.899451688715928,0.1391733667735736
26.964364000000003,11.913377637857964,0.1388858076236321
26.966764,11.926512191067085,0.1386021548842495
26.969152,11.941089766515184,0.1383175043332633
26.971536,11.95338570196314,0.138060053153402
26.973932,11.961537666291406,0.137844523687119
26.97632,11.973414292858786,0.1376011805796662
26.9787,11.989667207971335,0.137333193524596
26.9811,12.004057791964332,0.1370787176528211
26.983488,12.019519311143965,0.1368141420774802
26.985868,12.033258268830895,0.1365597419763904
26.988268,12.043412333905584,0.1363275309324887
26.990652,12.055056643047486,0.1360704937314031
26.993032,12.062556981069694,0.1358555773389145
26.995432,12.06526172166615,0.1356792821508363
26.99782,12.072622290061496,0.1354687441501013
27.0002,12.080634484762903,0.1352602276193283
27.002604,12.086365039464171,0.1350788812940617
27.004988,12.090605350098222,0.1349223906189899
27.007372,12.089211445545358,0.1348307815277649
27.009768,12.092473368791383,0.1347059824226132
27.012156,12.096806227224054,0.1345704026737759
27.014536,12.101139085656715,0.1344352654530139
27.01694,12.104820317783329,0.1342979491013013
27.019324,12.114368082522326,0.1341127508919818
27.021708,12.128571675060217,0.1338950315312456
27.024112,12.143846202784744,0.1336680804280364
27.0265,12.153393967523742,0.1334849653043138
27.02888,12.169739430434912,0.1332491189329592
27.031284,12.183803253345944,0.1330396769919531
27.033672000000003,12.196796141070331,0.1328408905840138
27.036052,12.215655561407116,0.1325950254841675
27.038456,12.235446147303678,0.1323436481194354
27.040844,12.258309769133296,0.1320660612213964
27.043224,12.285968988388662,0.131752635419516
27.045624,12.311765876524474,0.1314530520527172
27.048012,12.339564865406702,0.1311378015125666
27.050392,12.368155250221848,0.1308202927834592
27.052788,12.396745635036991,0.1305030521243882
27.055176000000003,12.427989746904611,0.1301707485052382
27.057556,12.453507095786703,0.1298815720773197
27.059952000000003,12.475811639108876,0.129623779490061
27.06234,12.498116182431051,0.129367227419555
27.06472,12.523633531313145,0.1290806474100957
27.067124,12.544634822023204,0.1288219509437624
27.069512000000003,12.562190989747872,0.1285801060774266
27.071892,12.57201829374059,0.1283949146628874
27.074296,12.582916532919947,0.1281990571688065
27.076684,12.588227778740638,0.128040421440025
27.079064,12.594098103068765,0.1278652433525029
27.08146,12.603181232956809,0.1276600216070531
27.083848000000003,12.610262262098436,0.1274714735390964
27.086232000000003,12.617343291240063,0.1272835374741925
27.088628,12.617626622209524,0.1271450834052888
27.091016000000003,12.61926042761934,0.1269891070746928
27.093396,12.62131354190974,0.1268209706086241
27.0958,12.619781763587884,0.1266719475783109
27.098188,12.615875797467275,0.1265276797107076
27.100568000000003,12.613320305787028,0.1263654530620812
27.102964,12.611743201494798,0.1261748627467614
27.105352,12.612168197948984,0.1259685471047801
27.107732,12.61394366884353,0.1257438014669331
27.110132,12.612646103805025,0.1255444006084038
27.11252,12.611068999512796,0.125353863181214
27.1149,12.609491895220565,0.1251631552103564
27.117296000000003,12.608054560555194,0.1249682107337822
27.119684,12.609410722569162,0.1247552168550838
27.122064,12.61062711495627,0.1245460895122362
27.124464000000003,12.611703737716514,0.1243408901401946
27.126848000000003,12.61278036047676,0.124135901509634
27.129232,12.609852781744175,0.1239619069401829
27.131628,12.60520264151889,0.1237949409544161
27.134016000000003,12.59869017017405,0.1236392647916699
27.136396,12.596181900322042,0.1234523964229776
27.138792,12.588598493790563,0.12330613597709
27.14118,12.578593677632089,0.1231873041848944
27.14356,12.571382358152944,0.1230515111206678
27.14596,12.568966636099557,0.122883578431349
27.148348,12.56240694292647,0.1227500934224479
27.150728,12.554217236059309,0.1226426220488348
27.153124,12.544956594005509,0.1225446587530534
27.155512,12.53956038381768,0.1224205678960843
27.157896,12.538447914376407,0.1222582839069617
27.160292,12.535333344188716,0.1221112392146551
27.162676,12.535012270680362,0.1219480945074933
27.165076,12.539347024970898,0.1217586444871617
27.167472,12.549827851127544,0.1215217006572283
27.16986,12.562450547657466,0.1212663409377823
27.17224,12.579077445680223,0.120982754667981
27.174636,12.59621620038218,0.1207065938109999
27.177024000000003,12.61628822139033,0.1204108555122953
27.179408,12.643809566876705,0.1200753117482027
27.181804,12.675055574602196,0.1197205548954492
27.184192000000003,12.7100262445668,0.1193476684444294
27.186572,12.74657970639724,0.1189719132114673
27.188972,12.787928765653431,0.118567530775536
27.191360000000003,12.831140156029178,0.1181558582073128
27.193744,12.875142942337844,0.1177466305014423
27.19614,12.921939225325849,0.1173212954420114
27.198528000000003,12.970877378687124,0.1168798720842521
27.200912,13.023400424660654,0.1164240375290049
27.203308,13.07271066507427,0.1159972788730942
27.205696000000003,13.120251122166948,0.1156008848149037
27.20808,13.168722744819403,0.1152008045206374
27.210476,13.21626320191208,0.1148080661003474
27.212868,13.25979945751192,0.1144450359186102
27.215248000000003,13.303056173858044,0.1140942034894766
27.217644,13.348314990950582,0.1137329881149946
27.220032000000003,13.389429836923426,0.1134032514037833
27.222416000000003,13.430684452523131,0.1130709518202605
27.224812,13.471799298495975,0.1127439026801394
27.227200000000003,13.50918948222971,0.112438692847774
27.229584000000003,13.545508730776804,0.1121439879239645
27.23198,13.576101216338364,0.1118808393975344
27.234372,13.609394650780647,0.1115880430030904
27.236752000000003,13.641896689290007,0.1112980774294705
27.239148,13.670254756679675,0.1110373495435017
27.241536,13.698612824069343,0.1107788331048789
27.243920000000003,13.731254632205566,0.1104905662386745
27.246324,13.762173878849092,0.1102085059217866
27.248712,13.790718937693864,0.1099295981346198
27.251092,13.821545636538774,0.1096327042404649
27.253488,13.851069082771566,0.1093299993081652
27.255876,13.87579693157861,0.109051082849344
27.258256000000003,13.901595715572288,0.1087659090943786
27.260656,13.925532168446413,0.1084888077389307
27.263044,13.942670923148366,0.108248126209824
27.265424000000003,13.95487431079771,0.1080355408168553
27.26782,13.96935933844719,0.1078044359082755
27.270208,13.98426367497725,0.1075635070320817
27.272592000000003,13.99930778113417,0.1073197594564947
27.274988,14.011698160238618,0.1070850560772155
27.277376,14.017849919678335,0.1068708616927974
27.279760000000003,14.030287520611026,0.1066160768694653
27.282156,14.03858115042402,0.1063880099361461
27.284544,14.043709196505343,0.1061618944221215
27.286928000000003,14.048884464414911,0.1059148369056518
27.289324,14.047681343032892,0.1056914328365554
27.291712,14.042893329038616,0.1054805984864831
27.294096000000003,14.037313919111424,0.1052700296773906
27.296496,14.030943113251311,0.1050596950639885
27.298884,14.020847645152088,0.1048644257735873
27.301268,14.014244521866498,0.1046406977921527
27.303664,14.014998175260516,0.1043701583244739
27.306052,14.013098101602065,0.1041076358507004
27.308436,14.012548502383968,0.1038307070355135
27.310832,14.015631017606369,0.1035216710235196
27.31322,14.023276812829046,0.1031777207705409
27.315604,14.029339816185889,0.1028346370240851
27.318,14.032469553236536,0.1025059854664476
27.320388,14.031223001742008,0.1021880304438185
27.322768,14.028253888754788,0.101873217125664
27.325168,14.03194270431287,0.1015295437891632
27.327556,14.025760785765732,0.1012351997314772
27.329936,14.022931442405367,0.1009164288109936
27.332336,14.021405351657124,0.1006042416049165
27.334724,14.020391117588073,0.1002985778456503
27.337108,14.02366062426558,0.0999646932066564
27.339504,14.025859195756446,0.0996379433476711
27.341892,14.028197536874174,0.0993077255747345
27.344276,14.030256338738177,0.0989842473546846
27.346672,14.032454910229044,0.0986567778804862
27.349064,14.02864717948066,0.0983600992233908
27.351444,14.020323390560243,0.0980772747982039
27.353844,14.011068436080048,0.097797367730733
27.356228,14.003955351973133,0.0975040569292757
27.358612,13.996842267866215,0.0972109130753014
27.361008,13.984793816706686,0.0969407888381654
27.363396,13.97074326480074,0.0966799035971216
27.36578,13.956692712894796,0.0964183870507245
27.36818,13.94664636248168,0.0961365145022405
27.370568,13.939393508747903,0.0958445745549151
27.372952,13.929347158334794,0.0955624454928064
27.375348,13.927029671653628,0.0952475080439159
27.377736,13.922430544972324,0.0949493477787004
27.38012,13.917319561611826,0.0946440901319313
27.382516000000003,13.914350448624605,0.0943260355043573
27.384904,13.906678286010244,0.0940435152033125
27.387284,13.899006123395887,0.0937607475872586
27.38968,13.89198558708759,0.0934816368620656
27.392068,13.888457395592924,0.0931768581329958
27.394452,13.886931304844678,0.0928625537619141
27.396848,13.890061041895322,0.0925329774638597
27.399236,13.897287528237417,0.0922028268238821
27.401616,13.902232374579372,0.0918876719057023
27.404012,13.904755811294333,0.0915923102646515
27.4064,13.905789003942074,0.0913134885114494
27.40878,13.910127549948347,0.091033084836562
27.411176,13.918050988566874,0.0907444769629898
27.413564,13.930118398305094,0.0904348984773536
27.415944000000003,13.942557895095652,0.0901367269454045
27.41834,13.955137161513068,0.0898358673070581
27.420728,13.968647593490267,0.0895326054660352
27.423108,13.979364528788128,0.0892384427147133
27.425508,13.993294269645904,0.0889269819462956
27.427892,14.008946571996375,0.088614152997571
27.430292,14.023667708787071,0.0883050337802923
27.432688,14.046816557444014,0.087952308556167
27.435076,14.06782353572768,0.0876110645816571
27.437456,14.086968182891791,0.0872751981855967
27.439852,14.101968858936209,0.0869605790158619
27.44224,14.120694197219738,0.086637509453311
27.44462,14.138348600316627,0.086321150682514
27.447016,14.149205305241347,0.0860290714405793
27.449404,14.166347851659044,0.0857057743874087
27.451788,14.18470110289024,0.0853738035331463
27.454184,14.202123188561652,0.0850440053833867
27.456572,14.218893647927008,0.0847109726345172
27.458952,14.233662006545948,0.0843865618020982
27.461348,14.245077789978108,0.0840832425322771
27.463736,14.253979615984658,0.0837808392651439
27.466116,14.262881441991205,0.0834790367255037
27.468516,14.2687102320647,0.0831905184268045
27.4709,14.27560995732483,0.0828967017802598
27.4733,14.277155006651768,0.0826307622562298
27.475696,14.275766789672511,0.0823750057763972
27.478084000000003,14.273167867879756,0.0821280115798965
27.480464,14.267356140527086,0.0818983109292611
27.48286,14.268621650600306,0.0816406949074353
27.485248,14.271749491793082,0.0813785903432275
27.487632,14.275528959291917,0.0811204278222063
27.490028,14.272510728618585,0.0808841977947254
27.492416,14.267490397198832,0.0806552458909838
27.494796,14.266753806525635,0.0804045336295394
27.497196,14.263735575852296,0.0801681318791748
27.499584,14.258575474805683,0.0799420920326517
27.501964,14.256767948945848,0.0796971229600441
27.504368,14.25589158864579,0.0794504662142694
27.506756000000003,14.259298969092283,0.079183668174565
27.509136,14.266198694352418,0.0788957210633983
27.511532000000003,14.276823081851663,0.0786003278570279
27.513924000000003,14.287959326030109,0.0783130527100762
27.516304,14.308035138753992,0.077997147948543
27.518700000000003,14.331416304836416,0.0776845719579615
27.521088,14.358941442038528,0.0773552461010377
27.523472,14.38912030629312,0.0770237988833988
27.525868000000003,14.422232436853903,0.0766848225389283
27.528256,14.45399409297433,0.076357933940003
27.530636,14.479330137974928,0.0760616780219353
27.533036000000003,14.506808053348797,0.0757569740417282
27.53542,14.537498774282584,0.0754388010953763
27.537804,14.573124862268983,0.0751064897673969
27.5402,14.612894921375078,0.0747590544141225
27.542584,14.656249873093424,0.0744102098018237
27.544968,14.701467155931333,0.0740595321882335
27.547368,14.751899345075566,0.0736900003123896
27.549756,14.804054095712498,0.0733231805384408
27.552136,14.855137911162792,0.0729625204905198
27.554536,14.90286915142631,0.0726207674956225
27.556924,14.94924991724947,0.0722919416012711
27.559304,14.993768351953074,0.0719678862910976
27.561704,15.03670399479084,0.0716418541161722
27.564092,15.069117277217323,0.0713395565426125
27.566472,15.097433810352358,0.0710342918674021
27.568868,15.125750343487388,0.0707302956364458
27.571252,15.153555019943225,0.070419889702674
27.573648,15.178566199719722,0.0701146682882836
27.576044000000003,15.200272026137691,0.0698058658398837
27.578432,15.225749736623014,0.069472988391767
27.580816,15.24908557673506,0.0691498561479795
27.583212000000003,15.269348380914051,0.0688374345592898
27.5856,15.28653814915999,0.0685355625742394
27.58798,15.302796751846149,0.0682362788175172
27.590376,15.312537195613858,0.0679464720475071
27.592764000000003,15.3179013508364,0.067657308534143
27.595144,15.318469908633189,0.0673776491150328
27.597544,15.313032164190725,0.0671138756732143
27.599928,15.306011627882423,0.0668465435527456
27.602312,15.29661690377537,0.0665737213037866
27.604708,15.281076107802203,0.0663186062527591
27.607096,15.26460414626926,0.0660644148282565
27.609492000000003,15.24706124954968,0.0658136950023977
27.611888,15.235896742121684,0.0655576140507696
27.614276,15.221519429133773,0.0653126633343493
27.616656,15.204348619466527,0.0650707366000074
27.619052,15.189040140918843,0.0648268725344554
27.62144,15.176804698304212,0.0645743253805177
27.623824,15.172298119421528,0.0643081052470694
27.62622,15.164438965352064,0.0640561800270919
27.628608,15.155928184976544,0.0637995017738786
27.630988,15.149699044601164,0.0635325591188542
27.633384,15.142678508292866,0.0632633647769434
27.635772000000003,15.134726806424789,0.0629953786944182
27.638152,15.130499766795824,0.0627236035611459
27.640552,15.131999490152388,0.0624440234862437
27.642940000000003,15.137084106121208,0.0621641478957239
27.64532,15.14538152764994,0.0618731454161617
27.647716000000003,15.158334776977568,0.0615787344773918
27.650104,15.175012688544305,0.0612813582042294
27.652488,15.19997854235043,0.0609610033381878
27.654884000000003,15.226015331343191,0.0606377033198625
27.657272,15.255125156269017,0.0603071249619536
27.659656,15.28172102376922,0.0599742496784463
27.662052000000003,15.31190178388168,0.0596409274916665
27.66444,15.34194277436728,0.0593102884336832
27.66682,15.36919026817354,0.0589829667828806
27.669220000000003,15.393224956419887,0.0586670528538908
27.671608,15.411253342426985,0.0583645218386045
27.674004,15.431283829180495,0.058058115816195
27.6764,15.451965942240069,0.0577570411094227
27.678788,15.470366415299504,0.057466124073493
27.681168,15.491700154665132,0.0571711796635159
27.683568,15.510752254030624,0.056885817023069
27.685956,15.529804353396113,0.0566014104624858
27.68834,15.54578341682855,0.0563252834546451
27.690736,15.56003991876829,0.0560483823820144
27.693128,15.575087816640949,0.0557744198288596
27.695508,15.585200347460994,0.0555088928779308
27.697908,15.59317100790776,0.0552500802782752
27.700296,15.598208402048336,0.0549961936464365
27.702676,15.602826487308327,0.0547506315020249
27.705076,15.6083757381281,0.0545054747483883
27.707464,15.616578716000353,0.0542623439391652
27.709844,15.629205204246013,0.0540054975901284
27.71224,15.647698225104063,0.0537420611423554
27.714628,15.66390960596198,0.0534870739077433
27.717008,15.680912382752814,0.0532346080842594
27.719404,15.698846325103425,0.0529817851081965
27.721792,15.717711433013813,0.0527293495525781
27.724176,15.735785144991286,0.0524748872508498
27.726572,15.75278792178212,0.0522232390557385
27.72896,15.767648828199672,0.0519778667031305
27.731344,15.78250973461723,0.0517321840268533
27.73374,15.795228770661511,0.0514925994256649
27.736128,15.80780803707893,0.0512560265019808
27.738512,15.81689495868271,0.0510330855887807
27.740912,15.819696038793522,0.0508241323466288
27.7433,15.821286414090835,0.0506201611921617
27.74568,15.82180585420151,0.0504187882688285
27.74808,15.816039452819211,0.0502310540184128
