Time,Force,Position
26.193684,11.761878980876304,0.1429208353876852
26.196072,11.868534232080885,0.1423956426647045
26.198456,11.962155061306436,0.1419156357757864
26.200856,12.049119857844548,0.1414312058082664
26.203244,12.12994047837442,0.1409459662876566
26.205624,12.200333182149498,0.1405070912631981
26.208024,12.262951696222252,0.1400988876086502
26.210412,12.324873258018576,0.1396510850324761
26.212796,12.374317580485444,0.1392933231828486
26.215192,12.417942592168163,0.1389672925904406
26.21758,12.453187113812882,0.1387085391898857
26.21996,12.482844642098929,0.1384938605772331
26.22236,12.511338687399718,0.1382729179141251
26.224748,12.535316674528476,0.1380822383921089
26.227132,12.55664093460476,0.1379081018447543
26.229528,12.576242633188349,0.1377445108365418
26.231916,12.599988302891632,0.1375433114796229
26.234296,12.628809109274384,0.1372973881806989
26.2367,12.652694548604526,0.137094453281742
26.239088,12.674857426441974,0.1369021841329215
26.241472,12.700652418719915,0.1366679631536111
26.243868,12.729939755811497,0.136393329591203
26.246256,12.762719437716708,0.1360799964724994
26.248636,12.795918428502503,0.1357570332006936
26.251032,12.82874533223596,0.1354253548678711
26.25342,12.85919804817066,0.135098090716127
26.2558,12.884483079627271,0.1347957609598596
26.258196,12.90245855623252,0.1345408885986655
26.260584,12.918199614665872,0.1342876015557744
26.262964,12.93328904679317,0.134032923634446
26.265364,12.949309644480245,0.1337723815875915
26.267748,12.967052803660014,0.1335042308114735
26.270132,12.98530781951898,0.1332434342822268
26.272528,13.011151929483034,0.132930883330941
26.274912,13.037787435380006,0.1326162601028983
26.277296,13.065214337209897,0.1323012364811261
26.279692,13.08491237530784,0.1320440910570305
26.282084,13.100234124860611,0.1318103374012402
26.284464,13.117977284040382,0.1315492571813867
26.286864,13.133858112100596,0.1313009592994693
26.289252,13.14038006273478,0.131134649838184
26.291632,13.146110617436053,0.1309705848531286
26.294032,13.150118610644624,0.1308150535379642
26.29642,13.152124503106778,0.1306757427530055
26.2988,13.152919690755434,0.1305503164528546
26.3012,13.162654446949537,0.130357503703011
26.303588,13.177184800569387,0.1301316365329757
26.305968,13.197162377921057,0.1298755716275452
26.308372,13.223937653444889,0.1295723447974986
26.31076,13.253366656021194,0.1292575331543179
26.31314,13.282144032291445,0.1289413622870853
26.315536,13.3062655807628,0.128653402447315
26.317924,13.327873171808545,0.1283752354862391
26.320308,13.340820733562564,0.1281565070180279
26.322704,13.35390806494344,0.1279340593453577
26.325092,13.364201899644986,0.1277287684852315
26.327472,13.379431101399142,0.1274878968959835
26.329868,13.393309828712937,0.1272639514110349
26.332256,13.407048786399873,0.1270451870115726
26.334652,13.421858679273448,0.1268175777114024
26.337048,13.44402534882663,0.1265281582363623
26.339436,13.46777481024565,0.1262364958890748
26.34182,13.491104962784092,0.1259574951097676
26.344216,13.513643719389613,0.1256808236357461
26.346604,13.538324346368412,0.1253866329392356
26.348984,13.559931937414154,0.1251188871674534
26.351384,13.581259989206178,0.1248596332872769
26.353772,13.601796645065283,0.1246035507089353
26.356152,13.617397933871777,0.1243821959228918
26.358552,13.63127666118557,0.1241685367786608
26.36094,13.646877949992064,0.1239490835562032
26.36332,13.669416706597582,0.123683304050434
26.36572,13.69474895988244,0.1234031047064477
26.368108,13.722223083540571,0.12310451139495
26.370488,13.751047681639069,0.1227907055324832
26.372888,13.780943214924196,0.1224683494437354
26.375276,13.809116186716633,0.1221537576174296
26.377656,13.840362194442122,0.1218168076420878
26.380056,13.869745871048057,0.1214912095726202
26.382444,13.898338151721072,0.1211679708960906
26.384824,13.92413693571475,0.1208612820834745
26.387224,13.948632467096315,0.1205508400602912
26.389612,13.970614041052263,0.1202477530656294
26.391992,13.991524679821577,0.1199533621539858
26.394388,14.007779490791997,0.1196834533462611
26.396776,14.021240805083083,0.1194286701029429
26.39916,14.03433003232183,0.1191646480374422
26.401556,14.042623662134826,0.1189283088084543
26.403944,14.05119683120154,0.1186845590356625
26.406328,14.05683673396206,0.1184588315021444
26.408724,14.057169182617631,0.1182542926947293
26.411112,14.051774868287676,0.1180822341070977
26.413492,14.040653790972184,0.1179420396232958
26.4159,14.031674584029972,0.1177850252057313
26.418284,14.020273967460763,0.1176518936680685
26.420668,14.006871250145135,0.1175315970900863
26.423064,13.991186892829376,0.1174314135245824
26.425452,13.975642305140472,0.1173274127162999
26.427836,13.959166551891792,0.117227858219039
26.430232,13.940548928269834,0.117144621729781
26.43262,13.921651765394154,0.1170683963217433
26.435,13.903406228824531,0.1169944695648149
26.4374,13.889025124120884,0.116898360847248
26.439788,13.874783789044097,0.1167984662231798
26.442168,13.862404785086868,0.1166891744821127
26.444568,13.850677407435692,0.1165824351174001
26.446956,13.842534922396776,0.1164611646572356
26.449336,13.83611499885055,0.1163341855639122
26.451732,13.83206926310308,0.1162045144655901
26.45412,13.830165397728887,0.1160584717703289
26.456504,13.831427116086369,0.1159084607977557
26.4589,13.833480230376765,0.1157573185276376
26.461288,13.841120338025831,0.1155788550519046
26.463672,13.847130431980824,0.115423322372897
26.466068,13.856213561868866,0.1152473338509392
26.468456,13.869021353996024,0.1150535774573943
26.47084,13.885833347616018,0.1148349271676986
26.473236,13.900084161982152,0.1146434229808265
26.475628,13.914986602654343,0.1144547188281133
26.478008,13.930540669632594,0.1142683586841183
26.480408,13.944092635864424,0.1140943889348852
26.482796,13.953360861349704,0.1139525961039829
26.48518,13.957274410901787,0.1138512667651923
26.487576,13.961699817133072,0.1137563045624035
26.489964,13.969430576722884,0.1136545884135164
26.492348,13.977161336312705,0.1135529329305796
26.494744,13.978606254409549,0.1134961193186039
26.497132,13.982053273252808,0.1134269002640052
26.499516,13.984988435416874,0.1133515524368561
26.501916,13.987504288700356,0.1132870333104179
26.504304,13.995374817917034,0.1131833571061082
26.506688,14.005899074186184,0.1130704832707572
26.509084,14.017494265641975,0.1129505146129616
26.511476,14.03244203228454,0.1128041811041206
26.513856,14.048320964486884,0.1126546594080771
26.516252,14.067412702249149,0.1124836112516033
26.51864,14.08450233926499,0.1123249398261061
26.521024,14.107226191467744,0.1121222410728305
26.52342,14.132743540349836,0.1119080629606359
26.525808,14.1633360259114,0.1116641482682537
26.528188,14.196442468898576,0.1114147313476206
26.530588,14.235834753378724,0.1111240321994483
26.532976,14.28230427528476,0.1107917425947765
26.535356,14.332405911631296,0.1104286341759063
26.537752,14.38320639611213,0.1100514039046756
26.54014,14.436288520593102,0.1096575573635331
26.542524,14.490721119514433,0.1092484357325911
26.54492,14.545153718435763,0.1088408086388933
26.547308,14.599167008476511,0.108445059720034
26.549692,14.65611356482346,0.1080358880528363
26.552088,14.707984984490931,0.1076594220466233
26.554476,14.75827361229257,0.1072852610354523
26.55686,14.804697808228232,0.1069312134109826
26.559256,14.844975932297784,0.1066139700972444
26.561644,14.882320790061142,0.1063129118438075
26.564028,14.908723978532633,0.1060702232883122
26.566424,14.936058332563908,0.1058243454082835
26.568812,14.956175679542431,0.1056219911466254
26.571192,14.972847903535564,0.105428392635884
26.573588,14.984864299729804,0.1052539607330291
26.575976,14.999861184058483,0.1050466672525445
26.57836,15.011785032454103,0.1048575908846877
26.580756,15.02198631935703,0.104673555852366
26.583144,15.02375989439371,0.1045408220477623
26.585528,15.018735771258218,0.1044394771398904
26.587924,15.009707446629896,0.1043587720637322
26.590312,14.999887726068652,0.1042781791775242
26.592692,14.990207775134268,0.1041943084467821
26.595092,14.97787409714741,0.1041176266902331
26.597476,14.957951325055468,0.1040721853400114
26.59986,14.938308092217245,0.1040199830635635
26.60226,14.91987556419252,0.1039574819430213
26.604648,14.8985097698616,0.1039086214345022
26.607028,14.880496550717456,0.1038361011632367
26.609424,14.859829604520838,0.1037706060500471
26.611816,14.848102226869669,0.1036604135901397
26.614196,14.835723222912437,0.1035471008456493
26.616592,14.8274881900749,0.1034099103095736
26.61898,14.818461761304444,0.103272674482866
26.621364,14.809575102160847,0.1031319822869912
26.62376,14.79454237115114,0.1030249309814995
26.626148,14.779928949022016,0.1029079183421386
26.628532,14.75851782872072,0.1028211312737698
26.630928,14.745534420285676,0.1026839120317227
26.633316,14.73920894039594,0.1025194351257227
26.6357,14.73516510050634,0.1023381902084257
26.638096,14.737267332482851,0.1021240164313345
26.640484,14.735133045541051,0.1019166418638683
26.642868,14.73448900266647,0.1016926088016339
26.645264,14.74013080128486,0.1014317151171659
26.647656,14.744189808037415,0.1011709747322189
26.650036,14.745315548483774,0.1009235792555913
26.652436,14.753146439303684,0.1006302119629356
26.654824,14.760325703817536,0.1003338589955426
26.657208,14.771788709077944,0.1000114330894054
26.659604,14.77780449060654,0.0997057432719035
26.661992,14.78316864582908,0.0993970005298012
26.664376,14.785879073999144,0.0990948052249033
26.666776,14.791010911796208,0.0987732843666951
26.669164,14.79628251922013,0.0984484700665946
26.671548,14.805837867390606,0.0980980372162058
26.673944,14.813670654068387,0.0977507693096899
26.676332,14.823924850373164,0.097382687335955
26.678716,14.82938344925219,0.0970343756341206
26.681116,14.829534594026264,0.0966986601175083
26.683504,14.831827609173615,0.0963511705915813
26.685888,14.828254091708576,0.0960291899588228
26.688284,14.826263366109377,0.0957066423356122
26.690676,14.820268439017338,0.0954017328657062
26.69306,14.812411180805746,0.0951030149921502
26.695456,14.805205548900211,0.0948073434613765
26.697844,14.800141787367956,0.0944990636389502
26.700228,14.7926566162087,0.094210099994738
26.702628,14.785031675422587,0.093924128170341
26.705016,14.77247136758386,0.0936586893287302
26.7074,14.762844326051331,0.093380940636188
26.7098,14.7520065797053,0.093112058491952
26.712188,14.741168833359271,0.0928425994690756
26.714572,14.728840842946022,0.0925886671109707
26.716968,14.716373082905912,0.0923376386765377
26.719356,14.698690416559469,0.0921130537923689
26.72174,14.683941016519222,0.0918765776264839
26.724136,14.675849545024285,0.0916176271567086
26.726524,14.66989994390262,0.0913466245762933
26.728908,14.66753523539321,0.0910677539009774
26.731304,14.659024455017692,0.0908176875736479
26.733692,14.648092265015176,0.0905849755260427
26.736076,14.640233110945717,0.090337679663437
26.738472,14.641965151727756,0.0900574148188532
26.74086,14.646490689189132,0.0897697801489741
26.743244,14.652087161837148,0.0894764984188155
26.745644,14.656612699298526,0.0891892244025789
26.748032,14.658065200826847,0.0889157844002693
26.750412,14.660309098288089,0.0886430194940483
26.752812,14.66585834910786,0.0883689786972656
26.7552,14.671267830300769,0.0880985170806619
26.757584,14.679610577799876,0.0878174591152182
26.75998,14.692748922724734,0.0875214105045506
26.762372,14.704816332462954,0.0872307780326158
26.764752,14.717814907760951,0.08693788451692
26.767152,14.737750950857984,0.0866185628625412
26.76954,14.754194649141375,0.0863227389638074
26.771916,14.763421340372018,0.086060367595829
26.774311999999995,14.77208895309522,0.0858109593835374
26.776696,14.780756565818422,0.0855623117215479
26.779076,14.793148840780738,0.0853037311848344
26.781472,14.811966726862885,0.0850122499699739
26.78386,14.83157600887795,0.0847229258284428
26.78624,14.844387592720844,0.0844572340476425
26.788636,14.852124039884268,0.0842125280671778
26.791024,14.85958094779397,0.0839743172335054
26.793403999999995,14.86969158275615,0.0837329593142328
26.795808,14.885528980703857,0.0834754463215904
26.798192,14.90308894014426,0.083217350213908
26.800571999999995,14.920928438838386,0.0829534785564273
26.802968,14.935415362345736,0.0827082675435429
26.805356,14.948831350666444,0.0824689396952914
26.807736,14.957032432680824,0.0822531583568929
26.81014,14.970168881747815,0.0820210635962558
26.812524,14.984376266001448,0.0817844132091593
26.814908,14.99565038394888,0.0815580876315031
26.817304,15.007995437082952,0.0813264029804693
26.819688,15.028488662829552,0.0810638997463247
26.822072,15.052054924509209,0.0807903640677407
26.824464,15.069614883949612,0.0805377508454086
26.826851999999995,15.086523217083958,0.080281405581566
26.829232,15.10007897503153,0.0800438160534972
26.831632,15.114985207419462,0.079796755391018
26.834016,15.132684936486724,0.0795441326760658
26.8364,15.15625119816638,0.0792744769572086
26.838795999999995,15.178094898353338,0.079005769199583
26.841184,15.196074166674324,0.0787481081631616
26.84358,15.20939760719642,0.0785004908605994
26.845976,15.22034685991976,0.0782501502255194
26.84836,15.23264658708346,0.0779897516451169
26.850744,15.252442860553623,0.0776965848194074
26.85314,15.273449838837292,0.0773965848283692
26.855528,15.295667521934456,0.0770886833032853
26.857907999999995,15.31322937723273,0.0767905400311054
26.860312,15.330931002157866,0.0764905381664782
26.8627,15.348632627083,0.0761911481257826
26.86508,15.368755661635133,0.0758772809278655
26.867476,15.378076796522262,0.0755940610660972
26.869864,15.378598132490804,0.0753344208848034
26.872248,15.383263439579045,0.0750585340401278
26.874644,15.38899968185392,0.0747782738643374
26.877032,15.396226168196018,0.0744848902590543
26.879411999999995,15.396095877858505,0.0742205492287912
26.881816,15.395313961214931,0.0739523880750097
26.884204,15.389876216772468,0.0736924936870964
26.886584,15.385369637889784,0.0734306843784451
26.88898,15.380211432701042,0.0731639683619675
26.891368,15.376263932325797,0.072889564424873
26.893747999999995,15.374178763070107,0.0726123246809811
26.896144,15.369020557881369,0.0723454757572413
26.898528,15.359718381572929,0.0720939706731136
26.900924,15.3462722341448,0.0718566949829314
26.90332,15.33818076264986,0.0715982882859401
26.905708,15.3310204567147,0.0713381053346931
26.908088,15.322928985219765,0.071079585751139
26.910484,15.31669984484438,0.0708187128232691
26.912872,15.307257898909082,0.0705704140320229
26.915251999999995,15.305684586332587,0.0703023262684473
26.917652,15.312119676741768,0.0700116870443463
26.920036,15.322558968643778,0.0697109427985186
26.922419999999995,15.331927325359148,0.0694146514524572
26.924816,15.341807538753718,0.0691262638802202
26.927204,15.359835924760816,0.0688140968224687
26.92958,15.376793375581276,0.0685064620920552
26.931976,15.395752927148152,0.0681938137637479
26.934363999999995,15.416854349088306,0.0678737505636018
26.936755999999995,15.444893238827488,0.0675380851437101
26.939152,15.47293212856667,0.0672029468200984
26.94154,15.49696681681302,0.0668783692467464
26.94392,15.521653131365426,0.0665582196337569
26.94632,15.541543848492084,0.0662461138980454
26.948704,15.566789241551929,0.0659149379942227
26.951088,15.585748793118803,0.0656056519739978
26.953492,15.606570675805235,0.0652948632493359
26.955876,15.624459292185476,0.0649901232118679
26.95826,15.636621145580186,0.0646945083186244
26.960664,15.649853934161532,0.0643949626308855
26.963052,15.660153456436682,0.0641019411787469
26.965432,15.66672831647272,0.063813358919773
26.967828,15.669159205389064,0.0635376656810999
26.970216,15.6745233606116,0.0632568979941299
26.972592,15.678304723968305,0.0629727915436516
26.974992,15.672215353219782,0.0627086770949579
26.977376,15.66705714803104,0.0624436557296689
26.979755999999995,15.663761273961851,0.0621774008956113
26.982164,15.66339866619886,0.0619069331588115
26.984548,15.658752317689316,0.0616514836513602
26.986928,15.654757595485828,0.0614006657482385
26.989332,15.654767074775176,0.0611411739018737
26.99172,15.65733773331838,0.0608668825678542
26.9941,15.667637255593526,0.0605811696692127
26.9965,15.675515368241683,0.0603085535146246
26.998888,15.687537452009527,0.060025447083623
27.001268,15.698628370217596,0.0597436568398279
27.003668,15.710231145104864,0.0594687045189994
27.006056,15.72276508555191,0.0591922574989588
27.008436,15.73837206193201,0.0589091831595118
27.010832,15.751837167938833,0.0586325046483844
27.01322,15.767816231371272,0.0583596231659275
27.015604,15.784866229990346,0.0580837340737658
27.017996,15.800845293422784,0.0578122123104793
27.020388,15.818546918347916,0.057542767745277
27.022772,15.84290647181836,0.0572661994820774
27.025172,15.865263924542386,0.0569936723230575
27.02756,15.886410672452907,0.0567281409262472
27.029944,15.900480182937546,0.0564776542137133
27.032336,15.914689463049044,0.0562249232167919
27.034724,15.928107347227622,0.0559702937656949
27.037104,15.940174756965842,0.0557246393288009
27.039504,15.95275402338326,0.0554874204804605
27.041892,15.9631914194274,0.0552573077612167
27.044272,15.970835318792206,0.0550283586216834
27.046668,15.975126642970237,0.0548115758054249
27.049056,15.978347031961626,0.0545979113735672
27.051452,15.985711392072712,0.0543750362295051
27.053847999999995,15.998802515169324,0.0541476085402394
27.056236,16.01240549494514,0.0539287457855007
27.058616,16.035087812893256,0.053694763101263
27.061012,16.058980835654875,0.0534562853854146
27.0634,16.084736189536052,0.0532180688582954
27.06578,16.109700147484308,0.0529783906780653
27.06818,16.13038036468601,0.0527501684208213
27.070568,16.15213151707435,0.0525199981345699
27.072948,16.176676166142023,0.0522893665954729
27.075344,16.196425217783947,0.0520625082127371
27.077732,16.215243103866094,0.0518352554884237
27.080112,16.229917018828544,0.0516164184051023
27.082508,16.246313495283697,0.0514001009785775
27.0849,16.257914374313092,0.0511869667170868
27.08728,16.26630244778258,0.0509824873329352
27.089684,16.27296795975936,0.0507760877447982
27.092072,16.281216263601983,0.0505741607862867
27.094452,16.284389430765135,0.0503800576682076
