Time,Force,Position
25.95224,10.486170046433754,0.1505109647627215
25.954636,10.542034292446846,0.1501870029002409
25.957024,10.59478017655651,0.1498579005839574
25.959404,10.644128159509023,0.1495288797379489
25.961804,10.684583795744333,0.1492815809157446
25.964188,10.72974248160678,0.1489680696083752
25.966568,10.775320476349805,0.1486392907675651
25.968972,10.822668254413768,0.1482747798739437
25.97136,10.860983916133671,0.1479903649797297
25.973736,10.89706515968168,0.1477151085560836
25.976144,10.938548300991124,0.1473459923419068
25.978528,10.975794923382256,0.1470083882662776
25.980908,11.005080364615964,0.1467348934036097
25.983311999999994,11.03133999174486,0.1464726543757701
25.985696,11.062954294806952,0.1461464956596319
25.98808,11.090983705256788,0.1458499789856848
25.990476,11.11286704384051,0.1456231493838926
25.992864,11.139685749476849,0.1453470762246172
25.995248,11.17465262772571,0.1449815023332781
25.997652,11.209619505974574,0.1446167224439143
26.000036,11.242724053103885,0.1442684648775798
26.00242,11.280903736912665,0.1438677339609682
26.004815999999995,11.313356657735914,0.1435211396907552
26.007204,11.34795144893244,0.1431511168213491
26.009584,11.382965549009551,0.1427679467385299
26.01198,11.408667993488876,0.1424665177600308
26.014368,11.433206954982944,0.1421574968719604
26.016752,11.453788936812424,0.1418657617376191
26.019148,11.480144903455674,0.1414993599990782
26.021536,11.503335286367257,0.1411458285491773
26.023916,11.52280100703972,0.1408250213535478
26.026312,11.541335562152408,0.1405123487710193
26.0287,11.55800778614554,0.1402135033227834
26.03108,11.569465103832338,0.1399705041340266
26.033484,11.574776349653026,0.1397922834777736
26.035872,11.580459682526053,0.1396252119337438
26.038252,11.587213950585715,0.1394453970740854
26.040648,11.594899384205158,0.1392597550126288
26.043036,11.600163408197602,0.1391084555110654
26.045416,11.606218828122966,0.1389547088371436
26.04782,11.61800101103386,0.1387533480718594
26.050208,11.62563922282506,0.1385958550305952
26.052588,11.63835257129573,0.1383888745547248
26.054991999999995,11.647760566407868,0.1381977066539266
26.05738,11.657168561520006,0.1380071947083702
26.05976,11.6696495925652,0.1377862416893241
26.062156,11.686274594730085,0.1375250343352049
26.064544,11.702480288014394,0.1372778820095012
26.066924,11.71212060055201,0.1371051029110751
26.06932,11.72413510088838,0.1369253250428708
26.071708,11.736521688277088,0.1367569512401089
26.074088,11.747045944546242,0.1366022088252483
26.076484,11.767161395666896,0.1363705085324208
26.078872,11.795425019400078,0.1360615896328517
26.081252,11.82541120462596,0.135742367091697
26.083648,11.858610195411757,0.1353904702329247
26.086036,11.895533848436664,0.1350124056809969
26.088416,11.927242595155231,0.1346881409562185
26.090816,11.95923088112753,0.1343561652053641
26.0932,11.991358936726686,0.1340211073235971
26.095584,12.015897898220755,0.1337455341491348
26.09798,12.040856168595404,0.1334570775904598
26.100368,12.06246186378328,0.1332075371993053
26.102747999999995,12.086301977143048,0.1329564277764543
26.105144,12.109862551249094,0.1327149665851788
26.107532,12.13300381647456,0.1324875904813967
26.109915999999995,12.14771736983378,0.1323435352151591
26.112312,12.16336208875278,0.1321932787121201
26.1147,12.181567986925632,0.1320077547936625
26.11708,12.19940179804615,0.1318123935018972
26.119475999999995,12.218865622860744,0.1315898778062183
26.121864,12.244195980287737,0.1313210687077764
26.124244,12.262077013236496,0.1311057597393654
26.126648,12.274091513572866,0.1309378327725035
26.129032,12.288946732416814,0.1307281960271279
26.131412,12.29621285715568,0.1305727049525104
26.133828,12.301104794095783,0.1304237691579831
26.136212,12.305624643983553,0.1302636615081372
26.138592,12.310424033125042,0.1300955415321049
26.141008,12.314292256706754,0.1299338825136549
26.143391999999995,12.324027012900856,0.1297269545999639
26.145772,12.334692934654736,0.129514451058509
26.148176,12.342053503050083,0.1293130322023408
26.150564,12.347831279579598,0.1291158698489875
26.152943999999994,12.35430790424341,0.1288981580347228
26.155335999999995,12.360272672228026,0.1286742018469583
26.157724,12.37373398651911,0.1283781899141176
26.160104,12.38575227857122,0.128082034864092
26.162496,12.400703836929525,0.1277650561004825
26.164884,12.41365329454141,0.1274648087249376
26.167264,12.421527615473828,0.1272070116766085
26.169664,12.419531202301014,0.1270252818546244
26.172052,12.41539291875493,0.1268634735935188
26.174432,12.41511906707482,0.1266736274693882
26.176848,12.410281935394432,0.1265328314377652
26.179231999999995,12.415315537819268,0.1263160851200239
26.181615999999995,12.420209370617243,0.1261038098892056
26.184012,12.42989880084097,0.1258585294630818
26.186399999999995,12.437586130318284,0.1256295018051757
26.18878,12.447555099795732,0.1253772157633608
26.191184,12.451937075914511,0.1251599011046751
26.193568,12.455248116846647,0.1249528378755875
26.195951999999995,12.46614825188388,0.1246960439214298
26.198356,12.478259091734603,0.1244259406357225
26.200744,12.484875486025278,0.1242086389324799
26.203124,12.490700484383035,0.1239930243719731
26.20552,12.492101972367374,0.1238211617675048
26.207904,12.491873446657635,0.1236752430083931
26.210287999999995,12.487640719455063,0.1235603360164494
26.212684,12.486061719304963,0.1234328101697679
26.215068,12.491420186953896,0.1232541589085799
26.217452,12.508651489454468,0.1229884369284711
26.219856,12.53067838938079,0.122690795051725
26.222244,12.551354814866754,0.1224121882455804
26.224623999999995,12.574964506658915,0.122112701958781
26.227028,12.591357191398329,0.121873492128831
26.229416,12.610543372817071,0.1216191750586336
26.231796,12.624514647929487,0.1214087489957568
26.2342,12.639928945280875,0.121199836139183
26.236588,12.65199066744549,0.1210238296894279
26.238968,12.669359843715052,0.1208239369810993
26.241368,12.687520415917533,0.1206231726256577
26.243756,12.703678887373597,0.120438693648088
26.246136,12.72034921550886,0.1202618750743781
26.248532,12.746890277749348,0.1200174974725799
26.25092,12.776457154094643,0.1197730515274636
26.2533,12.809097066373,0.1195056597825825
26.255704,12.847091654584547,0.1191933464490839
26.258092,12.889881840221843,0.1188532927408446
26.260472,12.929598989926086,0.118537232346232
26.262868,12.965032398883777,0.1182593078382362
26.265256,12.995390671161992,0.1180211106249522
26.267636,13.026680108999988,0.1177798468504485
26.270032,13.06132212202476,0.1175103670678973
26.27242,13.095964135049527,0.1172417868662402
26.274799999999995,13.136472680686689,0.1169372056838381
26.277196,13.169624449644244,0.1166894327078312
26.279584,13.207571816027544,0.1164139184918994
26.281964,13.24351708166443,0.1161518397696637
26.284356,13.281045139167151,0.1158876949663217
26.286743999999995,13.318573196669874,0.1156257627386098
26.28914,13.356101254172597,0.1153647421126943
26.291536,13.39269814611554,0.1151099837848891
26.29392,13.428363872498704,0.1148611554079403
26.2963,13.45830283589634,0.1146466200411352
26.298704,13.488800877801417,0.1144188541868873
26.301092,13.518507523773575,0.1141932925325508
26.303472,13.546863695305372,0.1139852115830781
26.305876,13.57107589571748,0.113807536549398
26.308264,13.597429966502862,0.1136136205269628
26.310644,13.625925907661523,0.1134039671679868
26.31304,13.650836956207929,0.1132084481482956
26.315428,13.672163112142083,0.113028007800513
26.317808,13.689345296956544,0.1128774213262611
26.320204,13.708948891397998,0.1127044787668012
26.322592,13.724827823600345,0.1125499457098518
26.324972,13.750345172482437,0.112324057493055
26.327368,13.771486232819353,0.1121131439847999
26.329756,13.798401277970044,0.1118530151252261
26.332135999999995,13.827877502374596,0.1115677188225329
26.334532,13.854188143047471,0.1112862120605845
26.33692,13.879055761481377,0.1110028827887518
26.339316,13.901129883235942,0.1107322908968871
26.34172,13.921760982751534,0.1104597854469002
26.344104,13.940669520774428,0.1101920001534869
26.346488,13.95198896469224,0.1099611992150686
26.348883999999995,13.965310509356463,0.109719666885282
26.351272,13.981472772528267,0.109446908663784
26.353652,13.99726294864773,0.1091641197612435
26.356048,14.01226172883428,0.1088824362394669
26.358436,14.02581748678185,0.1085991729428554
26.36082,14.044588151035754,0.1082820165497467
26.363216,14.065360916036074,0.1079538963712464
26.365604,14.08282832767786,0.1076305505267377
26.367988,14.098433408200092,0.1073169336379804
26.370384,14.113666401669986,0.1069935607296456
26.372768,14.123452171408069,0.106691938469117
26.375152,14.136310977079209,0.1063719647399164
26.377548,14.143443019764817,0.1060796975402671
26.379936,14.147409478718751,0.1057897195429225
26.382316,14.149373836926271,0.1055102828607917
26.384712,14.15348006550707,0.1052167796288649
26.3871,14.16322050927478,0.1048812681398564
26.389484,14.173380261923072,0.1045355807769527
26.39188,14.183819553825083,0.1041824664828096
26.394268,14.201615622406704,0.1037827214607452
26.396647999999995,14.21210213613696,0.1034090356306617
26.399044,14.214580246881546,0.1030789258778574
26.401432,14.21333369538702,0.1027623522877525
26.403816,14.211854826467016,0.1024323135862837
26.406212,14.20572012974812,0.1021195694146758
26.4086,14.194789835603473,0.1018281979142241
26.410996,14.182276749592988,0.1015371098567924
26.413392,14.170555059515422,0.1012447511066804
26.415779999999994,14.15832151275866,0.1009457963849657
26.418164,14.144085865255482,0.1006566638638196
26.42056,14.12943090887172,0.1003774582649787
26.422947999999995,14.110399663942788,0.1001082919587829
26.425328,14.08801584382708,0.0998623407877601
26.427728,14.065072945203932,0.0996295873783118
26.430115999999995,14.046134248073615,0.0993755707015962
26.432496,14.025333219823748,0.0991281608835286
26.434892,13.998386119707764,0.0989144481766727
26.43728,13.97008854515142,0.0987136717981092
26.43966,13.94407261059522,0.0984951507532206
26.442056,13.91018804268021,0.0983127241818865
26.444444,13.88123884181781,0.0981058151853805
26.44682,13.855362676888468,0.0978812121412794
26.449216,13.836703519011872,0.0976155159115368
26.451604,13.81576272113514,0.0973659114727785
26.453983999999995,13.80161962143058,0.0970858841551994
26.456395999999994,13.792411888778627,0.0967825521213602
26.458784,13.78320415612668,0.0964789498866532
26.461164,13.77963063866164,0.0961353756177843
26.463568,13.768700344516994,0.0958334477010924
26.465952,13.763916122238456,0.0954989369346158
26.468336,13.7595512088405,0.0951539822425704
26.47074,13.756629317681517,0.0948119699374002
26.473123999999995,13.759062102455731,0.0944362439785755
26.475504,13.75884116017747,0.0940655695225406
26.477899999999995,13.75582672121987,0.0937043982400762
26.480288,13.750670411888995,0.0933556296885778
26.482664,13.749518304050952,0.0929875336038016
26.48506,13.74557269953358,0.0926272124674039
26.487444,13.739205685389209,0.0922866296118224
26.48984,13.742429866096336,0.0919086440077287
26.49224,13.744303572363105,0.0915442283533526
26.494624,13.74510634344324,0.0911859452376535
26.497004,13.741625373776818,0.090853721887308
26.499403999999995,13.74093790078973,0.0905122826024225
26.501788,13.737317161496447,0.0901836190211088
26.504168,13.732765256643392,0.0898587926538799
26.506568,13.726211251043912,0.0895424389964538
26.508952,13.715093965444163,0.0892578639492403
26.511332,13.714126953203357,0.0889243454988444
26.513728,13.707665495402496,0.0886255200271457
26.516112,13.701855663907692,0.0883307095378063
26.518492,13.699398407599666,0.0880142986366954
26.520892,13.698663712784336,0.0876966791116872
26.52328,13.70393532020826,0.0873531339973761
26.52566,13.7112090283786,0.0870011446910499
26.528075999999995,13.720484837295354,0.0866400619039501
26.530464,13.723614574346,0.0863075252147844
26.532844,13.737546211061646,0.0859341523453717
26.535248,13.756552984456766,0.0855391586287741
26.537636,13.768762059679716,0.0851696461155594
26.540016,13.781250674156388,0.0847936038665473
26.542411999999995,13.794530684565975,0.0844182095493172
26.5448,13.807391386094984,0.0840522007349515
26.54718,13.822393957997267,0.083676049549672
26.549579999999995,13.836046055459196,0.0833121092298006
26.551963999999995,13.848487448107626,0.0829582768396627
26.554348,13.863722337435387,0.082597223582083
26.556752,13.884963529002398,0.0822135974753286
26.55914,13.902852145382637,0.0818519491529462
26.56152,13.922091236203237,0.0814780481806162
26.563915999999995,13.941470096650692,0.0811017805455018
26.566304,13.961221044150486,0.0807381998719081
26.568684,13.974825919784168,0.0804010147125208
26.571083999999995,13.98372774579072,0.0800959458615558
26.573472,13.994072594036243,0.07979731614487
26.575852,14.006279773401324,0.0794949756129955
26.578248,14.026076046871497,0.0791724441994027
26.580635999999995,14.03986601810241,0.0788744398319846
26.58302,14.050582953400276,0.0785903126145133
26.585416,14.062603141310252,0.0783144658311465
26.587803999999995,14.077277056272706,0.0780366207111982
26.590184,14.096094942354853,0.0777424080307366
26.592579999999995,14.12012773474333,0.0774265097167389
26.594968,14.142949822318313,0.0771205982614932
26.597348,14.170055650639846,0.0767952748971447
26.599747999999995,14.193808903774604,0.0764880781030432
26.602132,14.218353552842284,0.0761831512204826
26.604528,14.236891899670708,0.0759000516631678
26.606924,14.254499080939356,0.0756191102551805
26.609312,14.272478349260345,0.0753492443727487
26.611692,14.289898539073889,0.0750924392824292
26.614088,14.307458498514292,0.0748338374033918
26.616475999999995,14.332235465007445,0.0745478662408657
26.618856,14.359573610754458,0.0742429926870685
26.621251999999995,14.384769886128192,0.0739487572806037
26.62364,14.40796406075551,0.0736617572012119
26.626024,14.429575443516988,0.0733735296613838
26.628419999999995,14.447834251091695,0.0731024376710483
26.630808,14.465022123479764,0.0728364618602225
26.633192,14.486913045494967,0.0725434365723015
26.635587999999995,14.504939535644194,0.0722605330132053
26.637976,14.517751119487093,0.0719985867547806
26.640372,14.526698271464015,0.071746793006848
26.642768,14.530570286761463,0.0715116014413584
26.645152,14.529087626125722,0.071299348150278
26.647531999999995,14.533099411050031,0.0710613218567772
26.649936,14.53925306634762,0.070815227725804
26.652324,14.545266952018348,0.0705717717958736
26.654704,14.553422708062351,0.0703197265378064
26.657108,14.563068708173578,0.0700546508251151
26.659496,14.571411455672688,0.0697802983805125
26.661876,14.578031641679098,0.0695065456561773
26.664272,14.58372066212573,0.0692355983827785
26.66666,14.59006130887842,0.0689698577191769
26.66904,14.597240573392272,0.068686597369378
26.671436,14.610426140145377,0.0683879663852294
26.673824,14.62254077171184,0.0680943540694251
26.676203999999995,14.641360553651856,0.0677702037360071
26.6786,14.662182436338288,0.067441279678526
26.680988,14.678720578278169,0.0671302027087982
26.683368,14.697260820964464,0.0668139756585015
26.685763999999995,14.715940833277616,0.0664944164111774
26.688152,14.73769388152383,0.0661665766828748
26.690548,14.764522066449514,0.0658240907659872
26.69294,14.79656515768153,0.0654646892039194
26.695328,14.826326608913408,0.0651178376393657
26.697707999999995,14.851292462719536,0.064780529556045
26.700104,14.880542057272216,0.0644281518590275
26.702488,14.906718615891842,0.0640853729656761
26.704872,14.932755404884606,0.0637468729675114
26.707268,14.963308252049403,0.0634074295383318
26.709656,14.99372132958734,0.0630718711155478
26.712052,15.023715098244692,0.0627468272575799
26.714448,15.052126075036211,0.0624187847920691
26.716836,15.077975872573877,0.0621073721662755
26.71922,15.091952835259898,0.0618212698854479
26.721612,15.105929797945915,0.0615357005482772
26.724,15.115343480631664,0.0612716029304821
26.726384,15.122755062570992,0.0610123871931056
26.72878,15.132168745256738,0.0607490503477737
26.731168,15.144655463875536,0.0604787022752124
26.733547999999995,15.161937779920091,0.0602022778865615
26.735952,15.174796585591231,0.0599434681845771
26.73834,15.187003764956312,0.0596805183738202
26.740724,15.199210944321392,0.0594187942778309
26.74312,15.210626727753551,0.0591552263326922
26.745508,15.220971575999078,0.0588947068832356
26.747892,15.227172453124906,0.0586456688198066
26.750288,15.233513099877598,0.0583935278348429
26.752676,15.235197918831398,0.0581444259716142
26.75506,15.229153874053248,0.057905753130098
26.757456,15.22096795890182,0.0576736665236504
26.759844,15.20998854707106,0.0574435392499268
26.762228,15.196587725613302,0.0572251708424381
26.764631999999995,15.18439760896904,0.0570002383999072
26.767015999999995,15.183288931243505,0.0567520983628304
26.769396,15.179246987211773,0.0565080914376008
26.771799999999995,15.17548458243376,0.0562583328156513
26.774188,15.172793112842388,0.0560052726436408
26.776568,15.168099542504596,0.0557561464529261
26.778964,15.15618896511406,0.0555242281200566
26.781351999999995,15.14055372548441,0.0552944172481648
26.783732,15.126408729921977,0.05505261375556
26.786127999999994,15.115569087718072,0.0548179192429292
26.788516,15.10072524402134,0.0545903785729362
26.790896,15.0876039618173,0.0543647475327846
26.793295999999994,15.079138507412155,0.0541370609572978
26.79568,15.073466549686348,0.0539081818315559
26.798064,15.073381585319208,0.053677589869599
26.80046,15.077952448750958,0.0534451110699909
26.802848,15.08932101035488,0.0532047031075761
26.805228,15.09989817602588,0.0529614174584371
26.807631999999995,15.109683945763964,0.0527156093682453
26.81002,15.128549053674355,0.0524544022341216
26.8124,15.146994852704166,0.052201470378554
26.814799999999995,15.1608773717337,0.0519670728871686
26.817184,15.17727384818885,0.051737224381219
26.819568,15.193390785390278,0.0515129362788476
26.821964,15.209228183337986,0.0512944784217246
26.824352,15.223994646099056,0.0510788784351233
26.826732,15.237550404046628,0.0508678321883769
26.829128,15.253899658673532,0.0506567877744164
26.831516,15.271552165912553,0.0504566722670381
26.8339,15.282406974979406,0.0502635752233117
26.836296,15.293773640725457,0.0500783088285658
26.838684,15.301136104978674,0.0498990660624062
26.841064,15.305285763671977,0.0497286442814271
26.843468,15.308504256805502,0.0495586360308742
