Time,Force,Position
26.370856,11.586460239148176,0.1476662113455508
26.37324,11.56542499761496,0.1475080759972777
26.37562,11.545880000148962,0.1473223286274002
26.378032,11.524193132309684,0.147161691936651
26.38042,11.50250626447041,0.1470003964576307
26.3828,11.475744259951664,0.1468935043119575
26.385212,11.447911320246275,0.146799133078799
26.3876,11.42580514352642,0.1466506723044431
26.389992,11.402488261993064,0.1465191076633212
26.392396,11.382896042698825,0.1463547398437951
26.39478,11.361301722658164,0.1462107809683401
26.39716,11.335842970751536,0.1461032812704207
26.399564,11.310104679591184,0.1460054272370792
26.401952,11.291024316976138,0.1458456658268118
26.404328,11.27245581104029,0.1456920109256426
26.406732,11.247601463611474,0.1456103629208177
26.409116,11.22633200879491,0.1455007004914263
26.411496,11.203944396963465,0.1454293777772849
26.413888,11.184582599236828,0.1453498773283944
26.416272,11.174672226734838,0.1451849112826203
26.418655999999995,11.16941768203174,0.1449797782720635
26.42106,11.17012221773965,0.1447389824207569
26.423448,11.168917200499758,0.1445396130152901
26.425828,11.169294975125704,0.1443338295362878
26.428232,11.170696463110044,0.1441411930671015
26.430616,11.179267736318891,0.1438942357792374
26.432996,11.19086482363255,0.1436393391907767
26.4354,11.197060013184773,0.1434736628813632
26.437784,11.206001477588089,0.1433101651148079
26.440164,11.214244093857102,0.1431709660651058
26.442568,11.226443689790708,0.1430166904203076
26.444956,11.242740035015764,0.1428426249587668
26.447336,11.266206165465324,0.1426160971094422
26.449736,11.283106915168196,0.1424707844742625
26.452124,11.30093883043084,0.1423180980386539
26.454504,11.32635983979858,0.1420984341006759
26.456908,11.350011065845372,0.1419164162357097
26.459292,11.37859765894478,0.1416865465338268
26.461672,11.407835878350244,0.1414588484439125
26.464075999999995,11.432091508874857,0.1413060719889477
26.466464,11.456579456824944,0.1411710198539703
26.46884,11.475712728841836,0.1410983969049475
26.471243999999995,11.498570663097844,0.1409959767412102
26.473632,11.521149058100132,0.140902901447123
26.476012,11.540933956423086,0.1408319551393913
26.478416,11.564723056238872,0.1407237247728665
26.4808,11.591585191987717,0.1405853752464547
26.48318,11.626223413296744,0.1403538250912379
26.485584,11.661141173859498,0.1401143499728185
26.487972,11.700063135915084,0.1398381859253671
26.490352,11.737402306104832,0.1395692086586178
26.492756,11.773158684428749,0.1393072869219699
26.495144,11.800115263834076,0.1391236547266621
26.497524,11.833357684732375,0.1388747826046181
26.499928,11.863107760817035,0.1386693701603375
26.502312,11.890855736155284,0.1384849072732538
26.504691999999995,11.920745581866806,0.1382782491647621
26.507088,11.947422622018411,0.1381071192213643
26.509476,11.97517059735666,0.1379252334773513
26.511856,12.00734208306832,0.1376938588986893
26.514251999999995,12.04072427359348,0.1374492380931529
26.51664,12.074246233745502,0.1371997232793176
26.519016,12.104183301285268,0.136974086928722
26.52142,12.13705363513123,0.1367242450821666
26.523808,12.173788400843163,0.1364422220125482
26.526188,12.206518965062267,0.1361999262186919
26.528584,12.235385097415396,0.1359906515573466
26.530972,12.260898654581746,0.1358206884127581
26.533352,12.28548104618832,0.1356581937706611
26.535752,12.303405509249586,0.1355469280550783
26.53814,12.32212136824377,0.1354339791449245
26.54052,12.339626522424457,0.135336435575355
26.54292,12.365419618844529,0.1351601992334895
26.545307999999995,12.387348283398625,0.1350158803139347
26.547688,12.41183812720658,0.1348361532555868
26.550092,12.432743078402284,0.1346785598568907
26.552475999999995,12.452205007359012,0.1345223688957585
26.55486,12.476090446689156,0.134319864948143
26.55726,12.498253324526605,0.1341266914392805
26.559648,12.516691540124937,0.1339604150124178
26.562028,12.532615798297652,0.1338061775311955
26.564428,12.550961466097368,0.1336229971257695
26.566816,12.577455306509613,0.1333706500766866
26.569196,12.602506124682876,0.1331198465363228
26.571592,12.628116021363583,0.1328541324155393
26.573976,12.65042056468576,0.132600921895743
26.576356,12.674075582448294,0.1323297796505021
26.578756,12.697638052412213,0.1320407210730299
26.58114,12.722830536070209,0.1317265563456413
26.58352,12.752166990847895,0.1313754198970352
26.585923999999995,12.780339962640332,0.1310172802440314
26.588312,12.807349451447507,0.1306502756476782
26.590692,12.831844982829072,0.1302959758585933
26.593091999999995,12.855828657531438,0.1299355967243457
26.59548,12.885446547420717,0.1295202919156231
26.59786,12.918417012496771,0.1290715333824856
26.600259999999995,12.948454211266636,0.1286447141353596
26.602644,12.971042085558263,0.1282654533074896
26.605024,12.994189038357344,0.1278706917358191
26.607427999999995,13.01696390410408,0.1274658698353214
26.609816,13.037876438731264,0.1270733003555152
26.612196,13.056275015932831,0.1266911462688758
26.614595999999995,13.06349960641706,0.1263789311529917
26.61698,13.071143505781864,0.1260557501366101
26.61936,13.077204613280834,0.1257368947406798
26.621763999999995,13.084336655966444,0.1254080785487175
26.624152,13.092819173092412,0.1250631468377883
26.626532,13.103164021337935,0.1247084380706149
26.628936,13.109644437717488,0.1243800977659994
26.631324,13.117195789283675,0.1240435880287719
26.633704,13.124747140849866,0.1237076614786036
26.636104,13.134580132416191,0.1233493951368045
26.638488,13.139477756929908,0.1230253468882764
26.640872,13.14544631663026,0.1226922559047025
26.643268,13.142475307785167,0.1224231161274334
26.645652,13.13778173744738,0.1221607729353699
26.648036,13.133507475990172,0.1218861653638107
26.650432,13.134448120839297,0.1215694377089725
26.652816,13.134597369755504,0.1212541917391948
26.655196,13.133815453111932,0.1209438039901303
26.657592,13.132521679789164,0.1206265300039642
26.65998,13.129086036093115,0.1203267931532171
26.66236,13.129235285009324,0.1200091670399309
26.664756,13.126451267619336,0.1197111161699014
26.667144,13.122736084669569,0.1194182839984804
26.669528,13.117298340227103,0.1191312176092652
26.671924,13.106133832799111,0.1188785299886722
26.674312,13.091244663132006,0.1186460955950964
26.676692,13.077426428651536,0.118404186964676
26.679104,13.060302840812536,0.1181705668449798
26.681491999999995,13.042108317786894,0.1179455109598902
26.683872,13.023634255507536,0.1177278519860831
26.686268,13.01302882658698,0.1174587599903118
26.688656,12.999490131360233,0.1172078631671436
26.691036,12.990747033559236,0.1169279595107409
26.693436,12.98279533169116,0.1166469064853286
26.69582,12.980058536129414,0.1163264728431201
26.698216,12.975319639821253,0.1160198290993655
26.700612,12.969230269072732,0.1157290853808001
26.703,12.962861359070487,0.1154454127708504
26.705384,12.95607314018767,0.1151727031085987
26.70778,12.95328912279768,0.1148728870900247
26.710168,12.95315883246016,0.114563037106974
26.712548,12.951678067682291,0.1142686541586694
26.714944,12.950709159583615,0.1139811391491035
26.717331999999995,12.953325144097194,0.1136784264994535
26.719712,12.957384150849746,0.113376754002037
26.722112,12.962094783908356,0.1130777501839057
26.724496,12.966525877713249,0.1127863976472924
26.726876,12.973191389690037,0.1124966379138758
26.729275999999995,12.977854800920404,0.1122195863046215
26.731664,12.981027968083554,0.1119627637274162
26.73406,12.981407638567363,0.1117212151913306
26.736464,12.987374302409853,0.1114523395237665
26.738848,12.994272131812115,0.1111800282649878
26.741228,12.998608781960522,0.1109357214658906
26.743632,12.995960742481651,0.1107569572222575
26.74602,12.993684790055124,0.1105889331150621
26.7484,12.995413039121429,0.1103955288583109
26.7508,13.002216424867203,0.1101689584790214
26.753184,13.010742372105678,0.1099371832539779
26.755568,13.017126448970874,0.1097221959641227
26.757964,13.018854698037178,0.1095292249101466
26.760348,13.023655983036535,0.109315221443777
26.762728,13.028177728782175,0.1091089513492668
26.765132,13.036563906393788,0.108882957508605
26.76752,13.052027321431288,0.1086130204078248
26.7699,13.071494937961624,0.108319727506374
26.772296,13.093104424865237,0.1080112341050292
26.774684,13.113922515835933,0.1077041424665249
26.777064,13.141398535351934,0.1073651397300055
26.77946,13.172227130054711,0.1069998833607311
26.781848,13.199423610316996,0.1066696512381919
26.784227999999995,13.221824493153528,0.1063646878875417
26.786624,13.239150239310586,0.1060915782340998
26.789012,13.261830661400836,0.1057803693372745
26.791395999999995,13.287863658677862,0.1054414872739823
26.7938,13.318971792634365,0.1050737899245709
26.796188,13.347798286590724,0.1047266470416017
26.798572,13.374482910173809,0.1043971326358771
26.800968,13.404520108943668,0.1040431652386113
26.803356,13.44070337957964,0.103654128859054
26.805736,13.481682247641364,0.1032428628024971
26.808132,13.528387878688616,0.1028090312894393
26.81052,13.58044818566906,0.1023419104919212
26.812904,13.626641960037118,0.1019074355524562
26.8153,13.66883153291234,0.1014987316613911
26.817688,13.71074156653384,0.1011005534100038
26.820068,13.752232291274762,0.1007146421045867
26.822464,13.795445577508378,0.1003268925417591
26.824852,13.83586536706266,0.0999526176841495
26.827236,13.875214221430303,0.0995875316613477
26.829632,13.916984485424946,0.0992015924407947
26.83202,13.96382988609906,0.0987898564478202
26.8344,14.017612754572202,0.098345478791044
26.836796,14.070604227112426,0.0979050879343132
26.839179999999995,14.123595699652652,0.0974657343483623
26.841556,14.170580869953625,0.0970592326748768
26.843972,14.220918615441374,0.0966317487383458
26.846356,14.27111659130226,0.096209573930737
26.848736,14.317030826416596,0.0958157653711562
26.85114,14.3565194504111,0.0954636728863564
26.853528,14.393074808099406,0.0951255549585655
26.855908,14.42176153242891,0.0948242830774969
26.858312,14.441508688212966,0.0945650002871018
26.860696,14.46232677918366,0.0942996266504724
26.863076,14.481142769407937,0.094044171278751
26.86548,14.493440600713766,0.0938101493183272
26.867868,14.505226575340398,0.0935697698417732
26.870248,14.514498592541411,0.0933323479753547
26.872644,14.525912480115707,0.0930836070057327
26.875032,14.53839730287664,0.0928296848956533
26.877412,14.550882125637573,0.0925761841667855
26.879816,14.561225078025226,0.0923361589674345
26.882204,14.567843368173769,0.0921085622491996
26.884584,14.572319787949036,0.0918936544149347
26.88698,14.582290653284351,0.0916469300406998
26.889368,14.594822697873528,0.0913791998426528
26.891748,14.603350540969869,0.0911295193435957
26.894152,14.610295592200377,0.090879169800453
26.89654,14.620732988244516,0.0906055356814694
26.89892,14.632940167609595,0.0903104540779113
26.901324,14.648499922161452,0.0899956447831871
26.903711999999995,14.66447898559389,0.0896708788887012
26.906092,14.68567295533266,0.0893202468057434
26.908496,14.709008795444706,0.0889594510477341
26.910884,14.732624174810471,0.0885924782732294
26.913264,14.761314690855713,0.0882031974759522
26.91566,14.78893427171431,0.0878202024111004
26.918044,14.819487118879106,0.0874278564062704
26.920428,14.84417343343151,0.0870577552497848
26.92282,14.865135085744804,0.0866983920876546
26.925208,14.886376277311816,0.0863335555604349
26.927588,14.905894907386134,0.0859711564280343
26.929988,14.924482371900671,0.0856116546039103
26.932372,14.942138670855432,0.0852548700807541
26.934752,14.952577962757443,0.0849317178070957
26.937152,14.95966467947268,0.0846282479805406
26.939536,14.967822331374553,0.0843195589013409
26.941916,14.979053019209482,0.083998599082488
26.944312,14.987070901484495,0.0836944489824345
26.9467,14.991875978199593,0.083406147065787
26.94908,14.993608018981636,0.0831312502675898
26.951476,14.997481930136956,0.0828458398662522
26.953864,15.001495610919134,0.0825581913748356
26.956244,14.999922298342645,0.0822834384464234
26.958644,14.998209216139292,0.0820115996561221
26.961032,14.993423098002886,0.0817522283747663
26.963412,14.992920720613036,0.0814728883381161
26.965808,14.98855391135721,0.0812050718818443
26.968195999999995,14.98819130359422,0.0809228842415552
26.970576,14.988899631017867,0.0806354018060026
26.972971999999995,14.990539124001293,0.0803464381825803
26.97536,14.992178616984722,0.0800574138129502
26.977744,14.992747174781508,0.0797731062531584
26.980139999999995,14.993595271832016,0.0794826876264286
26.982524,14.99509499518858,0.0791959854339207
26.984904,14.998736588918424,0.0788992448362896
26.9873,14.999444916342073,0.0786110552114287
26.989688,14.995869503019165,0.078342831347176
26.992068,14.993504794509755,0.0780667143625055
26.994464,14.9959356834261,0.0777782475277645
26.996852,15.000228903461998,0.0774863922447543
26.999232,15.006244684990596,0.0771947187329207
27.001643999999995,15.009839056892195,0.0769189817502269
27.004032,15.018880652525604,0.0766355298417984
27.006412,15.027922248159012,0.076352059777406
27.008808,15.040176649352336,0.076054689410351
27.011196,15.047076374612468,0.0757815912249787
27.013576,15.05383633024574,0.0755111104846616
27.015992,15.057383480319094,0.0752548238511691
27.01838,15.062653191885149,0.0749984778086237
27.02076,15.065781033077922,0.0747517141995088
27.023156,15.069840039830478,0.0745034412826315
27.02554,15.078834413635642,0.0742416255396386
27.027923999999995,15.08862018337373,0.0739814392005636
27.03032,15.097102700499695,0.0737123136007277
27.032708,15.102651951319467,0.0734507352962848
27.035088,15.114207504378491,0.0731713408132822
27.037484,15.1249716615046,0.0728899717237856
27.039872,15.13252301307079,0.0726219608504803
27.042252,15.135278767211226,0.0723647275070587
27.044668,15.137243125418744,0.0721065440633377
27.047052,15.133992577319932,0.0718676210727479
27.049448,15.13195273403462,0.0716213358555603
27.051848,15.126839854816248,0.0713855839960353
27.054231999999995,15.125079550784656,0.0711341363452451
27.056616,15.121037606752925,0.0708944725959106
27.059012,15.12034823790797,0.0706389825771587
27.061399999999995,15.120590034622795,0.0703818148790245
27.06378,15.12325324096462,0.0701101922828039
27.066175999999995,15.124054116186882,0.069841574516236
27.068564,15.122992660289588,0.0695751872694367
27.070944,15.12207097401916,0.0693061466824835
27.073343999999995,15.114211819949698,0.0690549791778505
27.075732,15.106352665880236,0.0688038932256786
27.078112,15.10328910923653,0.0685435647809066
27.080508,15.104229754085653,0.0682723389566258
27.082896,15.100886658188225,0.068018129224446
27.085292,15.101407994156768,0.0677560428318473
27.087688,15.104210970125449,0.0674824950723181
27.090076,15.109947212400323,0.0672022620289177
27.092455999999995,15.109397613182228,0.0669427709179634
27.09486,15.11112965396427,0.066671771619032
27.097248,15.110999363626757,0.0664030406752183
27.099628,15.111148612542962,0.0661283954058114
27.102024,15.107945286272392,0.0658691262321528
27.104412,15.107954765561738,0.0655982852969449
27.106791999999995,15.101678403358113,0.065347922651133
27.109196,15.097404141900906,0.0650926443663888
27.111584,15.091779406003338,0.0648470383425633
27.113964,15.084012799732491,0.0646087654895372
27.11636,15.080390164581344,0.0643575809243364
27.118748,15.07355472387028,0.0641177313128771
27.121127999999995,15.068721383905627,0.0638721898398426
27.123528,15.060675238381064,0.0636379240647811
27.125912,15.048345352109948,0.0634191279680973
27.128292,15.036946631398608,0.0631997247867915
27.130696,15.024756514754348,0.0629780048377817
27.133084,15.01270616773695,0.0627536621988889
27.135463999999995,15.002238612585389,0.0625331944007487
27.13786,14.991631287806968,0.0623155764146137
27.140252,14.994247272320544,0.0620641321648424
27.142636,14.996863256834123,0.0618126566953814
27.145032,15.002412507653895,0.0615560050974065
27.14742,15.008892924033445,0.0612987176758233
27.149799999999995,15.013511009293442,0.0610426795794364
27.152196,15.013705584180018,0.0608042170327441
27.154588,15.020977396492489,0.0605487436393265
27.156964,15.026386877685397,0.0602951615576112
27.159368,15.032867294064946,0.0600381592463265
27.161752,15.043212142310468,0.0597753308015313
27.164132,15.052206516115632,0.0595222982809372
27.166536,15.06506532178677,0.0592636041853419
27.168924,15.081788559323885,0.0589997837187148
27.171304,15.10093320648799,0.0587231280875172
27.1737,15.123290659212016,0.0584364316105494
27.176088,15.142435306376123,0.0581608763257195
27.178468,15.164652989473293,0.0578782697849417
27.180872,15.18486857182404,0.0576004130078022
27.183256,15.204432527868727,0.0573183818263498
27.185636,15.22227392242072,0.0570349135154236
27.188032,15.229965043613769,0.0567749999754682
27.19042,15.240729200739873,0.0565085920690147
27.192804,15.247489156373144,0.056249860515057
27.195204,15.253317946446634,0.055991822917786
27.197592,15.262871398759238,0.0557318114412111
27.199972,15.27684836144526,0.0554565346270138
27.202376,15.287612518571366,0.0551914790782891
27.204764,15.301449711630529,0.0549203410529837
27.207144,15.316218070249468,0.0546494532141093
27.20954,15.331405737748986,0.0543712910941832
27.211928,15.347524570808284,0.0540933388314051
27.214308,15.361920842374886,0.0538138865917139
27.216712,15.37552571800857,0.0535331493332108
27.2191,15.392855255881368,0.053252047153653
27.22148,15.41097618968708,0.0529744498881344
27.223884,15.429516432373376,0.0526889710694557
27.226268,15.445914804686394,0.0524099772197039
27.228648,15.462033637745694,0.0521364250220336
27.231044,15.475870830804856,0.0518715365809794
27.233432,15.49357245572999,0.0516035799699154
27.235812,15.512484785468622,0.0513296722461545
27.238216,15.52683383520698,0.0510730759914213
27.240604,15.544907547184454,0.0508157773793626
27.242984,15.559768453602008,0.0505666496362807
