Time,Force,Position
30.448984000000003,12.054445656072346,0.1589064891178004
30.45138,12.258421752589292,0.1585756005829153
30.453768000000004,12.45415902455296,0.1582533062600564
30.456148,12.644078881590351,0.1578992303278664
30.458548,12.8309748203808,0.1574985092307217
30.460936000000004,13.010563100177755,0.1571027927795737
30.463316,13.186336065794846,0.1566659221448342
30.465716,13.354429285366102,0.1562237559266599
30.468104000000004,13.512700888518248,0.1558011477664781
30.470488000000003,13.667436716744252,0.1553245336706708
30.472884,13.8142132596707,0.1548477652181742
30.475272000000004,13.954241222111095,0.1543600209434585
30.477652,14.08910339593127,0.1538514424560462
30.480048000000004,14.215307436317588,0.1533616161804596
30.482436,14.33136309920283,0.1529167694206195
30.484816,14.437502702012472,0.1525292003668995
30.487212,14.542014186985906,0.1521142701658606
30.489600000000003,14.636050533376302,0.1517670812143398
30.49198,14.72920293603516,0.1514149226482504
30.494384000000004,14.817467193469652,0.1510881844383927
30.496772,14.901262614560354,0.1507767842570596
30.499152,14.976445228187574,0.1505164364227793
30.501548,15.05107065916522,0.1502193807149311
30.503936000000003,15.1227174978663,0.1499119711686952
30.506316,15.189523413171257,0.1496099659228311
30.508712000000003,15.252279801013003,0.1493078718582134
30.511096,15.309496417324322,0.149027291890184
30.513492,15.367691421023665,0.1487254397544475
30.515888000000004,15.426864812111027,0.1484017584030853
30.518276,15.486038203198389,0.148081479889914
30.520656,15.54628252947239,0.14775362835734
30.523052,15.602103345372974,0.1474687326098211
30.525440000000003,15.654990894967366,0.1472068480141885
30.52782,15.710951480494815,0.1469218068304469
30.530216000000003,15.764258338969787,0.1466505690901254
30.532604,15.817612419273004,0.1463621651502765
30.535000000000004,15.866869750284769,0.1460905857632451
30.537404,15.920597813498192,0.145761484519418
30.539792,15.961988407009017,0.1454969721455998
30.542172,16.003054135295752,0.1452078421581138
30.544576,16.037229617611697,0.144951273477458
30.546964000000003,16.06851905544969,0.1446968580889247
30.549344,16.0934301039961,0.144480040054609
30.551744,16.117689526236443,0.1442628644148729
30.554128,16.1390156821706,0.1440670377162883
30.556512,16.16220416922431,0.1438609862448265
30.558908,16.18567219553174,0.1436489668252007
30.561296,16.201271588480367,0.1434922173617224
30.563676,16.211144218443458,0.1433725899882814
30.566072,16.214917998368684,0.1432817309672885
30.56846,16.21552619456224,0.1431996380547323
30.570844,16.215250447024257,0.1431049416535876
30.57324,16.2130198205681,0.1430065719736687
30.575628,16.204038717768018,0.1429353898274726
30.578008,16.199109038289013,0.1428175376560083
30.580404,16.190734235824618,0.1427148346791693
30.582792,16.182918511867662,0.1425986924719484
30.585172,16.17230929123137,0.1424988714579496
30.587572,16.16705474652827,0.1423551210538107
30.58996,16.158727165892117,0.1422342720244077
30.59234,16.1526812252561,0.1420924083066249
30.594736,16.147845989433584,0.1419382708459765
30.597124,16.1440816887977,0.1417751747333132
30.599508,16.139805531482622,0.141607573444589
30.601904,16.132084251182153,0.1414545780248454
30.604296,16.12105761752315,0.1413131534869122
30.606676,16.103884911998037,0.1412171894327127
30.609072,16.088202450540145,0.1411023037511862
30.61146,16.072659758709108,0.1409838882086407
30.613840000000003,16.05991056355741,0.1408490211010566
30.616244,16.04795276433863,0.140711964172377
30.618632,16.036786361052766,0.1405726489119165
30.621012,16.024129713699686,0.1404519784234292
30.623412,16.013707484518495,0.1403282616712354
30.6258,15.997930579404116,0.1402484732684303
30.62818,15.980942969476237,0.1401807905779377
30.630576,15.963815589921497,0.1401162199801882
30.632968,15.942404469620204,0.1400867537927239
30.635348,15.920853579692048,0.1400602815465417
30.637744,15.898371524204114,0.1400391306889583
30.640132,15.87574969908932,0.1400211707178779
30.642516,15.85377950028059,0.1400043686599965
30.644912,15.83488233740491,0.1399642772761037
30.6473,15.812632599342455,0.1399537310661235
30.649684,15.79583008501181,0.1399141608339862
30.65208,15.774883599561472,0.1399063022567407
30.654468,15.759291790044326,0.1398545044507451
30.656848000000004,15.7444913764601,0.1398005650365621
30.659244,15.731693063622286,0.1397322562413926
30.661632,15.719965685971117,0.1396550131641961
30.664016000000004,15.707446912387022,0.1395796107947596
30.666412,15.697861405109126,0.1394846369592732
30.668796,15.693490804137562,0.1393493190201541
30.671192,15.68953951204658,0.1392037136962097
30.673588,15.687590320702013,0.1390437384287671
30.675976,15.689505561223418,0.1388588270282934
30.678356,15.690349866558186,0.1386826828077594
30.680752,15.694267207826012,0.1384834289515933
30.68314,15.696042678720556,0.1383015748318205
30.685520000000004,15.697678379988243,0.1381227756295457
30.687916,15.698382915696154,0.1379491235530575
30.690304,15.697364889911368,0.1377826601851117
30.692688,15.692202893006886,0.1376479129825048
30.695084,15.69025370166232,0.1374866691398802
30.697472,15.684160539198064,0.1373570871795824
30.699852,15.686727406025527,0.1371725664804417
30.702248,15.693670561398164,0.1369691665958198
30.704636,15.702336278263498,0.1367587740231319
30.707032,15.708720355128694,0.1365689993212317
30.709428000000003,15.711891626433976,0.1364052361921576
30.711816,15.711570552925618,0.1362739016598431
30.714196,15.709107609043985,0.136160109897855
30.716592,15.70315232034872,0.1360790953294647
30.71898,15.6995712194522,0.1359925557876804
30.72136,15.696501975234888,0.1359109097547234
30.72376,15.69315319176385,0.1358361007311325
30.726144,15.69003672571829,0.1357729547978283
30.728528,15.68929444747148,0.135704456014797
30.730928,15.694930558516262,0.1356033508803327
30.733312,15.707084828479497,0.1354666562518213
30.735696,15.723335847734177,0.1353179584054858
30.738092,15.743683616280306,0.1351573333469402
30.74048,15.765474407065415,0.1349962583171671
30.74286,15.790430781582195,0.1348290914528933
30.745256,15.82018275352473,0.134633435000432
30.747644,15.846162841399904,0.1344773131903071
30.750028,15.86571731815525,0.134371899681422
30.752424,15.884852486030011,0.1342767062304872
30.754812,15.911297208756142,0.1341454611391579
30.757196,15.94505148633364,0.1339785312384049
30.759592,15.985184153202727,0.1337796235520515
30.76198,16.022615871191093,0.1336098192901903
30.764360000000003,16.06670551772477,0.1334031654238334
30.76676,16.111446790564504,0.1331994052502786
30.769148,16.162845991949546,0.1329600095822112
30.771544,16.21769031631998,0.132709410170363
30.773940000000003,16.276818381436968,0.1324277093227377
30.776328,16.335015280994178,0.1321525015005878
30.778712,16.39027891424519,0.1318972505302517
30.781108000000003,16.440327641189878,0.1316800447386086
30.783496,16.49037636813456,0.1314642045600144
30.78588,16.543498131012296,0.1312303881224226
30.788276000000003,16.600484325756007,0.130975804116859
30.790664,16.657610290126577,0.1307206062983588
30.793048,16.71552765043007,0.1304661805556063
30.795448,16.777868521106974,0.1301796547192063
30.797832,16.843422197343795,0.1298700438449906
30.800216,16.91069843507331,0.1295554212147636
30.802612000000003,16.974250010563715,0.1292616009967064
30.805,17.03314575825523,0.1289923722861431
30.807384,17.096465016320153,0.1286933497302177
30.809780000000003,17.167141051064686,0.1283459006148057
30.812168,17.23367311468953,0.1280278255100842
30.814552,17.30034494794123,0.1277086202407744
30.816948000000004,17.36236095339404,0.1274141945552578
30.819336,17.423073706234735,0.127119048463301
30.821716,17.48150481907529,0.1268432268325246
30.824124,17.54007570154271,0.1265657069877374
30.826508,17.59692402251743,0.1262942949272341
30.828888,17.656845379425206,0.1260050317744818
30.831296,17.715323714094005,0.1257165376723824
30.83368,17.767423659471216,0.1254558250931721
30.836060000000003,17.817009647422815,0.1252030692891972
30.83846,17.86394190832194,0.1249611594745278
30.840844,17.9114332477285,0.1247098922590286
30.843228000000003,17.95533969452281,0.1244736379998094
30.845620000000004,17.99859451501106,0.1242364425981492
30.848008,18.040685852514056,0.1239937678167622
30.850388,18.08119439815122,0.1237538658707167
30.852788000000004,18.1219824830421,0.1235088272314504
30.855176,18.1551814738279,0.1232995844152793
30.857556,18.18893954312113,0.1230813484653664
30.859952,18.22367599980239,0.1228443002455203
30.862340000000003,18.259390843871667,0.1225892554186569
30.86472,18.29352289607511,0.122336868280972
30.867112,18.32379051641258,0.1221030834958497
30.869496,18.35382581932457,0.1218598236625758
30.871892000000003,18.382418099997583,0.1216163561109886
30.874296,18.41142968955118,0.1213648483780321
30.876684,18.438346630559742,0.1211114358813674
30.879064,18.467684981195305,0.1208408169998322
30.881464,18.49916520220414,0.1205577301441658
30.883852,18.531064732093554,0.1202672590332365
30.886232,18.562312635676918,0.119975538028265
30.888624,18.587973545901605,0.1197064390630327
30.891012000000003,18.61177212500673,0.1194448879271704
30.893392,18.636269552246173,0.1191705007208141
30.895796,18.659323957246627,0.1188955495812076
30.898184,18.684799771874083,0.1186034061502135
30.900564000000003,18.70883256426256,0.1183105687895659
30.902964,18.7342158310914,0.1180062486726178
30.905348000000004,18.75187023418829,0.1177363507768759
30.907732000000003,18.763006478366734,0.1174908544458308
30.910128,18.76599454993265,0.1172868221836588
30.912512,18.769262160752287,0.1170775247327116
30.914896,18.77308885007936,0.1168573253435003
30.917288,18.772259711607543,0.116654257345197
30.919676000000003,18.770499407575954,0.1164546530514514
30.922068000000003,18.766737002797942,0.1162645477560374
30.924468,18.764045533206573,0.1160684960642427
30.926852000000004,18.758420797309004,0.1158857303417414
30.929236000000003,18.751073499918743,0.1157070888444883
30.931632,18.74093270584914,0.115538511243609
30.934016,18.727858645473347,0.1153825226651206
30.9364,18.71278248435113,0.115235613607136
30.938796000000004,18.69705469692287,0.1150864548524817
30.941180000000003,18.67797433430783,0.1149580142305138
30.943564,18.658614432439062,0.1148347282466434
30.94596,18.637112660197023,0.1147233508778824
30.948348000000003,18.61440018314148,0.1146204518485142
30.950744,18.59368980683236,0.1145080075193746
30.95314,18.57656432313549,0.1143848597849222
30.955528,18.564606523916712,0.1142497305033841
30.957908000000003,18.56051735805673,0.1140800143360845
30.960304,18.55642819219677,0.1139103664510206
30.962692,18.55084878226957,0.113754561112926
30.965072,18.553929401634104,0.1135641584498189
30.967468000000004,18.55994328730483,0.1133616190910714
30.969856,18.569961374468388,0.1131410013734126
30.972236,18.575695720885392,0.1129439623786451
30.97464,18.578217261742484,0.1127644493400609
30.977028,18.581250659278776,0.1125897628893149
30.979408,18.58651847498696,0.1124161464764035
30.981804000000004,18.598583988867315,0.1122150987809356
30.984192,18.61637626573319,0.1119922264093113
30.986572,18.635611564838047,0.1117709964621297
30.988968,18.6577801302491,0.1115377284604341
30.991352,18.682881961966352,0.1112929072153138
30.993748000000004,18.707052628123822,0.1110515069751457
30.996144,18.736158661333903,0.1107896853213356
30.998532,18.758839083424157,0.1105626158333991
31.000912,18.78273021032791,0.1103279815854502
31.003308,18.80811158129888,0.1100805703055588
31.005696,18.829348981150154,0.1098540644263384
31.008076000000003,18.851749863986683,0.1096351117713007
31.01048,18.87815494831605,0.1093989849147596
31.012868,18.899484895965937,0.109187098528344
31.015248,18.916810642123,0.1089928362894512
31.017644,18.93413638828005,0.1087994462928026
31.020032,18.957328667049502,0.1085832405651099
31.022412000000003,18.985176773617845,0.1083522249741223
31.024808,19.01530652018632,0.108108209337072
31.027196000000004,19.047717906754936,0.1078515128492455
31.029592,19.07705625739049,0.1076100805257053
31.031988,19.11011927026517,0.1073588848828459
31.034376,19.1450446142594,0.1071025476416179
31.036756,19.179830188626767,0.1068495704498145
31.039152,19.215267389300195,0.1066002333038916
31.04154,19.25121644665282,0.106355853942775
31.04392,19.28381292881867,0.1061309307671388
31.046324,19.32749084990324,0.1058609720219638
31.048712,19.36874736136081,0.1056075083440829
31.051096,19.40851362875117,0.105367986268995
31.053488,19.45307549356728,0.1051131000617883
31.055876,19.497125501704183,0.1048542027870422
31.05826,19.54275830170693,0.1045964410738552
31.060656,19.590113663202366,0.1043365355011304
31.063044,19.64305601805648,0.1040613855474619
31.065424,19.69543929440315,0.1037974834192504
31.06782,19.7475430314961,0.1035401969997916
31.070204,19.80192840858919,0.1032720218595267
31.072584,19.8546837719882,0.1030197409489909
31.074984,19.906368200200568,0.1027739982156703
31.077368,19.9557709884128,0.1025409793566616
31.079764,19.998376078452864,0.1023320356949325
31.08216,20.04112093811979,0.1021216036308172
31.084548,20.08665929446605,0.1019047712301146
31.086928,20.13219765081231,0.1016893004377636
31.089324,20.179877877531844,0.1014646337036563
31.091712,20.230770909811294,0.1012261912706082
31.094092000000003,20.27658880541128,0.1010093509119523
31.096488,20.32147553545148,0.1007949356763924
31.098876,20.367293431051458,0.1005788167671952
31.101272,20.41124899553188,0.1003688466782246
31.103668,20.452271293706108,0.1001686416601282
31.106056,20.48677543296189,0.099985600416946
31.10844,20.520348406657888,0.0998055259141671
31.110836,20.55205904923433,0.0996312106279901
31.113224,20.58097619513144,0.0994641851247351
31.115608,20.60644821804316,0.0993023406116099
31.118008000000003,20.62763650020832,0.0991598252077708
31.120396,20.65059456569442,0.0990014588316959
31.122776,20.67169030006097,0.0988481183890841
31.12518,20.696138609614284,0.0986788037878725
31.127564,20.72445135103358,0.0984984114590399
31.129944,20.74997059577354,0.0983252355014216
31.132348,20.77055447346089,0.0981685106933958
31.134736000000004,20.78927602002868,0.0980168634362392
31.137116,20.80920827140997,0.0978590708648925
31.139512000000003,20.826486795738788,0.0977062029139533
31.1419,20.84190298894805,0.097558094078863
31.144284,20.861602922903863,0.0973923912074495
31.146680000000003,20.88051146092676,0.0972270370366483
31.149068,20.897557667830096,0.0970664030606695
31.151448,20.91981878103977,0.0968861948478827
31.153844,20.95087969316802,0.096680408636753
31.156228,20.981288978990214,0.0964726394816076
31.158608,21.0067628977598,0.0962801482903635
31.161012,21.03358729096975,0.0960788226574984
31.163400000000003,21.06320518085903,0.0958715831064461
31.16578,21.091380048509333,0.0956617864039674
31.168184000000004,21.11927537690592,0.0954574203969622
31.170572,21.14731047492936,0.0952511061032673
31.172952,21.175625112206525,0.0950412117608657
31.175356,21.197281820938382,0.0948481570039571
31.17774,21.219869695230017,0.0946531447395319
31.180124,21.24366827433515,0.0944516234599192
31.182528,21.266535687880506,0.0942524996320422
31.184912,21.283257029559746,0.0940748358846174
31.187296000000003,21.300629997545045,0.0938999333382027
31.189692,21.318002965530347,0.0937252097510935
31.19208,21.33044056646304,0.0935653692742366
31.19446,21.34208677146281,0.0934055587370007
31.196864,21.35308135015652,0.0932434016420855
31.199252,21.36086312329032,0.0930943023147207
31.201632000000004,21.36105580231903,0.0929636183974068
31.204028,21.359246380601327,0.0928390224457706
31.206412,21.36372280037659,0.0926916793894896
31.208792000000003,21.369270155338487,0.0925403812307049
31.211192,21.372955179180835,0.0923932173946354
31.213576000000003,21.37943369970252,0.0922403127383723
31.215956,21.384049889104645,0.092091515496978
31.218356,21.387595143320134,0.0919468542599327
31.22074,21.39006946234899,0.0918066146313844
31.223124,21.397758687684167,0.0916480787879306
31.225528,21.40772955301948,0.0914795510844304
31.227916,21.417979957608527,0.0913068271410933
31.230296000000003,21.428649671078144,0.0911277579849797
31.232692,21.444534290854094,0.0909307517720113
31.235076,21.460698449883765,0.0907298238755047
31.23746,21.47635075223424,0.0905243729546705
31.239856000000003,21.49200305458471,0.0903186879044237
31.242244,21.50807466581577,0.0901068046552338
31.24462,21.523726968166248,0.0899014403154301
31.247016,21.53872764421066,0.0896936744698281
31.249404,21.554799255441715,0.0894818796354424
31.251800000000003,21.576085772979106,0.0892528401933604
31.254196,21.59457879383715,0.0890299180562501
31.256584000000004,21.613211584322062,0.0888054233370275
31.258964,21.631052978874063,0.0885807142206512
31.261368,21.648242747119998,0.0883538786625523
31.263756,21.664501349806155,0.0881289218772848
31.266136000000003,21.683041592492447,0.0878943428371128
31.268536,21.702652770365383,0.087656624674723
31.270920000000004,21.72012207786504,0.0874269336979019
31.273304000000003,21.73558928461828,0.08720332548564
31.2757,21.756131628050998,0.0869659288142736
31.278088000000004,21.77425256185671,0.0867404040683613
31.280468,21.788788603050165,0.0865197090682921
31.282864000000004,21.80025160831057,0.0863083052951758
31.285248000000003,21.81315763580996,0.0861002123854496
31.287632,21.833140900735227,0.085872882253432
31.290028,21.85349625271284,0.0856528303398966
31.292416000000003,21.87333974801125,0.0854279626940337
31.294796,21.89704767517564,0.0851952083217531
31.297200000000004,21.92140722864608,0.0849652619852678
31.299584000000003,21.94041210618333,0.0847541547888117
31.301968,21.957926739653363,0.0845531648884286
31.304364,21.976232769056317,0.0843533328501518
31.306752000000003,21.99505065513846,0.084158345369231
31.309132,22.0126578364071,0.0839692869620254
31.311536000000004,22.02933385211597,0.0837817166304174
31.313924,22.043867997451564,0.0836016532630769
31.316304,22.0541184020406,0.083436208434597
31.318704000000004,22.06637090737606,0.0832658448609189
31.321088000000003,22.07848364308466,0.0830977654293474
31.323472,22.082308436553863,0.0829544253844191
31.325876,22.090556740396487,0.0827949115589227
31.32826,22.103321102411137,0.0826304069209767
31.330644,22.12036920517234,0.0824520219994257
31.333048,22.13583451606771,0.0822726198588022
31.335432,22.147295625470253,0.0821038758904297
31.337816000000004,22.1570341733801,0.0819360716096015
31.340212,22.168495282782636,0.0817675114253718
31.3426,22.174881255505696,0.0816124145712773
31.34498,22.183548868228897,0.0814486590284861
31.347384,22.194498120952236,0.0812759538103888
31.349772,22.20772901367571,0.0810944836701439
31.352152000000004,22.21881803602591,0.0809202074705306
31.354548,22.232468237629966,0.0807333572645886
31.356936,22.248120539980444,0.0805419740594876
31.359316,22.265495403823618,0.0803499261741833
31.361716,22.286734699532765,0.0801509071322846
31.364104,22.30704282968213,0.0799528805120466
31.366484,22.32735095983149,0.0797553524718181
31.36888,22.34873002516749,0.079554844114451
31.371268,22.373321896063413,0.0793442205161667
31.373648000000003,22.393350486959054,0.0791512976323433
31.376044,22.40923510673501,0.0789700570938162
31.378432000000004,22.419765050577773,0.0788055554655447
31.380812,22.43187778628637,0.0786426743966207
31.383208000000003,22.44184865162169,0.0784865609277736
31.385592000000003,22.45289045214365,0.0783272545444173
31.387992,22.464072022292463,0.0781661126089676
31.390388,22.4784663980012,0.0779952622334332
31.392776,22.487645867403597,0.077838832292612
31.395156,22.499758603112184,0.0776770850908851
31.397552,22.510940173261,0.0775168494934712
31.39994,22.52240128266354,0.0773527710776403
31.402320000000003,22.5305098168793,0.077200596772505
31.404716,22.54034091258776,0.0770484325617721
31.4071,22.55338481385613,0.0768871068021756
31.409484,22.56363521844517,0.0767297458713928
31.411880000000004,22.577098428594123,0.0765628355903988
31.414268,22.58827999874294,0.076404358603615
31.416664,22.59839063370512,0.0762492649778251
