Time,Force,Position
32.43924799999999,19.216990590246496,0.1446407149847366
32.441632,19.26763992995325,0.1445219808518434
32.444028,19.31307625921155,0.1443953252200079
32.446416,19.35516190914094,0.1442514026968604
32.44879999999999,19.390823843808363,0.1441108152139649
32.451196,19.426068365453084,0.1439358050932469
32.45358399999999,19.453678467022332,0.1437741287085006
32.455968,19.479939990009107,0.1435832666431179
32.458364,19.49777569698749,0.1434076952059531
32.460752,19.50490394795736,0.1432646076207225
32.46313599999999,19.507610584411687,0.1431121308368746
32.465532,19.502543031163693,0.1429749198948239
32.467924,19.494729203064605,0.1428363202707436
32.470308,19.48137560343509,0.1427100714580141
32.47270399999999,19.46299408895435,0.1425997988598541
32.475092000000004,19.44689421447374,0.142471896467461
32.477476,19.43056202256766,0.1423343384369519
32.479876000000004,19.41115679472852,0.1422157379952073
32.482264,19.3961750772628,0.1420648144677595
32.48464,19.38254383423743,0.1419007625689977
32.487048,19.36691049046565,0.1417482988049846
32.489436,19.354350182626924,0.1415766448830873
32.491816,19.34155755736272,0.141395337268639
32.49422,19.33067448504632,0.1411901211829085
32.496607999999995,19.31634628974452,0.1409968884884914
32.498988,19.30285671220388,0.1407869136075941
32.501384,19.28913481723777,0.1405670821276471
32.503772,19.27089686409963,0.1403662920591172
32.506156000000004,19.252519141334623,0.1401679642508502
32.508551999999995,19.237214454502677,0.1399502843312398
32.510940000000005,19.218417422857087,0.1397594985690679
32.51331999999999,19.198269916771142,0.13958109046431
32.51572,19.17905357624498,0.1393978503769546
32.518108,19.161280257957785,0.1392137613711159
32.520488,19.14644020597679,0.1390131808250304
32.522887999999995,19.131180845115217,0.1388208333595391
32.525276000000005,19.1170849672389,0.1386333247865455
32.52765599999999,19.09963651417581,0.1384700669026261
32.530052,19.08120967372469,0.1383263683549853
32.532444,19.06115281957949,0.1382009369949033
32.534824,19.039605721367074,0.1380910145810509
32.537223999999995,19.015357674273943,0.1380067022238831
32.539612000000005,18.992412879792926,0.1379245214920169
32.541996,18.965696201244555,0.1378750195888129
32.544392,18.94042254493516,0.1378250880551389
32.54678,18.91403073161088,0.1377973650133904
32.549164000000005,18.890245423510827,0.1377743287994915
32.551564,18.87670293656834,0.1377025594626765
32.553951999999995,18.865953946305183,0.1376175279175325
32.55633999999999,18.854226568654006,0.1375520672841014
32.558736,18.848737810667565,0.137461548999547
32.56112399999999,18.84655440603965,0.1373618202485701
32.563508,18.84939891626297,0.1372472711038505
32.565904,18.85182411760571,0.1371410888385833
32.568292,18.851129061187148,0.1370688698986379
32.57067599999999,18.85215656626128,0.136990776074536
32.573072,18.857048503201387,0.1368926532258249
32.57545999999999,18.86873813831366,0.1367584005006239
32.577844,18.882150334918634,0.1366185586064444
32.58024,18.8977969496955,0.1364769010819207
32.582628,18.919961723390813,0.1363052436706513
32.58501199999999,18.943337201899624,0.1361237137451072
32.587408,18.970437342647557,0.1359258698458939
32.58979599999999,19.002053541567516,0.1357097185716808
32.59218,19.036323467539944,0.1354835165749443
32.594576,19.07045362388552,0.1352601706432566
32.596964,19.102721449111534,0.1350453880679153
32.59934799999999,19.12563039691153,0.1348892565084018
32.601744,19.145326539151608,0.1347543257820404
32.604136,19.16609361657832,0.1346122857160934
32.606516,19.18499836288547,0.1344793344922875
32.608912000000004,19.20590520993904,0.134335498997867
32.6113,19.226020661059696,0.1341940228930888
32.61368399999999,19.247998443299903,0.1340442592294862
32.61608,19.27519113184645,0.1338627004756497
32.61846799999999,19.30131288520636,0.1336883677404563
32.620852,19.324361602633203,0.1335326027436533
32.623248000000004,19.346991011179476,0.1333856796974532
32.625636,19.366826923046407,0.133251330779234
32.62801999999999,19.391086345286755,0.1330877350542005
32.630416,19.41213296196719,0.1329452001898072
32.632808,19.4334118960731,0.1328123170848865
32.635188,19.449336154245817,0.1327136092236991
32.637587999999994,19.462327146112344,0.1326299953855743
32.639976000000004,19.4781116346582,0.1325347082178107
32.64236,19.49575845432362,0.1324315551724128
32.644756,19.517269705855007,0.132309908724357
32.647144,19.543297015558423,0.132170681454659
32.649528000000004,19.572629678620377,0.1320234297367251
32.651923999999994,19.607689104667852,0.1318505070667814
32.654312000000004,19.64218945220789,0.1316886030203869
32.656696,19.677341426053992,0.1315289274831712
32.659092,19.71049129915368,0.1313805485159984
32.66148,19.74936793523889,0.1312073431673397
32.66386,19.78903596725702,0.1310341920647045
32.666256000000004,19.82935562558121,0.1308626003037719
32.668644,19.87111830614438,0.1306914297921682
32.67102799999999,19.913951921894174,0.1305146566939842
32.673424,19.96023066062937,0.1303281004201902
32.675816,20.001014953804518,0.1301773473382124
32.678196,20.045012052539573,0.1300081768740594
32.680595999999994,20.091430560901628,0.1298216753320129
32.682984000000005,20.141993040383376,0.1296125266433586
32.68536399999999,20.194417850984685,0.1293962107742768
32.687764,20.244700791212715,0.1291937620051967
32.69014799999999,20.297265371440883,0.1289774708377904
32.692532,20.350900886855687,0.1287565208152604
32.694928000000004,20.406957811897488,0.1285191614000231
32.697316,20.468369412872487,0.1282527757388845
32.69969999999999,20.525776812354646,0.1280079710681897
32.702096,20.587467952583363,0.1277399189962817
32.704483999999994,20.649298862438936,0.1274708111142573
32.706868,20.71285233378721,0.1271980809624503
32.709264000000005,20.76867694140353,0.1269603007846544
32.711656000000005,20.821568282713667,0.1267366856735129
32.71403599999999,20.874878932904377,0.1265060532886584
32.716436,20.92995936641603,0.1262581347060986
32.718824,20.98517956955454,0.1260091981981387
32.721204,21.041750247133407,0.1257508999259136
32.723603999999995,21.10167349989905,0.125473031135569
32.725992000000005,21.15880325598536,0.1252069003204741
32.72837199999999,21.214862076885037,0.1249479232256592
32.730772,21.271200437038427,0.1246856192386252
32.73316,21.32702694051262,0.1244202496170312
32.735547999999994,21.385694162494392,0.1241328498730855
32.737944,21.439426017423557,0.1238679524038074
32.740336,21.4894332101136,0.1236174292326333
32.742723999999995,21.536646906124314,0.123378015183674
32.74512,21.57720267358972,0.1231654482530155
32.747512,21.615244483629507,0.122958159523611
32.74989599999999,21.648770235497267,0.1227657091280891
32.752296,21.681784130685827,0.1225702672366986
32.75467999999999,21.71549687400869,0.1223640360127458
32.757068000000004,21.75442452363788,0.122133042707801
32.759468,21.79791545326735,0.1218765547651809
32.761855999999995,21.847412685136067,0.1215960501764027
32.764244000000005,21.89583898181815,0.1213224359529018
32.766639999999995,21.942962025888114,0.1210469927175706
32.76902799999999,21.986779716599543,0.1207780908393612
32.771416,22.02608134913895,0.1205226895964387
32.773816,22.06566252093207,0.1202633335759213
32.77620399999999,22.103940440113075,0.1200015020287799
32.778588,22.138633466681828,0.1197501951802332
32.780987999999994,22.17453719806408,0.1194921574084867
32.783376000000004,22.20643672795349,0.1192518110404587
32.785776,22.24196837228341,0.1189893446390016
32.78817599999999,22.28071282217324,0.1187119922395393
32.790564,22.319085185010728,0.1184291022619293
32.792959999999994,22.358016626355663,0.118137565324548
32.79536,22.400440412514232,0.11782657497914
32.797748,22.443423277180244,0.1175071334038787
32.80014799999999,22.484823349980417,0.1171899811559214
32.802544,22.519425724608418,0.1168979261934901
32.804931999999994,22.546718544385055,0.1166271570420828
32.807332,22.567493205243245,0.1163773937859343
32.809736,22.57802504494387,0.1161596489974161
32.81211999999999,22.59032666796544,0.1159264667067437
32.814516,22.601557355800367,0.1156987249587352
32.81692,22.613207352515875,0.115464621772578
32.819304,22.62970016848538,0.115201981413752
32.821708,22.640885530349934,0.1149513265387307
32.82410399999999,22.654492301841486,0.114686887391373
32.8265,22.665445346280563,0.1144281230998712
32.828896,22.67281349810739,0.1141783959409716
32.831284,22.681671894001436,0.1139174592977098
32.833684000000005,22.68680562765636,0.1136677110300092
32.836079999999995,22.683558871273288,0.1134421914228358
32.83846799999999,22.678449783770656,0.1132220165071922
32.840864,22.67175790440219,0.1130027438145027
32.84326,22.66227252835439,0.1127916573155386
32.845652,22.65292692193345,0.1125784261356468
32.84804799999999,22.64185875401981,0.1123681801528964
32.850444,22.63349153498689,0.1121390128503225
32.85283199999999,22.6303392222603,0.1118876903457324
32.855216,22.62853738397407,0.111627023944715
32.857612,22.627946250501346,0.1113587514902054
32.86,22.619486483669807,0.1111180400969579
32.86238399999999,22.61065462978593,0.1108711295519082
32.86478,22.59982067515564,0.1106315172692851
32.86716799999999,22.583492274965295,0.1104179434486447
32.869552,22.57410134257399,0.1101795712676481
32.871948,22.556841776823862,0.1099679894485077
32.874336,22.545868052566718,0.1097299674271319
32.87671999999999,22.535173867563284,0.1094872710224902
32.879116,22.519684085134102,0.10925922701537
32.88150399999999,22.506056633824475,0.1090259762252694
32.883888,22.501788059940875,0.108754595350189
32.886284,22.49886996049764,0.1084740159542667
32.888672,22.495672321800672,0.1081975685384311
32.891052,22.489681186424377,0.1079282279162432
32.893452,22.483410511794364,0.1076634142169778
32.89583999999999,22.47807100272413,0.1073959728504878
32.898219999999995,22.47631638626614,0.1071211204337114
32.900616,22.470278029061603,0.1068647248704124
32.903004,22.46088709667029,0.1066239925405936
32.905384,22.45643153133159,0.1063668259952486
32.90778399999999,22.453558757858715,0.1061084857098614
32.910172,22.451058071438197,0.1058565438574398
32.912552000000005,22.45000040725663,0.1056062822770231
32.914952,22.45187600938128,0.1053465026284864
32.91734,22.45319253299848,0.1050961034960663
32.91972,22.4619583810939,0.104826529387698
32.92211999999999,22.465090014002413,0.1045841521056099
32.924508,22.470595834709684,0.1043413743080581
32.926888000000005,22.481688648775624,0.1040846542256399
32.929288,22.4926416932147,0.1038304437996771
32.931676,22.499683083959564,0.1036011528200676
32.93406,22.5069567921299,0.1033805132613342
32.93645599999999,22.51595306179294,0.1031574948361265
32.93884799999999,22.53011701593406,0.1029273353630235
32.941232,22.543349804515405,0.1026996630464701
32.943628000000004,22.55537188828325,0.1024785462170909
32.946016,22.56590372798388,0.1022688527313487
32.948396,22.580160229923624,0.1020502666947597
32.950796,22.5989327900354,0.1018226111518763
32.95318399999999,22.61607533645309,0.1016086027079974
32.955563999999995,22.63908441548317,0.1013774161244832
32.957964000000004,22.662093494513257,0.1011465886704321
32.960352,22.6864530479837,0.1009077088971042
32.962732,22.709462127013783,0.1006775975754675
32.965132,22.728746543804757,0.1004564837561546
32.96751999999999,22.748682586901783,0.1002383208100615
32.9699,22.7756958674247,0.0999972221339475
32.972300000000004,22.80163821276097,0.0997608346449775
32.974688,22.822225882164062,0.0995457757021621
32.977068,22.84253401231343,0.0993352502793991
32.979468,22.861631437649297,0.099131118107881
32.98185599999999,22.88072886298517,0.0989272266006546
32.984236,22.89968651869417,0.098725706344086
32.986632,22.9177130088434,0.0985267884989734
32.98902,22.93410948529855,0.0983403304467278
32.991404,22.95409085436595,0.0981479773148883
32.99379999999999,22.969136856380743,0.0979699876488039
32.996188000000004,22.98311192320889,0.0977964435281578
32.99856799999999,22.99615582447727,0.097625204751871
33.000968,23.007849251305284,0.0974624501123783
33.003356,23.01754057738688,0.0973063300094676
33.00574,23.0280232994014,0.0971505219871005
33.00813599999999,23.03608461178891,0.0970071863099444
33.010524000000004,23.04642756417657,0.0968538101660302
33.012908,23.0582135388032,0.0967026820233346
33.015304,23.06348135451138,0.0965654544047687
33.017692,23.06260309835346,0.0964485078906246
33.020076,23.06293554700903,0.0963255940815727
33.02247199999999,23.067132427530574,0.0961927644986403
33.024863999999994,23.069187437678845,0.0960679112707751
33.027244,23.072592922267464,0.095934939518881
33.02964,23.07692957241587,0.0958001822444296
33.032032,23.082197388124055,0.0956636573571522
33.034412,23.083880311219986,0.0955327373329291
33.036812,23.09105767987597,0.0953800810317635
33.039199999999994,23.097443652599036,0.0952276111730729
33.041584,23.10890476200157,0.0950594302889321
33.043983999999995,23.123438907337167,0.0948819546637919
33.046368,23.137041887112986,0.0947064571465264
33.04875199999999,23.15055231909018,0.0945206631211512
33.051148,23.1619208806941,0.0943428562933958
33.05354,23.1724980463651,0.094165126986697
33.05592,23.184425686476462,0.0939795432386683
33.058319999999995,23.195142621774323,0.0938001591650933
33.060708000000005,23.20748957076626,0.0936090602584651
33.063092,23.224771886810814,0.0934047751532845
33.065488,23.245406778042145,0.093187118502403
33.067876,23.26576213001975,0.0929740294592973
33.070260000000005,23.28667656050481,0.0927533608889984
33.072655999999995,23.31201450136327,0.0925157645153378
33.075047999999995,23.33642127666196,0.0922801864645807
33.077428,23.35924526009481,0.0920444528830004
33.07982799999999,23.380626221288686,0.0918065559812364
33.082216,23.408804880654728,0.0915529655615663
33.084596000000005,23.43218794259501,0.0913106457420822
33.086996,23.45384844304261,0.0910701353544664
33.089383999999995,23.47578848274392,0.0908262456462294
33.091768,23.491210363526783,0.0905944935868789
33.094168,23.506772013936512,0.0903607825552862
33.09655599999999,23.521262729159595,0.0901307872701366
33.09894,23.537383458076768,0.0898893403750746
33.101336,23.552712791061012,0.0896477666997142
33.103724,23.566831419231764,0.0894119949760088
33.10610799999999,23.580158651469603,0.0891760139051573
33.108508,23.591344013334155,0.088947583325529
33.110896,23.60346054075849,0.0887180995488242
33.11328,23.616368464115745,0.0884895875591569
33.11568,23.62997523560729,0.0882517406854239
33.118067999999994,23.64050897116579,0.0880227863895956
33.120452,23.64703850523146,0.0878043265791037
33.122851999999995,23.655709909670403,0.0875790347752218
33.125240000000005,23.66652318448262,0.0873470079412027
33.127624,23.67891925116067,0.0871160811084392
33.13002,23.68651972041297,0.0868953441838342
33.132412,23.6969136863446,0.0866701933043543
33.134795999999994,23.708518357089744,0.0864398524512118
33.137192,23.717189761528683,0.0862161493775922
33.139579999999995,23.73037722413966,0.0859868766171104
33.141964,23.74877959305697,0.0857430993670731
33.144364,23.772908724959795,0.0854891978875711
33.14675199999999,23.796758317608912,0.0852396400935536
33.149136,23.820468140631167,0.0849921617719424
33.151532,23.846319834026698,0.0847382897489077
33.153924,23.875244563355285,0.0844768323562723
33.156308,23.90645093268401,0.0842072792304033
33.158708000000004,23.93607451014689,0.0839375129272668
33.161096,23.961833655743806,0.083675665190931
33.16347999999999,23.984240226153943,0.0834259952889661
33.16588,24.00892843656422,0.0831680487095991
33.168268,24.03575851734777,0.0829037391252785
33.170652000000004,24.061657432571543,0.0826414143677472
33.173047999999994,24.084203772608543,0.0823910512887705
33.175439999999995,24.104096385593063,0.0821430411677802
33.177824,24.12198689783117,0.0818994991128744
33.180223999999995,24.136944143763085,0.0816620341334922
33.18261199999999,24.151342311187555,0.0814324709756759
33.184996,24.166531874544944,0.0812034809975111
33.18739599999999,24.18120958122314,0.0809705276260166
33.18978799999999,24.18881005047544,0.0807545662549267
33.192167999999995,24.18975259118243,0.0805497153531032
33.19458,24.187901635210093,0.0803485682120038
33.196968,24.18619044886461,0.0801454938859572
33.199348,24.18489857139971,0.0799370875310331
33.201764,24.180673427628616,0.0797344766352846
33.20415199999999,24.175237579044023,0.0795370263999405
33.206532,24.16845125601907,0.0793464213588496
33.208928,24.16473796892717,0.0791484715846768
33.211316,24.16288701295483,0.0789480677592087
33.213712,24.163550014408106,0.0787482162085994
33.21610799999999,24.163002311047872,0.0785533296621236
33.218496,24.162314838060787,0.0783604429460517
33.220876000000004,24.166982041006897,0.0781527263269847
33.223271999999994,24.1745825102592,0.0779398453367279
33.225660000000005,24.18618718100434,0.0777187601619296
33.22803999999999,24.199793952495888,0.0774936205720396
33.23044399999999,24.21368026324116,0.0772650139074868
33.232832,24.230779379546355,0.0770279354467625
33.235212000000004,24.24652802141118,0.0767977399826971
33.237612,24.268143195888403,0.0765576029766338
33.239996000000005,24.29427442853765,0.0763141064051008
33.24238,24.323059388239383,0.0760692662375157
33.244776,24.351844347941107,0.0758246430305947
33.247164,24.37820789801584,0.0755899916867921
33.249544,24.4056423832772,0.0753527844533526
33.251948,24.431074767792147,0.0751196753473723
33.254335999999995,24.457578087493737,0.0748839526783081
33.256716,24.48315024163555,0.074649825426678
33.25911599999999,24.50699983428467,0.0744160688709361
33.261504,24.52619359913489,0.0741878364514917
33.263884000000004,24.54846039991817,0.073953383350815
33.266279999999995,24.571937905514947,0.0737148226620069
33.268668000000005,24.590991900738302,0.0734898436818243
33.27104799999999,24.60990612633481,0.0732672086551768
33.273448,24.628540812677585,0.073048686088809
33.275836,24.649317369393643,0.0728252164989548
33.278216,24.668091825363287,0.0726055446136297
33.280612000000005,24.68579534614629,0.072389253836448
33.283,24.707642838048987,0.0721644366277808
33.28538,24.724694732525933,0.0719463891045831
33.287775999999994,24.738161734390623,0.0717304093206201
33.290164000000004,24.755772707375005,0.0715061834203064
33.292548,24.775525550732667,0.071277009143555
33.294948000000005,24.793555832597637,0.0710477202669253
33.297336,24.81237751039552,0.0708197745579361
33.29971999999999,24.83227012338004,0.0705892150015022
33.302116,24.851371340431648,0.0703579872234741
33.304503999999994,24.86847045673683,0.0701303627022116
33.306884,24.890504940094637,0.0698955150697631
33.30928,24.91118894901207,0.0696665818361731
33.311668,24.931872957929517,0.0694384037849344
33.314064,24.949064622033323,0.0692216557885321
33.31645999999999,24.96546489020421,0.0690039023574228
33.318848,24.97800072650912,0.0687911647069496
33.321231999999995,24.988814001321337,0.0685784629958642
33.323628,24.995343535387008,0.0683761237598109
33.326016,25.006808436505285,0.0681667162555581
33.328396,25.013989596877007,0.067967397459883
33.33079599999999,25.01688701650218,0.0677784258392003
33.333184,25.021506997620044,0.0675897121027978
33.335564000000005,25.02584743948418,0.0674043488731408
33.337959999999995,25.020037607989384,0.0672368016610991
33.340352,25.01287730205422,0.0670753450481814
33.342732,25.010233054291096,0.0669120395356561
33.345128,25.00465554022177,0.0667526238477864
33.347511999999995,25.000800587645134,0.0665936017556287
33.349896,25.0003907580539,0.0664354760835675
33.35229199999999,25.002634655515138,0.0662770656451539
33.35468,25.00366784816288,0.0661232298276441
33.357063999999994,25.01284921342315,0.0659556596356237
33.35946799999999,25.018026377190584,0.0657943525000052
33.361856,25.02934961282413,0.0656225135659976
33.364236000000005,25.04574798513715,0.0654426101356216
33.366632,25.067873120435703,0.0652574229778834
33.36901999999999,25.090929421294035,0.0650718394112547
33.371404,25.117058758085413,0.0648811551825098
33.3738,25.13825272782418,0.064697364016774
33.376188,25.16559276942906,0.0645033559728028
