Time,Force,Position
31.894231999999988,13.60538039071752,0.136761355219477
31.896684,13.709476358526112,0.1363423326506394
31.899124,13.805890684431,0.1359638988459391
31.901556,13.888896605446652,0.135663743511797
31.904015999999984,13.96650252455874,0.135378063156814
31.90645999999998,14.04206101695404,0.1350727127569289
31.908904000000007,14.111148572259127,0.134791186680131
31.911348000000004,14.174975895287512,0.1345194014145186
31.913780000000003,14.231261346039055,0.1342799744863938
31.916224,14.282239342685648,0.1340689672589129
31.918671999999987,14.33512689228004,0.133826264357812
31.921115999999984,14.388713290008733,0.1335677307264508
31.923572000000007,14.43829548624459,0.133340338380264
31.92600400000001,14.490019552853724,0.13309684016786
31.92846,14.538578035731188,0.1328626257968565
31.93089599999999,14.580618359690202,0.1326689138687895
31.933347999999995,14.616979142491932,0.1324934433259255
31.935788,14.65380645600248,0.1322907598744628
31.938240000000008,14.691751926527918,0.1320615753325607
31.940684000000005,14.735750921120848,0.1317709364435601
31.94313199999999,14.773511296049044,0.1315116058626073
31.94557599999999,14.804101885752738,0.1312894615986222
31.948019999999985,14.834460158030954,0.1310552005751934
31.950463999999982,14.871244041429,0.1307687706383997
31.952908000000008,14.906864441841792,0.130476004423697
31.955347999999987,14.939039719269193,0.1301977777471865
31.957779999999985,14.973776175950448,0.1298935345492171
31.96023199999999,15.008652402258564,0.1295869630227104
31.962672,15.047020973380318,0.1292496204227329
31.965115999999995,15.08715932782301,0.1288872568281404
31.967568,15.127856760773144,0.1285132449886666
31.970012,15.166180005924526,0.1281463897621055
31.972459999999984,15.204270933650427,0.1277670258349962
31.97490399999998,15.236402780965324,0.1274097693467188
31.977352,15.268953937160797,0.1270434181738718
31.979796,15.301552315184514,0.1266581886720115
31.98223999999999,15.333499066902174,0.1262715016328963
31.984683999999987,15.353852523021915,0.1259539020371949
31.987127999999984,15.367827589850064,0.1256673673645983
31.989559999999983,15.38021986481238,0.1253854078983245
31.99200399999998,15.393822844588197,0.1250919628149067
31.994443999999987,15.404772097311536,0.1248090448543267
31.996887999999984,15.416000889288595,0.1245197685964663
31.999348,15.42471572384004,0.1242387999882774
32.001791999999995,15.433570328018348,0.1239548722799923
32.004244,15.443775406637013,0.1236564486227341
32.00668400000001,15.451047218949483,0.1233762174918805
32.009131999999994,15.456456700142397,0.1231053827842204
32.011572,15.45478894390942,0.1228799318885092
32.014036000000004,15.450187921370247,0.1226714638673812
32.01648799999998,15.441722466965102,0.1224844868521055
32.01892799999999,15.429252811067125,0.122322028731147
32.021376000000004,15.422277600729196,0.1221173835339515
32.02382,15.414510994458354,0.1219134020227412
32.026272000000006,15.403019725948395,0.12172708401162
32.028716,15.391109148557858,0.1215505026721458
32.03115599999998,15.379850197473376,0.1213759733119754
32.03360000000001,15.374318009374427,0.1211708944807866
32.036044000000004,15.371299778701092,0.1209588564482863
32.03848399999998,15.362275245788508,0.1207833255076365
32.04092800000001,15.35474095694314,0.1205901364172754
32.043379999999985,15.351862495896668,0.1203748822459293
32.04581999999999,15.349775430783112,0.1201588140188001
32.04827599999999,15.34955069678911,0.1199344759494072
32.050715999999994,15.348115257981611,0.119721082945477
32.05315999999999,15.348402380666808,0.1195028367701949
32.05560399999999,15.34682717223245,0.1192930410516901
32.05805599999999,15.345531503051811,0.1190765490329726
32.06049999999999,15.348240035364004,0.1188359637816851
32.062948000000006,15.354673229915312,0.1185785755654252
32.06539599999999,15.3608268852129,0.1183273077851393
32.06783999999999,15.3707052027496,0.1180588813992164
32.07028,15.37294720435297,0.1178470162729813
32.072723999999994,15.382778300061428,0.1175988575363947
32.075164,15.396334058009,0.1173339483461348
32.07759999999999,15.41096075114321,0.1170617606269486
32.08004399999999,15.425727213904278,0.1167866905393105
32.082492,15.442356007784907,0.1165042175702962
32.084936,15.46112667203881,0.1162079431509146
32.08738,15.485624099278244,0.1158838341972912
32.08983999999998,15.506629181704044,0.1155886961950803
32.092291999999986,15.524561228196784,0.1153128908685386
32.09474,15.541422339502889,0.1150450124244391
32.09718799999999,15.555070645249074,0.1147995044870249
32.099631999999986,15.570860821368544,0.1145399444666949
32.10208,15.584369357487873,0.1142987722208401
32.104524,15.60160255584631,0.1140421697434506
32.106976,15.621349711630364,0.1137808425324359
32.10942,15.639886162600922,0.1135300321822046
32.11186000000001,15.655489347265286,0.1132947540164877
32.114304000000004,15.676167668609118,0.1130310200808826
32.116748,15.695914824393174,0.1127717547544873
32.11918800000001,15.719666181670064,0.1124904835756824
32.121632000000005,15.737271467080843,0.1122463945669165
32.124076,15.753014421372066,0.1120103881747287
32.12652399999999,15.768198297155848,0.1117872725325413
32.128967999999986,15.781240302566353,0.1115780604329233
32.13141999999999,15.79106950241694,0.1113900712244247
32.13387599999999,15.796614961520971,0.1112300214741655
32.13632799999999,15.797225053572395,0.111095130229034
32.138768,15.79797491525068,0.1109568127306261
32.141215999999986,15.804079452862156,0.1107844327351038
32.14365999999998,15.810183990473632,0.1106122177459231
32.14611199999999,15.82057226883166,0.1104131064598111
32.148551999999995,15.83161217349575,0.1102173252514617
32.15099999999998,15.84186068222692,0.1100221244932144
32.15343199999998,15.847034054278614,0.1098546163981371
32.155876000000006,15.849553699277834,0.1096951589406923
32.15832399999999,15.856217315396751,0.109512256361252
32.16076799999999,15.862601392261944,0.1093354632969499
32.163219999999995,15.86498126763431,0.1091796746409976
32.165651999999994,15.869503013379948,0.1090109118756506
32.16810799999999,15.870160327259615,0.1088593641906007
32.170556000000005,15.87095741076614,0.1087046046156328
32.173,15.876270552444694,0.1085357050429639
32.17544799999999,15.884424412630832,0.1083385945060627
32.177903999999984,15.898584575056216,0.1081118693822859
32.18036000000001,15.911953341548683,0.1078851985018647
32.182796,15.929466079160846,0.1076356108214856
32.185236,15.95298511901226,0.1073564050910163
32.18768,15.980228821102786,0.1070638114715594
32.190132000000006,15.99997597688684,0.1068174969021791
32.192576,16.018791967111117,0.1065747749489607
32.19502399999999,16.033184446961982,0.1063617053720885
32.19746000000001,16.046785530879927,0.1061497408627276
32.199899999999985,16.060386614797874,0.1059377391366849
32.20235199999999,16.077340273902596,0.1057032353674247
32.204792,16.095085328940232,0.1054686232024802
32.207232000000005,16.112038988044954,0.1052357452394625
32.20966799999999,16.13355592714995,0.1049722901882233
32.21212399999999,16.155212635881806,0.1047058577878102
32.214564,16.173656539053745,0.104458937191192
32.217004,16.20117978039799,0.1041688458126963
32.219448,16.229773956928874,0.1038728253360667
32.22189599999999,16.253712305660866,0.1035939888595865
32.224339999999984,16.27723134551228,0.1033256874274001
32.226788,16.29595478793794,0.1030772509360525
32.22922399999999,16.319893136669933,0.1028019490467208
32.231663999999995,16.340106823162813,0.1025396042187556
32.234104,16.357387243349496,0.1022905353740898
32.23655199999999,16.375226742043623,0.1020309088871026
32.239003999999994,16.395627419991605,0.1017499946450269
32.24144799999999,16.418169968312863,0.1014576096901501
32.24389199999999,16.441271595141565,0.1011534196222484
32.246340000000004,16.46157972529093,0.1008586023079396
32.248784,16.48482112174649,0.1005524824965589
32.25123199999999,16.50885391413497,0.1002471374047931
32.253675999999984,16.532886706523453,0.0999422044626858
32.25612799999999,16.551564822978737,0.0996669568754468
32.258568,16.56595919868747,0.0994160421296839
32.261008000000004,16.583147071075537,0.099156933139483
32.263452,16.6027563530906,0.09888081490513
32.26589999999999,16.61542816730664,0.0986349719182166
32.268339999999995,16.628519290403254,0.0983809361156879
32.27078,16.640446930514614,0.0981179392198287
32.27322799999999,16.64706711652103,0.0978661655917264
32.275671999999986,16.65396684178116,0.0976086399102888
32.27812,16.655279573682623,0.0973682119673384
32.280564,16.657663240770724,0.0971219183626779
32.283004000000005,16.660978073418605,0.0968732091045422
32.285436000000004,16.660800561252845,0.0966474473824678
32.287892,16.664207941699342,0.096414110553856
32.29033200000001,16.66640461733234,0.0961895232931243
32.292767999999995,16.66767012740556,0.0959674623678831
32.29521599999998,16.669866803038556,0.0957425072218181
32.297664,16.668618355686156,0.0955227240930096
32.300107999999994,16.665647346841062,0.0953055312948393
32.30256,16.662444020570497,0.0950767639067608
32.305004,16.659799772807368,0.0948359228891131
32.307447999999994,16.65650389873818,0.0945917337219629
32.309888,16.64962313205674,0.0943552826636376
32.312332,16.64074026462888,0.09412695421223
32.31476799999999,16.62985529645461,0.0939062320721754
32.317211999999984,16.620413350519314,0.0936891133118746
32.31965599999998,16.616790715368165,0.0934684855914212
32.32209599999999,16.61940669988174,0.0932358152916776
32.324539999999985,16.625467807380712,0.0929992681082019
32.32699199999999,16.634834268238215,0.0927611874910898
32.329447999999985,16.64885655689461,0.0925115410646425
32.33190399999998,16.662227219244947,0.0922593361434931
32.33434399999999,16.677879521595422,0.0919941443989061
32.336783999999994,16.689155535400722,0.0917361087637061
32.33922799999999,16.701921793273243,0.0914650727494376
32.34168399999999,16.71934387894466,0.0911827408032896
32.344123999999994,16.740630396482043,0.0908890204231837
32.346576,16.76522226737797,0.0905947704382808
32.34901199999999,16.793538800513,0.0902922611823926
32.351455999999985,16.82408975181993,0.08999493801689
32.353904,16.862369566858803,0.0896751891475924
32.35634400000001,16.90423427450993,0.0893499232021866
32.358795999999984,16.95061504033309,0.0890172400946722
32.36123999999998,16.99750766283545,0.0886910088952227
32.363691999999986,17.051477522763697,0.0883395496326033
32.36613199999999,17.10423667787844,0.0879972254027389
32.36857599999999,17.152340005194297,0.08766726954018
32.371024000000006,17.197370296577095,0.0873505798568125
32.37348399999999,17.241329652773256,0.0870405486843527
32.375939999999986,17.29129531120867,0.0867124055977907
32.37837999999999,17.338187933711026,0.0863978820463237
32.38082800000001,17.386383808825496,0.08609110261746
32.383275999999995,17.437233410992445,0.0857828246813007
32.38572399999998,17.491248596891065,0.0854778262718765
32.388172,17.543913308349325,0.0851841668787316
32.390619999999984,17.59550708462094,0.0848971325640458
32.39306399999998,17.645098760146155,0.084618391401663
32.39550800000001,17.695109744551935,0.0843334848185747
32.397952000000004,17.74325839783816,0.0840541995607637
32.40039199999998,17.792338216684172,0.0837747478307777
32.40283600000001,17.83820522997026,0.0835110317059645
32.405272,17.88421201288321,0.0832462693256753
32.407724,17.92770483837055,0.0829832854859734
32.41016399999998,17.974690008671523,0.0827034194827977
32.412608000000006,18.01967307822608,0.0824319321701017
32.41505599999999,18.06228195998188,0.0821585515474629
32.41751199999999,18.107172481737816,0.0818747994340273
32.41996799999998,18.14875765013522,0.0815902891428928
32.42240799999999,18.188899796293647,0.0813027653978359
32.424856000000005,18.221872157227573,0.0810260494865861
32.4273,18.25247033036274,0.0807473077116906
32.42974799999999,18.279902919766243,0.0804657674962757
32.432188,18.298163623198818,0.0801986067340447
32.434628000000004,18.315400613273,0.0799205199593733
32.437072,18.334919243347315,0.07963250559616
32.439516,18.351784146369155,0.0793474606332223
32.441956000000005,18.369347897525294,0.0790509233575723
32.4444,18.38332675606919,0.0787588277468711
32.446844,18.394512117933747,0.0784716788734644
32.449276,18.3985276945738,0.0781920772588481
32.45173199999999,18.398306752295536,0.0779129183161097
32.454172,18.391847190352543,0.0776393375686125
32.45661999999999,18.38538762840956,0.077365903293496
32.459063999999984,18.37348084273476,0.0770991275496283
32.461512,18.355847294074422,0.0768434589972015
32.463956,18.33956421985445,0.0765785636147324
32.466408,18.323560684888204,0.0763089970324338
32.46884,18.316636488094257,0.0760145711092242
32.471284,18.30491669387456,0.0757290721837163
32.473724000000004,18.292637821147427,0.0754531359698064
32.476168,18.28450291953998,0.0751644521869628
32.47860800000001,18.27757872274604,0.0748692724787216
32.481044,18.27572966263157,0.0745591509302296
32.48349999999999,18.271878501770683,0.0742541498635109
32.48594399999999,18.2633715131109,0.0739558604941033
32.488384,18.25435266777193,0.0736513000865861
32.490836,18.23904798093997,0.0733662198905409
32.49328,18.22453469004094,0.0730819033375317
32.495727999999986,18.20909023358213,0.072798211081102
32.49816799999999,18.201234871228408,0.0725017499773936
32.50061600000001,18.19682463186008,0.0722050107171666
32.503060000000005,18.197861616223555,0.0719029079748493
32.50550799999999,18.192380441668583,0.0716086150181905
32.507948,18.18433808785976,0.0713279630495018
32.510392,18.18029993554377,0.0710371505164149
32.51283599999999,18.17691340953383,0.0707501105098915
32.51527999999999,18.16738081165779,0.0704795569855825
32.51772,18.14970004116922,0.0702308240806786
32.520167999999984,18.13588370254662,0.0699742966196174
32.52261199999998,18.11848247131177,0.0697191875791086
32.52505199999999,18.094655628957085,0.069485213994185
32.52750799999998,18.071480412908457,0.0692546901656303
32.52994799999999,18.052681485405003,0.0690236764586861
32.532388,18.03532558014053,0.0687974730005448
32.534831999999994,18.019272927488164,0.0685783393375276
32.53727999999998,18.000659095581945,0.0683728029319209
32.53972400000001,17.98670109147461,0.068161419303843
32.542171999999994,17.972323778486704,0.0679571048398755
32.54461999999998,17.960879731804994,0.0677469125050559
32.54705999999999,17.94422077881694,0.0675516542322919
32.54951199999999,17.924768329149565,0.0673592650436831
32.55195599999999,17.902894469855188,0.0671784692761275
32.554396,17.891775288397568,0.0669927413236241
32.556836000000004,17.889316136231674,0.0667932430365974
32.55928,17.88415603518506,0.0666100934713728
32.561724,17.882720596377563,0.0664235816506207
32.564167999999995,17.886872150928735,0.0662310995589224
32.56662,17.8944688284653,0.066039638635109
32.56906000000001,17.903508528240838,0.0658537665926581
32.571516,17.916784746934688,0.065670187786173
32.57396399999999,17.93578772861407,0.0654787136997031
32.576412000000005,17.95702512846534,0.065294790859123
32.578856,17.97197668682364,0.065128730862003
32.58130800000001,17.988650806674645,0.0649637151239454
32.583752000000004,18.0101205239514,0.0647924813788445
32.58619999999999,18.038108400146594,0.0646153482200481
32.58864399999999,18.070891873767547,0.0644325650461857
32.591087999999985,18.109402110374035,0.0642432190390424
32.59353199999998,18.14921559959263,0.0640624242697656
32.59597600000001,18.191822585490563,0.0638794539337406
32.598415999999986,18.239457486239733,0.0637016977913087
32.60085999999998,18.293238458855004,0.0635107887545244
32.603308,18.347950597030053,0.0633209089335229
32.605748000000006,18.40545623188444,0.0631308726239051
32.608192,18.46896816897808,0.0629300276630453
32.61063999999999,18.52884799163122,0.0627464540297828
32.613088000000005,18.59110200208311,0.062568593056515
32.61553599999999,18.65722044440098,0.0623868575545646
32.617976,18.724130282651767,0.0622075104865184
32.620423999999986,18.798768984634496,0.0620194765160649
32.62286799999998,18.876061413669703,0.0618332014650428
32.625316,18.954564547518416,0.0616432052103645
32.627759999999995,19.038934213979516,0.0614453392550137
32.63020799999998,19.126376916373665,0.0612428006425914
32.63265200000001,19.21274868358118,0.0610448534195806
32.635096000000004,19.299911846721614,0.0608499327112257
32.63753599999998,19.380789168369077,0.0606709204614749
32.63997999999998,19.457662288523704,0.0605000918969598
32.642427999999995,19.53947077573094,0.0603233960251279
32.64487199999999,19.62607486036393,0.0601430387513486
32.64732799999999,19.711235922757947,0.0599585387194403
32.649767999999995,19.79690884183116,0.0597821496284149
32.65221199999999,19.87606360198593,0.0596108580368527
32.654664,19.950143225461225,0.0594503372168367
32.657107999999994,20.022220748190097,0.0592942294694956
32.65955199999999,20.09699921979969,0.0591251904812204
32.662004,20.17126583473009,0.0589514547948765
32.664439999999985,20.24087662186159,0.0587814870685228
32.66689199999999,20.31197765306032,0.0586037584662169
32.669340000000005,20.372556323847757,0.058436632921403
32.671784,20.429550102022944,0.0582704040432893
32.67422399999998,20.48174828277238,0.0581093732437465
32.67666800000001,20.534505542029255,0.0579413766697523
32.679112,20.583398369420163,0.0577783414249582
32.68155199999998,20.63056863531837,0.0576148833604034
32.684,20.676435648604464,0.0574450493606526
32.686443999999995,20.72686594189083,0.0572617641806783
32.68887999999998,20.77785531368464,0.057070993183873
32.69133600000001,20.8206039650673,0.0568828625672326
32.693775999999986,20.854972126411955,0.0566989903373248
32.69621599999999,20.884544690330863,0.0565193142239837
32.69865999999999,20.905876533838622,0.0563415681454228
32.701108000000005,20.931492118092937,0.0561547651504918
32.703552,20.951008852309386,0.0559644432889777
32.70600400000001,20.969082564286857,0.0557692455038972
32.708448000000004,20.980218808465303,0.0555826922788512
32.710892,20.9860475985388,0.0553943650587057
32.71333200000001,20.991736618985424,0.0552081742611335
32.715779999999995,20.993421437939222,0.0550276158599883
32.71822,20.99752766652002,0.0548381948872985
32.72065999999998,20.99776946323485,0.0546519541041382
32.723119999999994,20.99642846808384,0.0544620689525793
32.72556,20.987218839574016,0.0542806435347901
32.728004,20.97428454882508,0.0541002167772835
32.730456000000004,20.957625595837037,0.0539207329209174
32.73290399999999,20.937241980609876,0.0537422600133518
32.735359999999986,20.912202537583827,0.053565039369458
32.73779999999999,20.88222772750516,0.0533926844795458
32.74023599999998,20.853044313359412,0.0532217145078168
32.74268000000001,20.825723230333224,0.0530498586701706
32.745136,20.80068378730717,0.0528711301956056
32.74758,20.77164014278829,0.0526964443762266
32.750035999999994,20.73365692972396,0.0525312924600582
32.75247999999999,20.697256508525467,0.0523689837391293
32.75492,20.65564118102064,0.0522151794413428
32.757363999999995,20.612023752769392,0.0520629776505882
32.75980799999999,20.567987015637566,0.0519161682097534
32.762248,20.51529024921402,0.0517743923257456
32.764692,20.460731151670917,0.0516323892389246
32.76714799999999,20.40496134931431,0.0514939971367164
32.769588,20.349471086211423,0.0513508026547216
32.772032,20.29477221904146,0.0512087736099055
32.774484,20.236860546311576,0.051072446417657
32.776928,20.17373396727536,0.0509442578778453
32.779375999999985,20.10660318674631,0.0508198965438292
32.781824,20.03518866547071,0.0507034674066063
32.78426400000001,19.95841946826192,0.0505971915217397
32.786708000000004,19.88151050142626,0.0504921296783522
