Time,Force,Position
32.147448,15.466633695664482,0.1316710599822715
32.149832,15.46570632182044,0.1315712403276721
32.152228,15.46994663245449,0.1314520797279995
32.154616,15.476700900514157,0.1313248500562024
32.157,15.490252866745989,0.131156759042081
32.159396,15.506318790403435,0.1309806822397665
32.161784,15.524247045180438,0.1307941224455887
32.164164,15.546831127756336,0.1305833738831342
32.166564,15.570858232571206,0.1303732099220002
32.168952,15.589251122199164,0.1302110335873608
32.171336,15.608854716640623,0.1300370862741756
32.173748,15.62910993738814,0.1298653429259573
32.176136,15.654812381867462,0.1296680634550932
32.178516,15.682097618212625,0.1294692370272884
32.180928,15.71296774717004,0.1292544793335636
32.183316,15.743418567246872,0.1290497888983516
32.1857,15.771727516950428,0.1288623599680088
32.188096,15.80119994963924,0.1286823777745378
32.190488,15.833605648634244,0.1284854428221427
32.192868,15.869084383562306,0.1282673478735839
32.195264,15.89506447143748,0.1281188537591976
32.197656,15.9191822281931,0.1279805129752669
32.200036,15.938224848269249,0.1278761806020266
32.202448,15.958058864278312,0.1277708208713397
32.204836,15.973748909167684,0.127694599155275
32.207216,15.989950810736255,0.1276237277008127
32.209616,16.01267087122327,0.1275208444305106
32.212004,16.03296952208329,0.1274406513633043
32.214384,16.054850964809148,0.1273581509232977
32.21678,16.083530105707172,0.1272370432069837
32.219168,16.114723204030813,0.1271091002979447
32.221548,16.146428159033647,0.1269866571812368
32.223944,16.17641055254379,0.1268711036008188
32.226332,16.204251075680652,0.1267718264952035
32.228716,16.23274322512357,0.1266749714831227
32.231112,16.266822367925162,0.1265520680096322
32.2335,16.302484302592593,0.1264271060354541
32.23588,16.341079503566213,0.1262866949398847
32.238276,16.38204889233859,0.1261441135343945
32.240664,16.426183864842642,0.1259975733357538
32.243044,16.48004980182505,0.1257981260913356
32.24544,16.5354985306733,0.1255970038178358
32.247828,16.59639448325336,0.1253737104705802
32.250212,16.658873227699253,0.1251494284505774
32.252608,16.725728260690325,0.1249110608437512
32.255,16.795516559987583,0.1246585351865167
32.25738,16.860509261859093,0.1244322482037651
32.259776,16.926433129290384,0.1242020587343851
32.262168,16.994359097468088,0.1239626393645006
32.264548,17.060143195272516,0.1237390975266762
32.266944,17.12806916345022,0.1235035312962603
32.269332,17.20013910274762,0.1232447878902154
32.271712,17.27286066835108,0.1229895002278289
32.274112,17.340646866901917,0.1227597077381642
32.2765,17.407129812840648,0.1225272479189754
32.278884,17.468305304674427,0.1223147441572092
32.28128,17.534044076508483,0.1220713736360467
32.283672,17.598339826103565,0.1218294684153416
32.286052,17.65560556010099,0.1216112464163453
32.288448,17.71184758074003,0.121385304349642
32.290836,17.765063787274254,0.1211626125496862
32.29322,17.82004977712942,0.120920634651967
32.295616,17.87294111843955,0.1206775399281793
32.298004,17.92280664564487,0.1204363391790886
32.300388,17.970577524305153,0.1201938741826494
32.302784,18.014251653673984,0.1199600255875928
32.305172,18.059276257483173,0.1197146878656253
32.307556,18.10206644312047,0.1194693895724667
32.309952,18.14276198021274,0.1192229725027799
32.31234,18.183504739133248,0.1189614312182306
32.314724,18.220010979135445,0.1187111538581799
32.31712,18.251349534659557,0.1184757017012382
32.319512,18.279522506451983,0.1182439789182
32.321892,18.318404830110804,0.1179497869015151
32.324288,18.3594290241429,0.1176443625589476
32.32668,18.401943462242212,0.1173251119024781
32.32906,18.431142043250915,0.1170612018049395
32.331456,18.45568479646072,0.1168152792814842
32.333844,18.483719894484164,0.1165453184412733
32.336224,18.50817009989536,0.1162873563254986
32.33864,18.531828909373637,0.1160311460162471
32.341028,18.549900725493234,0.1157963279908375
32.343408,18.564387649000583,0.1155727860966542
32.345804,18.57915411176165,0.115344105245496
32.348192,18.591266847470248,0.1151233046790023
32.350576,18.603659122432564,0.1148973504164801
32.352972,18.6158190799694,0.1146619460880115
32.35536,18.632402547879654,0.1144002996693992
32.357744,18.64512158392393,0.1141550284964272
32.36014,18.65490735366201,0.1139225665782748
32.362532,18.661759857093905,0.1137025444971424
32.364916,18.66661025977937,0.1134917649645132
32.367312,18.673602532838125,0.1132692028363856
32.3697,18.670863841418512,0.1130880671511507
32.37208,18.6664025885062,0.1129111517877842
32.374476,18.65872853003397,0.1127518857321192
32.376864,18.66171660159989,0.1125489621178483
32.379244,18.66605514760617,0.1123346112022684
32.38164,18.6693227584258,0.1121264887730028
32.384028,18.67366130443207,0.1119125824488913
32.386412,18.677860080811488,0.1117017624312263
32.388808,18.681919087564044,0.1114933089759475
32.391196,18.686909259876373,0.1112815253415439
32.39358,18.69348222405454,0.1110691687901409
32.395976,18.697913317859435,0.1108681266282393
32.398364,18.70313580759724,0.1106669048057969
32.400744,18.70472618289456,0.1104910646387482
32.40314,18.707107954124787,0.1103156068387035
32.405532,18.710001582034213,0.110144797615183
32.407912,18.71941336886209,0.1099529343210173
32.410308,18.7362744801682,0.1097370488005852
32.412696,18.756860253713416,0.1095092299925672
32.41508,18.77916858875133,0.1092789840628259
32.417496,18.804922046774635,0.1090419050432493
32.419884,18.83039596554422,0.1088107912769652
32.422264,18.85880315062,0.1085681945833966
32.42466,18.885068465322508,0.1083381612423249
32.427048,18.91678100375682,0.1080941754818307
32.429428,18.95072796036303,0.1078526305569011
32.431828,18.984115838461797,0.1076217954370417
32.434216,19.01601347249334,0.1074045912273495
32.436596,19.055220661376254,0.1071677823035116
32.438996,19.09638272917734,0.1069380610393718
32.44138,19.137265257724707,0.106714443894236
32.443764,19.18773898112358,0.1064583638942531
32.44616,19.239655726761423,0.1062054880482314
32.448548,19.29622830019817,0.1059388651516177
32.450928,19.34902898956755,0.1056999286320287
32.453328,19.408627377109102,0.1054377459826255
32.455716,19.463942023904096,0.1051983353574625
32.458096,19.5180459658856,0.104968744836349
32.460492,19.57401223898665,0.1047353538303223
32.46288,19.62862803764735,0.1045134807084316
32.465264,19.68589756336052,0.1042872171264732
32.46766,19.744330572058946,0.1040688123491747
32.470048,19.80821080448918,0.103838941725309
32.472432,19.871392188785112,0.1036222038854111
32.474828,19.931220997894275,0.1034246989759279
32.47722,19.99198097256321,0.1032259724444037
32.4796,20.0575365446579,0.1030131054140267
32.481996,20.12602538305878,0.102790782748645
32.484384,20.1877165232875,0.1025922351409075
32.486768,20.254110713143348,0.1023683975202043
32.489164,20.322507003745617,0.1021385501328323
32.491552,20.383826056922,0.1019373207603133
32.493932,20.44528487972524,0.1017349690166801
32.496328,20.509025342528613,0.1015223953407754
32.498716,20.573045344585708,0.1013054438701951
32.501096,20.6321299795902,0.1011068376102079
32.503492,20.6914941538484,0.1009040154835676
32.50588,20.744340169188156,0.1007183338847107
32.508264,20.79504431415463,0.1005432514787132
32.51066,20.84588822874797,0.1003665927693042
32.513048,20.89608051703525,0.1001888769841691
32.515428,20.947251192710556,0.0999959880452312
32.517824,20.992974644654048,0.0998161618740174
32.520216,21.04046787991848,0.0996210389257497
32.522596,21.08838042406349,0.0994197943110732
32.524992,21.13284784522311,0.0992239101707676
32.52738,21.174661539330256,0.0990337609061457
32.529764,21.21396127601179,0.0988464208474653
32.53216,21.25675335750696,0.0986414330348585
32.534552,21.291816575270172,0.0984597344098121
32.536932,21.324505605234645,0.0982788084325725
32.539332,21.35882464889319,0.098084788985332
32.54172,21.389698569566345,0.0978955457645971
32.5441,21.413914561694188,0.0977243799855598
32.546496,21.43468543083664,0.0975573528669734
32.548888,21.45401327774011,0.0973880974951999
32.551272,21.474551829457084,0.0972126926258163
32.553668,21.50244715785367,0.0970092906579728
32.556056,21.52717690251858,0.0968057609122405
32.558436,21.54645942345168,0.0966127556103248
32.560836,21.562296821399396,0.0964242391182763
32.563224,21.574409557107987,0.0962446145725868
32.565604,21.584939500950743,0.096064937181259
32.568004,21.59109315624833,0.0958915506327054
32.570392,21.59380168856053,0.0957221703135716
32.572772,21.59478765938003,0.0955546588164808
32.575168,21.59311990314705,0.0953912698620042
32.57756,21.59266285172757,0.0952215656056949
32.57994,21.58941230362876,0.0950581433570481
32.582336,21.591236892209416,0.0948781482064003
32.584728,21.58719494817769,0.0947144700564887
32.587108,21.58236160821304,0.0945507434865622
32.589508,21.577668037875256,0.0943847419551172
32.591896,21.575116337910742,0.0942102733174734
32.594276,21.577500004998843,0.0940214673182849
32.596672,21.576019240220965,0.0938424285440086
32.599064,21.572955683577256,0.0936632148537082
32.601444,21.563094428761374,0.0935022962760564
32.60384,21.55402456987842,0.0933414296601119
32.606232,21.55096101323471,0.0931621727538165
32.608612,21.54496419028481,0.0929906638835772
32.611012,21.536173870655567,0.0928247081563419
32.6134,21.526312615839693,0.0926627150348598
32.61578,21.5173825265836,0.0924986072609171
32.61818,21.51138570363369,0.0923264831687865
32.620568,21.510743556616976,0.0921340056514991
32.622948,21.5094497832942,0.0919389293282399
32.625348,21.50443134773232,0.0917513910044005
32.627736,21.503417113663275,0.0915522025182139
32.630116,21.49532564216834,0.0913748656602245
32.632512,21.49431140809929,0.091175550322936
32.6349,21.49194669958988,0.0909846538570184
32.637284,21.49037338701339,0.0907940908447957
32.63968,21.48866030481004,0.090605799411142
32.642072,21.483222560367576,0.0904249444825145
32.644452,21.485513679657057,0.0902250270473984
32.646848,21.48258989264021,0.0900426248153765
32.64924,21.482319832675834,0.0898567812030177
32.65162,21.48326047752496,0.0896648147868693
32.654016,21.48313018718744,0.0894772115941483
32.656408,21.48951805576837,0.0892770898085097
32.658788,21.499211277707847,0.0890760825435155
32.661184,21.510766830766865,0.0888714984087492
32.663576,21.525907276438144,0.0886624659634785
32.665956,21.540768182855707,0.0884582425002216
32.668352,21.54971533483263,0.0882824926795277
32.67074,21.561967840168084,0.088106437419454
32.673124,21.57766546848893,0.0879277793886516
32.67552,21.588008420876584,0.0877687986708578
32.677908,21.601703948451014,0.087595835234366
32.680292,21.61376946233137,0.0874357856799586
32.682688,21.627697307331275,0.0872724714181969
32.685076,21.641625152331187,0.0871093518030246
32.68746,21.65569276695796,0.0869443112352542
32.689856,21.6753473749434,0.0867696653336555
32.692244,21.69206871662264,0.0866026596507991
32.694628,21.720662893153523,0.0864057118771231
32.697024,21.751910796736883,0.0862065835949557
32.699412,21.78646405367877,0.0860081394098112
32.701796,21.821668936926724,0.0858130031461991
32.704192,21.855291028308837,0.0856177422062684
32.70658,21.894407565251004,0.0854030141921716
32.708964,21.93445526775295,0.0851872444116703
32.711364,21.96835689838878,0.0849895080816459
32.713752,21.99918549309156,0.0848007767404032
32.716136,22.03243549742133,0.0846005389456341
32.718536,22.063962940258413,0.0844018293603302
32.720924,22.09670108790899,0.0841980801888599
32.723308,22.131441336305983,0.0839891888980578
32.725704,22.17055787324815,0.0837776565107756
32.728092,22.211024884630675,0.0835590976057758
32.730476,22.25191120489378,0.0833350376243946
32.732872,22.29573079146308,0.0831052946952529
32.73526,22.34127293952508,0.0828754084752965
32.737644,22.384021590907743,0.0826510880029923
32.74004,22.428772343036822,0.0824225484726627
32.742428,22.47072959848657,0.0822003939822291
32.744808,22.510172896510703,0.0819791791452338
32.747208,22.5463108411763,0.0817583877990348
32.7496,22.580074598043147,0.08153622670115
32.75198,22.61448998121605,0.0813174928329322
32.754376,22.640477652522694,0.0811243416265202
32.756764,22.66753625901599,0.0809284338607254
32.759148,22.69994954144247,0.0807159355510696
32.761548,22.73664656461551,0.0804904074719914
32.763936,22.7752059189081,0.0802628158634025
32.76632,22.812973877267776,0.0800348658962138
32.768716,22.84701717338834,0.0798126432697865
32.771104,22.88040884320285,0.0795879797113445
32.773488,22.909936081151383,0.079371235089255
32.775884,22.93680959204744,0.0791568974284522
32.778272,22.962472398130004,0.0789482629502817
32.780656,22.984270772346584,0.0787471789072976
32.783052,23.002344484324052,0.0785513752216898
32.785444,23.018416095555114,0.0783602908614158
32.787824,23.030623274920195,0.0781763721402548
32.790224,23.03295972018005,0.078012727946601
32.792612,23.03450476950699,0.0778484058947618
32.794996,23.032837013274012,0.0776935475561751
32.797396,23.03410252334724,0.0775332674696096
32.799784,23.03378524155461,0.0773717025592572
32.802168,23.03696030457564,0.0771966225166732
32.804564,23.036410705357543,0.0770264186788312
32.806952,23.03371923576617,0.0768627088646847
32.809336,23.03023637024188,0.0766985053123004
32.811736,23.02638141766525,0.0765279549919782
32.81412,23.02545973139482,0.0763521973138113
32.816504,23.02854224661722,0.0761681742373863
32.8189,23.038841768892368,0.0759673120745648
32.821288,23.047698268928546,0.0757628887967983
32.823672,23.056554768964716,0.0755585291722975
32.826068,23.064759642694835,0.0753515169745112
32.828456,23.073383825305527,0.0751387671454888
32.830836,23.086291748662774,0.0749142788593705
32.833232,23.101621081647025,0.074680276923356
32.835624,23.12230509056447,0.0744318873573858
32.838004,23.1500663369078,0.074168267550621
32.8404,23.17955014474383,0.0739049121281875
32.842788,23.21317792369955,0.0736318003803101
32.845172,23.242661731535577,0.0733690102304909
32.847568,23.270934834558105,0.0731113416875192
32.849956,23.300278872767265,0.0728513787125606
32.85234,23.33176478134971,0.0725858515393524
32.854736,23.3625990636261,0.0723178013887825
32.857124,23.388497978849863,0.0720586047470533
32.859508,23.41239479332722,0.071803798262898
32.861904,23.434429276685023,0.0715515468157205
32.864292,23.45418212004268,0.071307448437729
32.866676,23.46350515078768,0.0710883809203375
32.869072,23.474690512652234,0.0708675261928903
32.87146,23.488809140822983,0.0706424228472414
32.873844,23.503858934553516,0.0704166152230129
32.87624,23.5195603545901,0.0701938797132719
32.878628,23.52911570276058,0.0699841150056203
32.881008,23.53517870611742,0.0697865103953385
32.883408,23.53788913428749,0.0695994660132036
32.885796,23.535384656151223,0.0694241193935942
32.888176,23.53008668133561,0.0692513498079951
32.890576,23.52185544021382,0.0690829849484767
32.892964,23.51562629983844,0.0689109767087425
32.895348,23.508605763530134,0.0687377846707119
32.897744,23.49837242166192,0.068572656597256
32.900132,23.487719770913124,0.0684131385613966
32.902516,23.48000038647052,0.0682494126637376
32.904916,23.47693682982681,0.0680815302415809
32.907304,23.474385129862306,0.0679184480387864
32.909688,23.46969155952452,0.0677606045503068
32.912084,23.467419398813725,0.0675939836285498
32.914472,23.468360043662848,0.0674192029877865
32.916856,23.470092084444893,0.0672457024375835
32.919252,23.466469449293736,0.0670852877442932
32.92164,23.461496339702222,0.0669311740795102
32.924024,23.455312525297217,0.0667814880356678
32.926424,23.45592640906437,0.0666229158885557
32.928812,23.461755199137876,0.066453469783868
32.931192,23.46665282365159,0.0662848250360134
32.933592,23.479558851150973,0.0661032199699861
32.93598,23.495398144956557,0.065917801519708
32.938364,23.51496210100124,0.0657298103126189
32.94076,23.534386287419075,0.0655438924274143
32.943148,23.56060817200908,0.0653500717088338
32.945532,23.591485884397965,0.0651531983921027
32.947928,23.62343453197349,0.0649542328922992
32.95032,23.654172474735528,0.0647602668445944
32.9527,23.68463087824384,0.0645703858208418
32.9551,23.713087181005736,0.0643836963604269
32.957488,23.74554768526046,0.0641911366098769
32.959872,23.77530724063447,0.0640112460864557
32.962268,23.80706889675489,0.0638286612518536
32.96466,23.84125196250232,0.0636384382638219
32.96706,23.882512265675626,0.0634371395767112
32.96946,23.930058410341907,0.0632240972253934
32.971848,23.983890396501163,0.0629994715200321
32.974228,24.037442843406694,0.0627795474264797
32.976624,24.08349874400576,0.0625763993180435
32.979012,24.132208371657303,0.062373837733773
32.981392,24.17742565449521,0.062182706518402
32.983792,24.22036129733297,0.0619983986476672
32.98618,24.261434609051182,0.0618157574609098
32.98856,24.30143698558275,0.0616356289267081
32.990956,24.335433059875072,0.0614647092039603
32.993344,24.3677065726747,0.0612936698392364
32.995724,24.401842416593883,0.0611222286327234
32.998124,24.434767555699565,0.0609551466530669
33.000512,24.47104526999202,0.0607802686697396
33.002896,24.51211858171023,0.0606015139872916
33.005296,24.55277258454786,0.0604286424691866
33.007684,24.595847997012484,0.0602483190283906
33.010064,24.640506201342948,0.0600712374512187
33.012464,24.68218391753897,0.0599096255760342
33.014852,24.721859532988574,0.0597514711637342
33.017232,24.758182573251407,0.0596024036433769
33.019632,24.79236374314096,0.059458571805493
33.022016,24.82174931560476,0.0593188415751155
33.0244,24.86156470068123,0.0591616530643568
33.0268,24.9025907905712,0.0590013441740848
33.029188,24.94310502378196,0.0588366773811249
33.031568,24.98562135773915,0.0586697717911346
33.033964,25.02785815244261,0.0585065564824132
33.036352,25.075170083825554,0.0583368696928882
33.038736,25.126346447074464,0.0581644776495614
33.041132,25.176731414390456,0.0579913318196584
33.043524,25.224322885027117,0.057819937295172
33.045904,25.27405622603705,0.0576449339917127
33.048304,25.31457045924782,0.0574834730528538
33.050692,25.35429329652567,0.0573213387260964
33.053072,25.39257311156455,0.0571553340343556
33.055472,25.42670895548373,0.0569959890347469
33.05786,25.45991363384313,0.0568375397652491
33.06024,25.49181505959041,0.0566732859077517
33.06264,25.52171438459128,0.0565117297778342
33.065028,25.54667834253954,0.0563551832705685
33.067408,25.565635998248545,0.0562056968167002
33.069804,25.584733423584407,0.0560544694264478
33.072192,25.593820345188195,0.0559148568873534
33.074576,25.59583002936609,0.0557839776005598
33.076976,25.596768778357344,0.0556550677262545
33.079364,25.597987066602325,0.0555230328711837
33.081748,25.603628865220717,0.0553819580079901
33.084148,25.60354390085357,0.0552443637492086
33.086536,25.59759240387404,0.0551116878546936
33.08892,25.59243230282743,0.0549804775342729
33.09132,25.588203367340597,0.0548491029166372
33.093708,25.58024976961464,0.0547187492202083
33.096092,25.58151527968786,0.0545764210851452
33.098492,25.57919589714883,0.0544334893103605
33.10088,25.575805579423157,0.0542924298592688
33.103264,25.57455713207076,0.0541476131559451
33.10566,25.56879262654633,0.0540022636626099
33.108052,25.563028121021908,0.05385685220081
33.110436,25.55661198919142,0.0537083855363884
33.112832,25.552757036614796,0.0535512109916124
33.115224,25.551043954411448,0.053390212035972
33.117608,25.55347484332779,0.0532236647759448
33.120008,25.560841099296745,0.0530528429957762
33.122396,25.571420160825618,0.0528763777882434
33.12478,25.582278761608208,0.0526966928263127
33.12718,25.590855722390664,0.0525223755226551
33.129572,25.590213575373955,0.0523593687990971
33.13196,25.590502593917016,0.0521961103247929
