Time,Force,Position
31.339372,16.032294833506118,0.1556513357149211
31.341776,16.06838176462773,0.1553009477906343
31.344164,16.091107512688357,0.1550124500247588
31.346544,16.11155162074884,0.1547477880804476
31.34894,16.136417343324876,0.1544927680770204
31.351328,16.176040049372634,0.1541956243307788
31.353708,16.22809087706373,0.1538977980526331
31.356104,16.289496790465122,0.1536217092916591
31.358492,16.36193502509912,0.1533279427640355
31.360872,16.443078614995216,0.1530058661627654
31.363268,16.53595527011609,0.1525994165002502
31.365656,16.628926368893456,0.1521623400384373
31.36804,16.72166704610321,0.1516704530558148
31.370436,16.808869847640405,0.1511551534691015
31.372824,16.887229420146518,0.1506276248245165
31.37522,16.954277132166297,0.1501281346943401
31.377616,17.013969963364335,0.1496414824883308
31.38,17.069566045270918,0.1491711056989393
31.382384,17.12166978236387,0.1487341199336535
31.38478,17.170373722441802,0.1483436594621162
31.387168,17.21749297479603,0.1480066873424708
31.389552,17.26046636017269,0.1477501720362867
31.391948,17.31065485674423,0.1474868898303133
31.394332,17.361028448913007,0.1472519111073292
31.396712,17.413404141828202,0.147005004058411
31.399104,17.45996052395925,0.1467823688925405
31.401492,17.499813651574616,0.1465717538276971
31.403868,17.536735408741656,0.1463334431138286
31.406268,17.56765275952731,0.1460908866729773
31.408652,17.59028406393145,0.1458630905085573
31.411032,17.60500140900641,0.1456583540769916
31.413448,17.6118973425508,0.1454888612537044
31.427792,17.541661471123412,0.1453736050244005
31.430176,17.534074272876193,0.145371334445385
31.43256,17.532353607241365,0.1453318486382744
31.434964,17.53161132899456,0.145270594545029
31.437348,17.53762142294955,0.1451371612095753
31.439728,17.53916268056075,0.1450098948375887
31.442136,17.540518842574716,0.1448558774170572
31.444524,17.534984758617895,0.144730597496636
31.446904,17.52828719167582,0.1446000754076502
31.4493,17.51907566730813,0.1444784970690234
31.451688,17.509444834059863,0.1443660492394486
31.454068,17.499115152677287,0.1442689055109977
31.456464,17.496095026146087,0.1441342693666155
31.458852,17.491816972973137,0.1440273003909599
31.461232,17.49312591315886,0.1438900704652804
31.463628,17.501464868942232,0.1437219166461267
31.466016,17.515530587711133,0.1435200253414023
31.468396,17.533600507972867,0.1432918699917659
31.4708,17.55073926267482,0.1430686876211666
31.473188,17.574583167750326,0.1427912273675922
31.475568,17.600196856146777,0.1424913664880809
31.477972,17.623156817490745,0.1422045279804076
31.480356,17.643742591035966,0.1419244399808759
31.48274,17.66539929976782,0.1416369909417218
31.485136,17.680350858126122,0.1414041162455518
31.487524,17.702239884283458,0.1411290083291705
31.489904,17.724640767119986,0.1408588587913443
31.4923,17.75062654256877,0.1405723945249042
31.494688,17.773771599509974,0.1403162730040593
31.497068,17.801153175369492,0.1400452582017796
31.499472,17.832259413468122,0.1397558099583808
31.50186,17.864576356380248,0.1394557272646399
31.50424,17.89330840668012,0.1391734102113626
31.506636,17.925160714741295,0.1388548683160586
31.509024,17.95114649019008,0.1385713185091426
31.511404,17.96968294116064,0.1383259747419102
31.513808,17.987707535452,0.1380768993173828
31.516196,17.998282805265134,0.1378651879257482
31.518576,18.008346218399065,0.1376489613744982
31.520972,18.011472163733973,0.137475180539644
31.52336,18.007660641269847,0.1373432542955479
31.566376,17.32600644111296,0.1372457832045097
31.568756,17.282438130547828,0.1372134074257839
31.571160000000003,17.244736352595083,0.1371464117502046
31.573548,17.21196994169496,0.1370495725384786
31.575928,17.177341199675272,0.1369618585098465
31.578332,17.145226415081204,0.1368655858714564
31.58072,17.116696523099385,0.136753080302869
31.5831,17.09845667410337,0.136571435528041
31.585496,17.07751587622664,0.1364173748894196
31.58788,17.06067182764136,0.1362516342543653
31.59026,17.044292413907037,0.136107045770894
31.592656,17.03666557726305,0.1359271804982184
31.595044,17.033694568417957,0.1357232153907714
31.597428,17.032957977744765,0.1355174037548221
31.599824,17.03538697080324,0.1353044197662294
31.602212,17.045544827593663,0.1350467665993829
31.604592,17.060218742556113,0.134768656512722
31.606988,17.077406614944177,0.1344828465203528
31.609376,17.094966574384586,0.1342049453161205
31.611756,17.10982558494427,0.133955114523501
31.614152,17.12198364662324,0.1337333273435332
31.61654,17.128926801995874,0.1335475856888822
31.61892,17.135310878861073,0.1333746117523086
31.621324,17.144208913151886,0.1331941636704679
31.623712,17.151197394494893,0.1330393116631435
31.626096,17.157347258076744,0.132903131616236
31.628492,17.163729439084072,0.1327779479731989
31.63088,17.166991362330094,0.1326902384415822
31.63326,17.17425748706896,0.1325778235258126
31.63566,17.1824547773676,0.1324609697387495
31.638044,17.19521534766651,0.132307836453487
31.640428,17.205182421286093,0.1321688671262042
31.642824,17.21552158195801,0.1320377848704735
31.645212,17.225860742629926,0.1319070139115142
31.647592,17.240204104794678,0.1317524322110928
31.649996,17.25319699251907,0.1316119847552352
31.652384,17.263908240243325,0.1314899359273313
31.654764,17.275922740579695,0.1313715637451336
31.65716,17.288588867222124,0.1312549448840564
31.659548,17.306050591290305,0.1311134078299801
31.661932,17.329099308717154,0.1309457525025633
31.664328,17.35866618506245,0.1307476872275804
31.666716,17.38930399659439,0.1305429880314239
31.669096,17.419662268872607,0.1303452755950675
31.671492,17.462172915256183,0.1300756994646344
31.67388,17.505102870520343,0.1297972833203136
31.67626,17.55217679690419,0.1294945789965958
31.67866,17.599390492914903,0.1291895648177656
31.681048,17.648326750418313,0.1288805952551463
31.683444,17.698054403854638,0.1285714851144981
31.68584,17.744289712477332,0.1282915978511102
31.688228,17.795460388152634,0.1279868500374412
31.690608,17.85026317826843,0.1276542418561334
31.693004,17.906928299503786,0.127315044231267
31.695392,17.964384816672062,0.1269773674238968
31.697776,18.023191808280696,0.1266284950603264
31.700172,18.085071835822387,0.1262631641368918
31.70256,18.142435805192044,0.1259156071567237
31.70494,18.20329211937533,0.125543850776049
31.707344000000003,18.27029450542474,0.1251419230233192
31.709728,18.338787135541363,0.1247287540735988
31.712112,18.40355510341887,0.1243330679756368
31.714516,18.4673919057366,0.1239427646016679
31.7169,18.53029754249455,0.1235575492238385
31.71928,18.5853345458937,0.1232145154576022
31.721672,18.64544668597232,0.1228465146061904
31.72406,18.698900897505624,0.1225090121399839
31.72644,18.75063254754624,0.1221765501479019
31.728844,18.79957070090752,0.121856470145215
31.731228,18.84906793277624,0.1215270271401456
31.733612,18.898193077592616,0.121190972483816
31.736008,18.94159145942347,0.1208813385996957
31.738392,18.980706100507764,0.1205987356610697
31.740776,19.01730678416645,0.120322651180649
31.74318,19.048600013720183,0.1200635633100439
31.745564,19.079893243273915,0.1198057311111671
31.747944,19.10839297614832,0.1195594683880499
31.750348,19.143318320142544,0.1192767824692973
31.752736,19.16837293003155,0.1190400625708506
31.755116,19.1778300428298,0.1188734417686058
31.75752,19.17862712633633,0.1187438227411912
31.759908,19.17970374909657,0.1186089334551703
31.762284,19.179477119244705,0.1184704043347456
31.76468,19.17994933752713,0.118318788120327
31.767068,19.183634361369485,0.1181492540196777
31.769448,19.182663557412937,0.1179972980845997
31.771848,19.18518509827003,0.1178220271243531
31.774236,19.189988279127263,0.1176322237164134
31.776616,19.198283804798127,0.1174197267378015
31.77902,19.20443746009571,0.1172195777992761
31.781408000000003,19.20872878427374,0.1170260446244305
31.783788,19.21488243957133,0.1168260013565022
31.786192,19.22145540374949,0.116618271123593
31.78858,19.230170238300943,0.1163992187620524
31.79096,19.240747403971945,0.1161735910608215
31.793364,19.247460137776976,0.1159638524043237
31.795748,19.25338147564909,0.1157548254107366
31.798132,19.25422767684172,0.1155703396443702
31.800528,19.264013446579806,0.1153461682860895
31.802912,19.282599015236475,0.115084515154586
31.805296,19.3059801813189,0.1148038716365749
31.807692,19.333365548894157,0.1145063778298883
31.81008,19.360191837961967,0.1142193617809107
31.81246,19.3890202277762,0.1139248611990962
31.814864,19.411050919418265,0.1136580199669298
31.817252,19.4328020718066,0.1133967305298241
31.819632,19.44812761307511,0.1131696377809043
31.822028,19.46345315434362,0.1129431800814182
31.824416,19.472492854119164,0.1127486644310951
31.826796,19.480741157961784,0.1125547659407884
31.829204,19.492853893670382,0.1123461095257371
31.831588,19.50338383751314,0.1121387509875499
31.833972,19.51670727803523,0.1119228218509092
31.836368,19.52574697781077,0.1117296058670286
31.838756,19.537719943892505,0.1115252862433548
31.841136,19.55369711146707,0.1113040217485649
31.843536,19.57260754534784,0.1110716489861158
31.845924,19.593240540721297,0.1108361037318737
31.848304,19.611871435348338,0.1106100013360594
31.8507,19.630502329975386,0.1103847589242709
31.853088,19.648993454975567,0.110162579044487
31.855468,19.66520293997561,0.1099548706220618
31.857864,19.686627331281997,0.1097233752920198
31.860252,19.703488442588093,0.1095189434473756
31.862632,19.727007482439507,0.10929209060376
31.865032,19.751597457477555,0.1090603552455669
31.867416,19.78806026736725,0.1087827407584351
31.869796,19.82438330763008,0.108508549716858
31.872196,19.865781484572388,0.1082131127458918
31.87458,19.91411712931372,0.1078925061028013
31.87698,19.95923996849514,0.1075884161379379
31.879376,20.00608536916925,0.1072819395278432
31.88176,20.048135172417616,0.1069925974072846
31.884144,20.09418917715881,0.1066878019020918
31.88654,20.139312016340224,0.106387516683676
31.888928,20.18415531626792,0.1060935006000822
31.891308,20.22485464507593,0.1058180550727845
31.893704,20.264902347577877,0.105541155295016
31.896092,20.3029479493334,0.105272482656014
31.898476,20.33419585291676,0.1050271757031519
31.900872,20.36772539650025,0.1047704347740802
31.903264,20.39566794672508,0.1045295510389324
31.90564,20.417604194710652,0.1043123782134759
31.908036,20.440890917136592,0.1040854288965082
31.91042,20.45938204213677,0.1038743527041109
31.9128,20.47493990083076,0.103673613374654
31.915216,20.481558190979303,0.1035064607919062
31.9176,20.48524321482165,0.1033494596521661
31.91998,20.485855202730946,0.1032051080573324
31.922384,20.47524598209465,0.1031056045252054
31.924772,20.46798933664513,0.1029889528905634
31.927152,20.457659655262564,0.1028846012437616
31.929548,20.44691066499941,0.1027872499785388
31.931932,20.42922420693723,0.1027146523294052
31.934312,20.40618307294186,0.1026665427434607
31.936708,20.378346341520736,0.1026333190431584
31.939096,20.353303106778945,0.1025924360007506
31.941492,20.32490729685038,0.1025685520956952
31.943892,20.300236149160927,0.1025344049186849
31.94628,20.285435735576694,0.102465549641207
31.94866,20.26542041568614,0.1024185458297839
31.951056,20.251131858781108,0.1023541514131583
31.953444,20.23921748967483,0.1022894185359904
31.955824,20.22795474687461,0.1022269317506191
31.958228,20.221487601500144,0.1021497402110321
31.960616,20.21832580948421,0.1020698495120319
31.962996,20.21702634858783,0.101984995435618
31.965396,20.223176212169683,0.1018808249602847
31.96778,20.228115370938035,0.1017837250545476
31.97016,20.24027153675913,0.101657603736778
31.97256,20.25200839369965,0.1015390677107249
31.974944,20.266678516946367,0.1014109630530731
31.977324,20.285352841685917,0.1012685939967348
31.979728,20.311895799784267,0.1010998415459351
31.982116,20.341651563442543,0.1009165511869523
31.9845,20.37741362934007,0.1007120651717764
31.986896,20.417599205611,0.1004875830504236
31.989284,20.461649213747908,0.1002510977193448
31.991664,20.50104339408593,0.1000270405634304
31.99406,20.535222668117616,0.0998253391058837
31.996448,20.572614747709217,0.0996098096314395
31.998832,20.603860755434702,0.0994176742070074
32.001231999999995,20.63273257536144,0.0992255560490323
32.003615999999994,20.661744164915028,0.0990315673548001
32.00599999999999,20.684609682602517,0.0988610789110912
32.00839199999999,20.70538055174497,0.0986861550598371
32.01078,20.72722235607406,0.0985068680678043
32.013164,20.739333195924782,0.0983579052906142
32.015559999999994,20.760383604320957,0.0981796471044702
32.017948,20.779012603090127,0.0980156254482737
32.02032799999999,20.794708335553103,0.0978609655749119
32.022727999999994,20.81133523357586,0.0977044817465428
32.025116,20.830895397904825,0.0975398300096499
32.02749599999999,20.85231789335333,0.097371782943649
32.029892,20.87453178473476,0.0972040944984464
32.03227999999999,20.893113561675687,0.0970570756668775
32.034659999999995,20.905129957869928,0.0969395286746831
32.03705599999999,20.92143009481072,0.0968048859556058
32.039444,20.944527929923684,0.0966512274004358
32.041824,20.969907405036786,0.0964869879919641
32.044236,20.995658967202218,0.0963301513780471
32.046623999999994,21.03062963716682,0.0961412363514994
32.04900799999999,21.07132707011696,0.0959381067619986
32.051404,21.110162171947536,0.0957394871110731
32.053788,21.15635405045772,0.0955133470053447
32.056172,21.21092641900591,0.0952703437445298
32.058567999999994,21.26857182348715,0.0950181561628499
32.060956,21.334644939834646,0.0947347140311346
32.06333599999999,21.39284942282334,0.0944757361083429
32.065732,21.45026250987911,0.0942166241286712
32.06811999999999,21.513262590293543,0.0939464718028585
32.0705,21.577333605894623,0.0936735851845568
32.07289599999999,21.63674879369681,0.0934120823156346
32.075284,21.68950605295369,0.093167481492505
32.077679999999994,21.744544952210703,0.092913560388653
32.080076,21.805497605908357,0.0926317681338958
32.082463999999995,21.86780073404636,0.0923416008692237
32.084844,21.92488895587804,0.0920711627748497
32.087239999999994,21.98104601214993,0.0918048214343159
32.089628,22.03971702584744,0.0915388747239515
32.092012,22.099598744358453,0.0912679112738309
32.094415999999995,22.160271858802385,0.0909998676880869
32.096804,22.219082642126757,0.0907370048046964
32.099188,22.28268902287688,0.0904640408399287
32.101583999999995,22.34694702993306,0.0901957494649145
32.103972,22.40254500769752,0.0899491533476581
32.106351999999994,22.459074151021746,0.08970279981913
32.108752,22.513042115092123,0.0894716808826938
32.111135999999995,22.575298021401885,0.0892160977097208
32.113516,22.644770934764395,0.0889398905440379
32.11592,22.7112180340221,0.0886618097783534
32.118308,22.77687373734688,0.0883848345245857
32.120687999999994,22.845322937351,0.0881040297044171
32.123079999999995,22.919778439594367,0.0878083978398207
32.125468,22.99423394183774,0.0875146356888769
32.127852,23.061472437028364,0.0872435539944712
32.130247999999995,23.13206350740576,0.0869608982709604
32.132636,23.207078088156564,0.0866632870554614
32.13501599999999,23.27729707148162,0.0863767248989285
32.137412,23.341137665515088,0.0861000277912462
32.139799999999994,23.401533136563163,0.0858263722352696
32.14218399999999,23.45527067906593,0.0855667124580429
32.14458,23.50863613451636,0.0853017924400224
32.146967999999994,23.556694135861843,0.0850427858312516
32.149348,23.59772212160968,0.0847906136439124
32.151743999999994,23.640240351424737,0.0845294607678771
32.154132,23.6763801919482,0.0842775304250215
32.156527999999994,23.71149631911328,0.0840174412113048
32.158928,23.735810546613344,0.0837818705111248
32.16131599999999,23.754258241501024,0.0835597525723083
32.163695999999995,23.768701734895863,0.0833473037902803
32.166092,23.77755823493204,0.0831433309684591
32.168479999999995,23.784320086423183,0.0829343401972743
32.17086,23.788567980488704,0.0827262802746668
32.173255999999995,23.7882998163822,0.0825233506721211
32.175644,23.790592831529555,0.0823080532990579
32.178028,23.79116328518421,0.0820940689350999
32.180432,23.786006975853336,0.0818902759907506
32.18281999999999,23.78019904021641,0.0816838179582793
32.185204,23.774810413460056,0.0814713831857397
32.1876,23.768909930024503,0.0812543718344111
32.18998799999999,23.760495489163343,0.0810371017429724
32.192367999999995,23.749008012369128,0.0808275386576278
32.194759999999995,23.741664506694605,0.080607171330804
32.197148,23.734972627326137,0.0803890286755917
32.199527999999994,23.728280747957665,0.0801709903039666
32.20193199999999,23.72130932933548,0.0799565207447739
32.20432,23.71312720589979,0.079747134198687
32.2067,23.708157888024022,0.0795279594336047
32.209095999999995,23.702676713469053,0.0793043259995273
32.211484,23.70133951003378,0.0790700143930472
32.213863999999994,23.705077443277982,0.0788237852570118
32.216263999999995,23.704252096521905,0.0785936625237864
32.218652,23.699143009019277,0.0783759533780152
32.221031999999994,23.694173691143504,0.0781561191759644
32.223428,23.687062502894456,0.0779424263235307
32.225812,23.67780944427213,0.0777349840857209
32.228207999999995,23.67055848639622,0.0775232170296662
32.23060399999999,23.665309629266737,0.0773071625449641
32.232992,23.6619231032568,0.0770887661640978
32.235372,23.65918820355292,0.076872913922426
32.237779999999994,23.66031773571502,0.0766504352714978
32.24016399999999,23.661307498250256,0.0764296568590266
32.242543999999995,23.65680281522544,0.0762259281419801
32.244947999999994,23.6532292977604,0.0760209363988056
32.247336,23.644440873989023,0.0758287800116055
32.24972,23.63514059353846,0.0756317167315957
32.252115999999994,23.62584031308789,0.0754345567264009
32.254504,23.61439816226405,0.0752431310446128
32.25688399999999,23.60160553699984,0.0750583002427107
32.25928,23.584389401362227,0.0748871299126141
32.26166799999999,23.565822791284248,0.0747227171781379
32.264047999999995,23.550468986766184,0.0745491058551911
32.26644399999999,23.535115182248127,0.0743751064714374
32.268832,23.522135565528814,0.0742035648912439
32.271215999999995,23.510738740675343,0.074033602577981
32.27361199999999,23.49505817507532,0.0738750430573369
32.276,23.47895830059471,0.0737221411100571
32.27838,23.459505850927325,0.0735797134481708
32.280784,23.440705027566,0.073440018966556
32.28317199999999,23.422416060883872,0.0733048847356819
32.285552,23.402636850134524,0.0731782081547513
32.28794799999999,23.38658230162429,0.0730474671043435
32.290336,23.372529853860478,0.0729126330376255
32.292716,23.361270902775992,0.0727748618311553
32.295112,23.354807549117268,0.0726300323903297
32.29749999999999,23.35258071437685,0.0724859804310434
32.299879999999995,23.35100550594249,0.0723447478535595
32.30228399999999,23.35473775161308,0.0722015782278672
32.304672,23.35912162358973,0.072061141570757
32.307056,23.366438761872573,0.0719158673415003
32.30945199999999,23.371614029782137,0.0717762597013232
32.31184,23.37623021918426,0.0716441842127801
32.314224,23.38657317157192,0.0715047087747845
32.31661999999999,23.3971956632133,0.071361756226677
32.319008,23.40860955078759,0.0712199413420129
32.321388,23.426821136534056,0.0710678604273715
32.323784,23.4459638878403,0.0709151241638355
32.32617199999999,23.47176456769184,0.070754412048076
32.328556,23.49556314679697,0.0705976411728798
32.330952,23.522434761835164,0.0704349005329122
32.33333999999999,23.55023754243313,0.0702713849742469
32.335719999999995,23.57575868303096,0.0701155956233783
32.33811599999999,23.60593565142768,0.0699558986972057
32.340504,23.6349019150109,0.0698012655707381
32.342887999999995,23.66680144490032,0.0696427180562252
32.34528399999999,23.696838643670183,0.0694862840329223
32.347672,23.72459420243991,0.069337105908149
32.350055999999995,23.751558365276715,0.0691874713158643
32.35245199999999,23.78317835591241,0.0690340770077706
32.35484,23.817731612854303,0.0688768994029213
32.35722,23.858011632781725,0.068713403863699
32.35961999999999,23.90336678938862,0.0685408987661876
32.362004,23.94578867968932,0.0683732626274922
32.3644,23.98779126110944,0.0682116309380165
32.366795999999994,24.03300664808947,0.0680429595617483
