Time,Force,Position
4.653452,0.06955570389757319,0.0
4.655792,0.0596890860973761,0.0
4.658136000000001,0.04968269867031881,0.0
4.660487999999999,0.04475144792273376,0.0
4.662832,0.03795786605559206,0.0
4.665176000000001,0.029301953068893716,0.0
4.667524,0.023719076015250758,0.0
4.66986,0.018136198961607806,0.0
4.672204000000001,0.012413552281104634,0.0
4.67456,0.008693006347018318,0.0
4.676895999999999,0.005251999666652421,0.0
4.679232000000001,0.001950762613146735,0.0
4.68158,0.0,0.0
4.683928,0.0,0.0
4.686268,0.0,0.0
4.688611999999999,0.0,0.0
4.6909600000000005,0.0,0.0
4.693308,0.0,0.0
4.695651999999999,0.0,0.0
4.698,0.0,0.0
4.700348,0.0,0.0
4.702704000000001,0.0019979844413898864,0.0
4.705048,0.001997984441389886,0.0
4.7073920000000005,0.0021336377632231313,0.0
4.709736,0.0021336377632231317,0.0
4.712076,0.0021336377632231317,0.0
4.7144200000000005,0.004411161458333437,0.0
4.716764,0.009901490713359336,0.0
4.719099999999999,0.016462755155023764,0.0
4.7214480000000005,0.01901981810385449,0.0
4.723792,0.021576881052685216,0.0
4.726132,0.021992073628238885,0.0
4.728476000000001,0.021992073628238882,0.0
4.730815999999999,0.021992073628238885,0.0
4.73316,0.021992073628238885,0.0
4.735496,0.02291912288299024,0.0
4.737843999999999,0.02291912288299024,0.0
4.740183999999999,0.02291912288299024,0.0
4.742524,0.02291912288299024,0.0
4.744868,0.02291912288299024,0.0
4.747211999999999,0.02291912288299024,0.0
4.749560000000001,0.020921138441600356,0.0
4.751896,0.020921138441600356,0.0
4.754244,0.02078548511976711,0.0
4.756592,0.02078548511976711,0.0
4.758927999999999,0.02078548511976711,0.0
4.761272,0.018507961424656803,0.0
4.763612,0.013017632169630904,0.0
4.765952,0.0064563677279664755,0.0
4.768295999999999,0.0038993047791357482,0.0
4.77064,0.0013422418303050208,0.0
4.772988,0.0009270492547513554,0.0
4.775324,0.0009270492547513554,0.0
4.777668,0.0009270492547513554,0.0
4.78002,0.0009270492547513554,0.0
4.782363999999999,0.0,0.0
4.784704,0.0,0.0
4.787048,0.0,0.0
4.789388000000001,0.0,0.0
4.791727999999999,0.0,0.0
4.794067999999999,0.0,0.0
4.796416000000001,0.0,0.0
4.798752,0.0,0.0
4.801107999999999,0.0,0.0
4.803452,0.0,0.0
4.805795999999999,0.0,0.0
4.8081320000000005,0.0,0.0
4.810472000000001,0.0,0.0
4.812823999999999,0.0,0.0
4.815163999999999,0.0014389059339490447,0.0
4.817508,0.00501968224117515,0.0
4.819851999999999,0.005667192242206085,0.0
4.822203999999999,0.005667192242206085,0.0
4.824540000000001,0.00673401112381765,0.0
4.826884,0.009942700378706275,0.0
4.829236,0.013151389633594902,0.0
4.831580000000001,0.01915357556781849,0.0
4.833919999999999,0.025015991875181866,0.0
4.836264,0.0290160770629886,0.0
4.838612,0.03501826299721219,0.0
4.840947999999999,0.04008928337165746,0.0
4.8432960000000005,0.044880764492382305,0.0
4.845648000000001,0.046599209680051774,0.0
4.847987999999999,0.04738648930794292,0.0
4.850332,0.04738648930794292,0.0
4.852676000000001,0.047386489307942925,0.0
4.855027999999999,0.047386489307942925,0.0
4.857367999999999,0.047386489307942925,0.0
4.859716000000001,0.047386489307942925,0.0
4.862064,0.04594758337399388,0.0
4.8644,0.042366807066767764,0.0
4.86674,0.041719297065736835,0.0
4.869083999999999,0.041719297065736835,0.0
4.871428,0.04065247818412526,0.0
4.873768,0.03744378892923664,0.0
4.876111999999999,0.03423509967434801,0.0
4.878463999999999,0.02823291374012443,0.0
4.880796,0.022370497432761052,0.0
4.883139999999999,0.018370412244954313,0.0
4.885491999999999,0.012368226310730727,0.0
4.887832,0.007297205936285458,0.0
4.890176,0.002505724815560611,0.0
4.892519999999999,0.0007872796278911453,0.0
4.894868000000001,0.0,0.0
4.897207999999999,0.0,0.0
4.899552,0.0,0.0
4.901908000000001,0.0,0.0
4.904252,0.0,0.0
4.906596,0.0,0.0
4.908936000000001,0.0,0.0
4.91128,0.0,0.0
4.913615999999999,0.0011593666802286243,0.0
4.91596,0.003389668547095779,0.0
4.918312,0.006690905600601465,0.0
4.920655999999999,0.009852373027246942,0.0
4.923,0.015015941200309265,0.0
4.925343999999999,0.01803763900009453,0.0
4.927692,0.020128171240101477,0.0
4.930035999999999,0.022358473106968632,0.0
4.932388,0.022358473106968632,0.0
4.934728,0.022358473106968636,0.0
4.937072000000001,0.022866213481139357,0.0
4.939411999999999,0.02286621348113936,0.0
4.941756,0.02286621348113936,0.0
4.944096,0.02286621348113936,0.0
4.946439999999999,0.02286621348113936,0.0
4.948788,0.02286621348113936,0.0
4.951128000000001,0.02286621348113936,0.0
4.953480000000001,0.02286621348113936,0.0
4.955824,0.02286621348113936,0.0
4.958168000000001,0.02286621348113936,0.0
4.960512,0.021706846800910735,0.0
4.962852,0.019476544934043584,0.0
4.965199999999999,0.016175307880537896,0.0
4.967544,0.013013840453892417,0.0
4.969884,0.00785027228083009,0.0
4.972224000000001,0.004828574481044825,0.0
4.974572,0.0027380422410378793,0.0
4.976908,0.0005077403741707244,0.0
4.979252000000001,0.0005077403741707244,0.0
4.981591999999999,0.0005077403741707244,0.0
4.983943999999999,0.0,0.0
4.986280000000001,0.0,0.0
4.988624,0.007018315861141991,0.0
4.990971999999999,0.02334639146219796,0.0
4.9933,0.05089377975096766,0.0
4.995644,0.08058114255514522,0.0
4.997987999999999,0.1152019765540655,0.0
5.000335999999999,0.15447674249400817,0.0
5.002668,0.1990570666810311,0.011290806384706843
5.005008,0.25057296280921365,0.02205885383435724
5.00736,0.3077211782664401,0.03246692397225735
5.009696,0.36929100823921146,0.04279769936599206
5.012036,0.43686524459336434,0.05293779039526778
5.014379999999999,0.5150997151277901,0.06246707632269982
5.0167280000000005,0.6017127798423514,0.07177847207586129
5.019064,0.696332351684711,0.08085049161172006
5.021407999999999,0.7983068043488109,0.08972175563717855
5.023759999999999,0.9068447419017327,0.0984463759604536
5.026095999999999,1.0225977906495347,0.10704150758799831
5.02844,1.1444024676069613,0.11549654906150435
5.030784000000001,1.2716543682961974,0.12370837288775702
5.033128,1.4026781530527899,0.1316436359387301
5.035468,1.5235180382165678,0.13965205027967276
5.037812000000001,1.6323944365879572,0.1477630527743337
5.040151999999999,1.733636414883886,0.15573090337782947
5.0425,1.8333900449704648,0.16370229483035945
5.044843999999999,1.9294209086757994,0.1715907525658261
5.047188,2.0242901852537476,0.17926008915773334
5.04954,2.1141334428383365,0.17559724796972054
5.051876,2.1992755466536593,0.172431478978047
5.054219999999999,2.282602541177669,0.16957156846614443
5.056559999999999,2.3646735049178065,0.1667323699977447
5.0589,2.4418109974632007,0.1640320375853009
5.061244,2.501211018402432,0.16226115778564584
5.063587999999999,2.551021740348031,0.16078570279576967
5.065939999999999,2.5974817829647217,0.15937016589892986
5.068272,2.6335139088266173,0.15830209572202042
5.07062,2.662051384239913,0.15741738687366158
5.072972,2.6840725965926286,0.15656038839433145
5.075312,2.7029754470419154,0.15571763203446073
5.077655999999999,2.7169429304385906,0.1551426133150702
5.080004000000001,2.7293729479398032,0.15481954779459306
5.082352,2.744968549172688,0.15442333098414632
5.084695999999999,2.761867403017689,0.15401722766590065
5.087044000000001,2.772759954623439,0.15390480091067446
5.089383999999999,2.7873771684683026,0.15365142160665696
5.091723999999999,2.803297634925282,0.15341761884139418
5.094068,2.8155859869417648,0.15342191248488243
5.096411999999999,2.8286657348911657,0.15341541812947213
5.09876,2.837788503175976,0.1534823107950738
5.101103999999999,2.843373600676777,0.1535652473017936
5.103508,2.844350092206929,0.15371458388704762
5.105892000000001,2.8393202814978307,0.15413024911848527
5.108280000000001,2.843369808961038,0.15413572446069052
5.110676,2.8517030771708,0.15392151560138617
5.113059999999999,2.8498860720216173,0.15418091786886373
5.115448000000001,2.855518391350661,0.15415395401169005
5.117844,2.865806538478597,0.15395433726765312
5.120227999999999,2.8739055934050115,0.15396609904149292
5.122616000000001,2.8809337131447883,0.15403624437848695
5.125007999999999,2.889172537698064,0.1540346405299763
5.127395999999999,2.8951769440794455,0.15405764425783197
5.12978,2.902112516020605,0.15404822112767913
5.132175999999999,2.9105383320289837,0.15392768568294432
5.134563999999999,2.9204543921045816,0.15368890753156036
5.136951999999999,2.925202767702091,0.15360155991951477
5.139344,2.9225018188213725,0.15378548204793532
5.141731999999999,2.9184503955002956,0.15406479273595985
5.144116,2.910255001059525,0.15454814317564158
5.146512,2.905504729604146,0.15492858268830495
5.148899999999999,2.900335149268188,0.15536721062571124
5.151284,2.9011246493432363,0.15563392606583162
5.15368,2.9113655746429288,0.1555338014851528
5.156067999999999,2.923329061435318,0.15539535095878299
5.1584520000000005,2.931428116361733,0.15541274292974488
5.16086,2.9474430264751996,0.15500160117116202
5.163247999999999,2.9562881513641592,0.1548236685905954
5.165632,2.959406513267588,0.15486444067472366
5.168032,2.969090255917709,0.15458383386661761
5.170416,2.9751891059555757,0.15441419048377447
5.172803999999999,2.9810556385679665,0.1541900685700341
5.1752,2.9866426319266366,0.15400134986786385
5.177588,2.9939521867780026,0.15377306462265863
5.179983999999999,3.0039154686818437,0.15347657121540434
5.182388,3.0170915561456,0.153041584518805
5.184775999999999,3.0311988091691346,0.15257592918094998
5.18718,3.0508930555513403,0.1519083618362117
5.189584,3.0720775460007643,0.15112643066667777
5.191967999999999,3.098197403502801,0.1501388867447418
5.194364,3.1222226124598027,0.1491676601994107
5.196759999999999,3.1429424680582723,0.14825079904914643
5.199156,3.158075330298072,0.14754048294935093
5.201552,3.1696232999256186,0.146954820272223
5.203956,3.1786573121275508,0.14643838754671284
5.206339999999999,3.186620389142844,0.1459628159865763
5.208740000000001,3.1902997254115837,0.14567745755668632
5.21114,3.196353249479077,0.14534997285707138
5.21354,3.2058518965319647,0.14493409391049236
5.215935999999999,3.206131435785685,0.14489876607480862
5.218328,3.2042691046661287,0.14496144422342186
5.220724000000001,3.1970520976133794,0.1452747193363333
5.22312,3.19011462981435,0.14555259123767453
5.225508,3.180243895709126,0.14594018053975097
5.2279040000000006,3.167998973805147,0.1463578560229995
5.2303,3.1533326422741714,0.14690055148023576
5.232688,3.1386663107431954,0.14744108808929865
5.2350840000000005,3.1253504536525787,0.14789129765745065
5.23748,3.114967862868157,0.1482281471202069
5.239868,3.1028627105910385,0.14860074027163694
5.242252000000001,3.0909898757393974,0.14903021539736858
5.244648,3.08814915723182,0.14920540131077278
5.247036,3.08609983465716,0.1493706244948029
5.249416,3.0860526128289165,0.14946065149489773
5.251811999999999,3.0849344558140346,0.14959446041112603
5.254199999999999,3.0858183995455697,0.14965688791449716
5.256596,3.090287235889358,0.1496251014963449
5.258996,3.099319352233421,0.14938685073325744
5.261379999999999,3.1082589207788667,0.1490808740004336
5.263764,3.1248348052576422,0.14845446213539332
5.266159999999999,3.1471374527219482,0.1476394246614209
5.268544,3.177029194291341,0.14658421462327148
5.270928,3.207572562166791,0.14553630709886492
5.273324000000001,3.2405373396692387,0.14437737885828386
5.275712,3.2738742042240245,0.14326791206713466
5.278096,3.3062799032190315,0.14217586493710774
5.280488,3.341199559639653,0.14105243905760956
5.282876,3.3761192160602747,0.13995706245405293
5.285256,3.4071744406149227,0.13899590840786388
5.287652,3.439021061102489,0.13803188061588592
5.290039999999999,3.4699365160302773,0.13708497838745437
5.2924240000000005,3.4932628768529783,0.1363748807990847
5.29482,3.519010647302677,0.13555904993459406
5.297208,3.5418251514461807,0.13484609151448987
5.299604,3.5635687204030457,0.13417106395743847
5.302,3.5908992827185804,0.13337572978864348
5.304387999999999,3.616647053168279,0.13260499341733742
5.306768,3.639182018058062,0.1319696085574136
5.309168,3.665301875560098,0.1312854204888859
5.311556,3.6845768130617227,0.13086335290219447
5.313936,3.704131289817067,0.13042325422548193
5.316331999999999,3.71902993877352,0.13009337265454943
5.318719999999999,3.7397025725437465,0.12956761102908343
5.321104,3.756371004821139,0.1291505386036263
5.323499999999999,3.772248041165614,0.12874053737827695
5.325887999999999,3.789615321577307,0.12825529447393816
5.328272,3.8004644430705525,0.12790544671776463
5.330667999999999,3.81024262937716,0.12759356202722028
5.333055999999999,3.820020815683767,0.12727912902876992
5.33544,3.829519462736654,0.126993722537645
5.337835999999999,3.8428825416555137,0.1266188433406103
5.340223999999999,3.8570370165072916,0.12623116816537897
5.342599999999999,3.869841016918711,0.12590972019632243
5.344996,3.8826450173301303,0.12558827222726585
5.347379999999999,3.8971715792342456,0.12524077113720794
5.349772,3.9011757807270793,0.12513594671817546
5.352168000000001,3.904109047033274,0.12506394442282803
5.354552,3.904109047033274,0.12506394442282803
5.356944,3.8930276081145516,0.12536415181845872
5.35934,3.8885115499425202,0.12544944045245457
5.361724000000001,3.883995491770489,0.12553220994748227
5.364103999999999,3.8802708295313755,0.12560980902760702
5.366508,3.867978685799154,0.12594386473605831
5.368896,3.859271434679186,0.12621606127573293
5.371271999999999,3.8505641835592184,0.12648825781540757
5.373676,3.844091350611144,0.12675385388885288
5.376064,3.844276446208378,0.1268764939047382
5.378444,3.8424594410591952,0.12704997231451484
5.380839999999999,3.844646637402846,0.127121818549164
5.383224,3.8463219770672996,0.12717231041222718
5.385619999999999,3.848276855985473,0.1271966722299435
5.388024,3.8574487419563956,0.12703551730834686
5.390412,3.863966900874844,0.12691296713379735
5.392792,3.8680636501662944,0.12687566161396752
5.395196,3.8721603994577447,0.12683860330812693
5.39758,3.884777408414061,0.126627448190101
5.39996,3.901910475542408,0.12634334623467453
5.402355999999999,3.922628435283009,0.12599881790042525
5.404743999999999,3.950283862822638,0.12547222721846438
5.407124,3.974307175921771,0.1250863785866368
5.409528,3.994838144207268,0.12482114806118584
5.411916,4.0183023787989605,0.12449302285485421
5.414296,4.042558009323571,0.12414962854543406
5.416691999999999,4.067093179101901,0.12378798074126238
5.419079999999999,4.094561615186427,0.12336670554233606
5.42146,4.120167720151396,0.1229871920308163
5.423864,4.142840558810169,0.12267719381442307
5.426247999999999,4.169517598961777,0.12227670651970478
5.428628,4.193912999113247,0.12195592726315924
5.431024000000001,4.22310399669047,0.12155175663732341
5.433408,4.2470800879613595,0.12127982253844968
5.4357880000000005,4.261045675500165,0.12123245868449407
5.438184,4.28180896121114,0.12105356075983469
5.440572,4.310348332482304,0.12066272485757788
5.442952,4.339307012634048,0.12024109244115126
5.445344,4.362538929800263,0.11992636501872898
5.447732,4.381254788794448,0.11967944224932708
5.450127999999999,4.40281136629621,0.1193316291354421
5.452524,4.428651684544525,0.11889132630714674
5.454908,4.454119915740504,0.11841684131594112
5.457288,4.481730017309759,0.11788731023310144
5.459692,4.5016112551470675,0.11749263124158299
5.46208,4.525124607424872,0.11698719955240103
5.464459999999999,4.545704693396481,0.11653937980362625
5.466863999999999,4.564422448248533,0.11612766986419037
5.469251999999999,4.580626245674972,0.11573488484225347
5.471632,4.59724935198199,0.11530894452407367
5.474028000000001,4.610939191982813,0.1149409690343935
5.476412,4.619833434557886,0.1146506144136075
5.478792,4.619136482281454,0.1145250714751196
5.481196000000001,4.620581400378299,0.11434778049119697
5.48358,4.6289637862741735,0.11403495292822935
5.485963999999999,4.630408704371019,0.11385848722506163
5.48836,4.625428011348033,0.11383377411498642
5.490743999999999,4.620167779071326,0.11383066312621345
5.4931280000000005,4.617980582727676,0.11376431065917987
5.495524,4.619937357503718,0.1136107816001009
5.497908000000001,4.614257816346431,0.11363953218292072
5.500304,4.601780577016975,0.11378123551495552
5.502708,4.591165668807076,0.11389591762598726
5.505096,4.580038903917979,0.113990528073293
5.507472,4.57799147720119,0.11391338958664535
5.509879999999999,4.571939848991565,0.1139096980166062
5.512264,4.566959155968578,0.11388221017736978
5.5146440000000005,4.560116131826035,0.11388046266831513
5.517047999999999,4.558999870669023,0.11379038445352961
5.519436000000001,4.560537336564487,0.11367365816666844
5.521812000000001,4.558350140220836,0.11360691709625924
5.52422,4.562169246116436,0.11343033817572816
5.526604000000001,4.571575345370705,0.11317313315487318
5.528984,4.5820523798116115,0.1128931069093852
5.531388,4.58680265126699,0.11270240616836544
5.533771999999999,4.591552922722368,0.1125092575679206
5.536152,4.596582733431466,0.11229302543234439
5.538556,4.600681378580786,0.11209071918982211
5.540939999999999,4.6017069877970505,0.11195004407239063
5.543324,4.595515589960566,0.11195810324125484
5.545719999999999,4.593747702497497,0.1118571060902198
5.548104,4.593422837273402,0.11176187562725495
5.550483999999999,4.592027036862669,0.11169156750024907
5.552892,4.5914226323848535,0.11161892353479781
5.555275999999999,4.585743091227568,0.11164569682927378
5.557656,4.580575406749477,0.1116930243575621
5.560052000000001,4.5732658518981095,0.11179013087768984
5.5624400000000005,4.566468153725943,0.11190768046167222
5.564819999999999,4.554735088501161,0.11211261398106556
5.567224,4.53820642585063,0.11239419707140282
5.569611999999999,4.526333590998989,0.1126114276418165
5.571992,4.513669360214429,0.1128274599430115
5.574387999999999,4.503007230176288,0.11300300141351871
5.576776000000001,4.4903429993917285,0.11321508797736023
5.579155999999999,4.481543200473143,0.11336522400541199
5.581552,4.47781853823403,0.11341705769518677
5.58394,4.477818538234031,0.11341705769518677
5.586320000000001,4.477027142301112,0.11341904708988804
5.588711999999999,4.482521587861164,0.11329119651836797
5.591099999999999,4.493882566033607,0.11306359502745801
5.593492,4.504172609019411,0.1128612723310457
5.595896,4.518094766445713,0.11255985032602249
5.598284,4.5332276286855135,0.11222645885076443
5.60066,4.547289555738674,0.11191757376272189
5.6030560000000005,4.56442451872489,0.11155252121725337
5.60544,4.585982992084521,0.11108884433936589
5.60782,4.613687537310263,0.11051485380846565
5.610215999999999,4.6439532617898625,0.10986891444455095
5.6126000000000005,4.675289921456101,0.10919923126733774
5.614996,4.710630782615172,0.108462155625873
5.617388,4.748253283774381,0.10768249006077227
5.619776,4.787738116053146,0.10689351843526938
5.622156,4.823358516465937,0.10616657799082296
5.624552,4.860329391319088,0.105398170197302
5.626936000000001,4.8955777046795435,0.10464524555778157
5.629327999999999,4.926821816547164,0.10396374179065973
5.631732,4.95434126617567,0.10333192323366056
5.634116000000001,4.986796082856789,0.10263460667832917
5.636495999999999,5.012965058044937,0.102057278281248
5.638892,5.03862217655389,0.10146783543406927
5.64128,5.065350230249478,0.10086194585357017
5.643660000000001,5.085932212078957,0.1003590886815645
5.646063999999999,5.1073055898413555,0.09986157349189237
5.648448,5.1280273412976936,0.09935443471554606
5.650828000000001,5.146746992007617,0.09888093703341318
5.653231999999999,5.160391506038066,0.09848752779578013
5.655619999999999,5.170031818575683,0.09815635526257448
5.658,5.176599095180243,0.09787395248838873
5.660396,5.179022400665108,0.09765530039969932
5.662784,5.177441504657141,0.0974936535104974
5.66516,5.169714536783063,0.09742642014017981
5.6675640000000005,5.155841497042875,0.09745362045599282
5.669952,5.144110327675964,0.09744257229193776
5.672328,5.131959849428472,0.09745926760825593
5.674723999999999,5.123254494166372,0.09745699840340058
5.6771080000000005,5.116691009277551,0.09741728085328036
5.679504,5.110918920321647,0.09737773604772881
5.681896,5.10100286024605,0.0974016998458082
5.684279999999999,5.096161936849924,0.0973526945095397
5.686676,5.088899603826801,0.09735847582866239
5.689080000000001,5.081357731549957,0.09738220058924599
5.691464,5.0764695863255875,0.09738915656168473
5.693844,5.067577239608384,0.09745036133121823
