Time,Force,Position
3.773768000000001,0.22890409224054895,0.0
3.776147999999999,0.2330480633602429,0.0
3.778544,0.2347706248529393,0.0
3.780928,0.23663295597249595,0.0
3.783312000000001,0.24091669671905008,0.0
3.785708,0.23933390485321385,0.0
3.7880920000000007,0.23495761630804268,0.0
3.790476,0.2317920325763702,0.0
3.792868,0.22462224735186406,0.0
3.795252,0.21251709507474592,0.0
3.7976480000000006,0.19598843242421335,0.0
3.800044,0.18267257533359646,0.0
3.802432,0.16870377934451888,0.0
3.804812,0.15552637928835947,0.0
3.8072079999999993,0.1443510799786169,0.0
3.809595999999999,0.13392126736595203,0.0
3.811976,0.12246642880248904,0.0
3.81438,0.10807832393283087,0.0
3.816768,0.09490092387667144,0.0
3.819148,0.08279445900715054,0.0
3.821544,0.07175892932426817,0.0
3.823931999999999,0.061794334828024315,0.0
3.826312,0.05304044514527922,0.0
3.8287080000000007,0.04428655546253413,0.0
3.831096000000001,0.0352531265260686,0.0
3.833487999999999,0.02808202870915973,0.0
3.835884,0.01983999570561232,0.0
3.8382679999999993,0.010527027515426376,0.0
3.840648,0.004147325631435609,0.0
3.843043999999999,0.0007008900536400126,0.0
3.845428,0.0004672600357600085,0.0
3.8478239999999992,0.0019102822747360183,0.0
3.850216,0.004797639345090773,0.0
3.8526000000000007,0.004797639345090773,0.0
3.854996,0.004797639345090773,0.0
3.857388,0.00470377895407098,0.0
3.859772,0.00470377895407098,0.0
3.862152,0.00470377895407098,0.0
3.864556,0.0063804312109269935,0.0
3.866944,0.00912801865442154,0.0
3.86932,0.010944440538137763,0.0
3.871724,0.014623193541410628,0.0
3.874112,0.018301946544683492,0.0
3.8764920000000007,0.021980699547956357,0.0
3.8788839999999993,0.026590618111007543,0.0
3.881271999999999,0.028267270367863556,0.0
3.883664,0.028267270367863556,0.0
3.886060000000001,0.02915252669180146,0.0
3.888444,0.031900114135296004,0.0
3.890824,0.03357676639215202,0.0
3.89322,0.03604481458192614,0.0
3.8956079999999993,0.03776737607462258,0.0
3.898004,0.03734806719404195,0.0
3.900408000000001,0.040607511316734186,0.0
3.902792,0.04386695543942642,0.0
3.905172,0.04819733474875718,0.0
3.907568,0.049314908498172355,0.0
3.9099559999999993,0.04931490849817235,0.0
3.9123319999999993,0.04763825624131634,0.0
3.914728,0.044890668797821796,0.0
3.917112,0.044983216596438856,0.0
3.919508,0.042282267715720946,0.0
3.921899999999999,0.041862958835140324,0.0
3.9242880000000007,0.04665855626089214,0.0
3.926668,0.04838111775358857,0.0
3.929072,0.053968111112258486,0.0
3.9314560000000007,0.06244246154128317,0.0
3.933836,0.07110249083300849,0.0
3.93624,0.07790018900517713,0.0
3.938628,0.08604836161770474,0.0
3.941004,0.0914030375508974,0.0
3.943400000000001,0.09061164161797927,0.0
3.945788,0.09382444717789487,0.0
3.948167999999999,0.09852749680502962,0.0
3.950564,0.1032305464321644,0.0
3.9529479999999992,0.10979592717885578,0.0
3.955344,0.12357831497829647,0.0
3.9577360000000006,0.13554501022095716,0.0
3.960124,0.14536983509034082,0.0
3.962503999999999,0.15440326402680632,0.0
3.9649,0.15752352178810486,0.0
3.967288,0.15971261398962508,0.0
3.969683999999999,0.15733842619087077,0.0
3.9720840000000006,0.1488640757618461,0.0
3.974472,0.14262545609711827,0.0
3.976851999999999,0.13545567087261212,0.0
3.979256,0.12698132044358745,0.0
3.981640000000001,0.11743603482792421,0.0
3.984024,0.10789074921226098,0.0
3.9864200000000007,0.09806592434287735,0.0
3.988804,0.09098868691698826,0.0
3.991184000000001,0.09406172285004365,0.0
3.993587999999999,0.09341009654398576,0.0
3.9959760000000006,0.08833495986451351,0.0
3.998356,0.08540169355831834,0.0
4.000748,0.0778125994532316,0.0
4.003136,0.06743000866880984,0.0
4.005516,0.06226232419072056,0.0
4.0079080000000005,0.059376279712768536,0.0
4.010292,0.058073027100652735,0.0
4.012688000000001,0.06277607672778748,0.0
4.015084,0.06547702560850538,0.0
4.017467999999999,0.07031984486250036,0.0
4.019848,0.07818979081371027,0.0
4.022244000000001,0.08689704193367875,0.0
4.024628,0.09173986118767372,0.0
4.027023999999999,0.09667654083268848,0.0
4.02942,0.10054228529106471,0.0
4.031803999999999,0.10426826012258072,0.0
4.034184,0.10585236458081969,0.0
4.036588,0.10655121271512073,0.0
4.038976,0.1007305893385708,0.0
4.041352,0.09570136189493898,0.0
4.043747999999999,0.09281400482458423,0.0
4.046132,0.0877847773809524,0.0
4.048527999999999,0.08447811143001702,0.0
4.050924,0.0799607406655829,0.0
4.053308,0.07316172990101148,0.0
4.055688,0.06622294950957987,0.0
4.058095999999999,0.058492773185230156,0.0
4.06048,0.048760496114463585,0.0
4.062860000000001,0.04414999428594589,0.0
4.065263999999999,0.04009857096486904,0.0
4.067652000000001,0.033765507643654914,0.0
4.070028000000001,0.024964396132666662,0.0
4.072431999999999,0.020493663931009178,0.0
4.074819999999999,0.015556984285994422,0.0
4.0772,0.011691239827618195,0.0
4.079604,0.007965264996102178,0.0
4.081992,0.00638116053786322,0.0
4.084372,0.004936825706484475,0.0
4.086767999999999,0.004936825706484475,0.0
4.089155999999999,0.004936825706484475,0.0
4.091536,0.004936825706484475,0.0
4.09394,0.004936825706484475,0.0
4.096328,0.004936825706484475,0.0
4.098708,0.004936825706484476,0.0
4.101103999999999,0.0049368257064844765,0.0
4.1034880000000005,0.0049368257064844765,0.0
4.105867999999999,0.0049368257064844765,0.0
4.108264,0.0049368257064844765,0.0
4.110647999999999,0.0036794823302090923,0.0
4.113044,0.0020028300733530777,0.0
4.11544,0.0004659474433572735,0.0
4.117827999999999,0.0004659474433572735,0.0
4.120203999999999,0.0,0.0
4.122612,0.0,0.0
4.124995999999999,0.0,0.0
4.127376,0.000745486697077694,0.0
4.12978,0.0019102822747360183,0.0
4.132168,0.005356717852531614,0.0
4.134548000000001,0.011876189363382592,0.0
4.136951999999999,0.01853543050109378,0.0
4.139336,0.023052801265527906,0.0
4.141716000000001,0.02729063277624161,0.0
4.144119999999999,0.03166823391381553,0.0
4.146507999999999,0.03590606542452924,0.0
4.148888,0.03814179618882609,0.0
4.151292,0.038141796188826085,0.0
4.15368,0.03902705251276399,0.0
4.15606,0.03902705251276399,0.0
4.158464,0.03902705251276399,0.0
4.160848,0.03902705251276399,0.0
4.163228,0.03902705251276399,0.0
4.165632,0.03902705251276399,0.0
4.16802,0.03902705251276399,0.0
4.170396,0.03902705251276399,0.0
4.172791999999999,0.039027052512764,0.0
4.175179999999999,0.0382815658156863,0.0
4.17756,0.03711677023802798,0.0
4.179964,0.033670334660232386,0.0
4.182347999999999,0.029333684511827378,0.0
4.184728,0.03216492373005928,0.0
4.187132,0.04221127414317121,0.0
4.18952,0.05924041832568594,0.0
4.1919,0.07882884590418912,0.0
4.194296,0.10176795281159887,0.0
4.196680000000001,0.13443612833950322,0.0
4.199064,0.17706700250578214,0.011026222347238625
4.201459999999999,0.22602773154300318,0.021418591724985336
4.203844,0.28271674104670474,0.031242550348222087
4.206224000000001,0.34289619950617295,0.041145247500804207
4.20862,0.4093123817724999,0.051020254776997224
4.211003999999999,0.4861092589653793,0.06039026370416454
4.213384,0.5711921825397773,0.06941759919506632
4.215788,0.6621869646969396,0.07826131184419433
4.218176,0.752807763943895,0.087492492324402
4.220556,0.8478501777063955,0.0967283520643211
4.2229600000000005,0.950666781171217,0.10566585773308758
4.225348,1.0600940913531036,0.11432037056723358
4.227724,1.1758072430279616,0.12254669929280197
4.2301280000000006,1.2833784929293661,0.13101498407578885
4.232512,1.3794055649189623,0.139668878026637
4.234892,1.4739442886992087,0.14813595078418385
4.237284000000001,1.5652248809491656,0.1564535687778393
4.2396720000000006,1.6565999168556085,0.16462781811448185
4.242063999999999,1.7470456830601426,0.17263789126653228
4.244468,1.8308354165772374,0.1805801091158184
4.2468520000000005,1.9068981822202544,0.17749610461786586
4.249231999999999,1.9791909596537849,0.174923038953536
4.251636,2.0472944399972466,0.1728194786700911
4.254020000000001,2.1129784065715813,0.17057565467701713
4.256399999999999,2.1729847278464973,0.1682715873833793
4.258808,2.2207480230753047,0.1665498596450714
4.261191999999999,2.261668294161569,0.1651593408642269
4.263572,2.298399268157766,0.16389779488267078
4.265976,2.34165029693028,0.1619497078937863
4.268364,2.3816904160007475,0.1599228972438401
4.2707440000000005,2.4138165757420342,0.1582145700242414
4.273147999999999,2.4389127198856753,0.15684987468926356
4.275536000000001,2.4559532392154058,0.15607095343528235
4.277915999999999,2.482537731568396,0.15493229928901778
4.28032,2.5141501387726155,0.15359447983397886
4.282703999999999,2.540035782991305,0.15255179876273725
4.285084,2.56312793053066,0.15166456231712094
4.287483999999999,2.5840782076967375,0.15092662711366409
4.289868,2.599673808929622,0.15049977377869325
4.292247999999999,2.609542647176977,0.15032855415696278
4.294651999999999,2.6194114854243318,0.15015733453523228
4.297039999999999,2.6229019343800983,0.1502507490168567
4.29942,2.6202463114697547,0.15068442533250737
4.3018160000000005,2.6201046459850246,0.15103175385461262
4.304204,2.620335067552633,0.151425783835608
4.306583999999999,2.6252213169191325,0.15162233663266858
4.308987999999999,2.629455939979574,0.1518129497249393
4.311372,2.6316884622935994,0.15210134581322185
4.313756,2.628426539047571,0.1526928096165773
4.316155999999999,2.6248850765478227,0.15331955019556917
4.318543999999999,2.6217629229286548,0.1538836201062798
4.320924,2.6193396174437877,0.15434468970260315
4.323320000000001,2.6189656345335814,0.15460598696624703
4.3257080000000006,2.6178002556904567,0.1548753107737288
4.328087999999999,2.617845581660831,0.15506738271376952
4.330487999999999,2.6220348787508985,0.15506294204578672
4.332876000000001,2.626503715094687,0.15501913581407373
4.335255999999999,2.631252090692196,0.1549364619980897
4.33766,2.6409358333423167,0.15464230014855324
4.340048,2.6597914619633602,0.15402439153872735
4.342428,2.6815803568905996,0.1533001208985345
4.344832,2.7083046188704496,0.1523596259136779
4.34722,2.742665196783631,0.1510174722915083
4.349600000000001,2.770228076524643,0.14995570687040524
4.351996,2.7947179203326,0.14902664647927638
4.354379999999999,2.815902410782024,0.14819277552621357
4.356764,2.834852483059554,0.1473798271165894
4.359159999999999,2.8491467275381925,0.14671002702224997
4.361544,2.8634409720168303,0.14604284493746167
4.363923999999999,2.87638474205511,0.1454708255448887
4.366327999999999,2.8889092032128083,0.1449602186268467
4.368715999999999,2.9002229595570084,0.14452368791267647
4.371096,2.909906702207129,0.14421923592022381
4.3735,2.914515308177778,0.14415011561065427
4.375888,2.920846475641123,0.14403860955969328
4.378268,2.9234529808653544,0.14406161236456394
4.380664,2.923545528663971,0.14414578860724245
4.383051999999999,2.9207048101563933,0.14435117790807886
4.385432,2.916513617208456,0.1446463095037587
4.387836,2.906875200528709,0.14511245927807326
4.390224,2.8916497904902925,0.14577238383064262
4.392604,2.8736308837725404,0.1465228721141909
4.395,2.8531905674277915,0.14738127151564973
4.397387999999999,2.84075865406871,0.14791314051446183
4.399768,2.835264208508657,0.1481722972619486
4.402163999999999,2.8322837203742184,0.14837615560622397
4.404552000000001,2.8326085855983125,0.14851649787863103
4.406931999999999,2.842524645673911,0.14832690627396522
4.409336,2.8524407057495087,0.1481376891194459
4.411719999999999,2.865849110638743,0.14777626752579517
4.4141,2.8756726229157232,0.14750479714080794
4.416504,2.886427300752483,0.14720161181633584
4.418892,2.896250813029465,0.14691819802290954
4.421272,2.911149461985918,0.14642391024812626
4.4236640000000005,2.917527851277506,0.14622483024025226
4.426052,2.9259083413155107,0.14594328034271645
4.428431999999999,2.932519048032576,0.1457983951050944
4.430828,2.9436458129216723,0.14550964487811732
4.433211999999999,2.95505211706449,0.14518366424895848
4.435596,2.9695314571403624,0.1447274171720976
4.437992,2.989737560201765,0.14406317311099381
4.440379999999999,3.0095243543825867,0.14344587657725005
4.44276,3.026377882257213,0.14294497572622078
4.445155999999999,3.0355025463998935,0.14274503668722438
4.447544000000001,3.0379692819972646,0.14278767430827832
4.449928,3.034429715355385,0.14307617332677605
4.452323999999999,3.0256752424071736,0.1436043491614753
4.454712000000001,3.0131961072198488,0.14424144556874396
4.457108,3.003278151286381,0.14471283027354842
4.459503999999999,2.988145289046581,0.14540504702456283
4.461888,2.980461751285008,0.1458563100649445
4.464271999999999,2.971427739083077,0.14639694506279521
4.466668,2.9696107339338935,0.14663118097830205
4.469056,2.9651400017322365,0.14693249014605808
4.471436000000001,2.9683981332625256,0.1469638422990716
4.473832,2.9729595174049313,0.14700835221091962
4.47622,2.985669074159864,0.14673105115153537
4.478604000000001,2.9980065438624597,0.1464224368648676
4.481,3.009832156885857,0.14609277350119249
4.483388,3.0163030939760627,0.14598865653053228
4.485768,3.021283786999048,0.14598460542416555
4.488163999999999,3.031199847074646,0.14581218381884573
4.490551999999999,3.041115907150244,0.14563458231811482
4.492948,3.054756629464955,0.14534030659283798
4.495343999999999,3.07212201401878,0.14493310396160325
4.497728,3.0944227656252163,0.14433492328834122
4.500107999999999,3.1222179627917055,0.14347553827867635
4.502504,3.151084095144834,0.1425869512735758
4.504892,3.1724536811914925,0.1420186293356194
4.507272,3.199038173544483,0.14123906582589835
4.509676000000001,3.2231087084718584,0.14053631218768473
4.5120640000000005,3.252673688959288,0.13960562807890395
4.514443999999999,3.277443072020965,0.13885660911543976
4.51684,3.3050059517619768,0.1380448797916069
4.519228,3.3305667307565727,0.13731958864990645
4.5216080000000005,3.356546818631749,0.13656049866405126
4.524004,3.3757292083347563,0.1360155547903809
4.526392,3.3934213539705445,0.13556538628439546
4.528776000000001,3.410554421098891,0.13517758541983083
4.531172,3.4330421641604314,0.13458793376562414
4.533555999999999,3.454086884982995,0.13400439299263056
4.5359560000000005,3.46833390763339,0.13361906941201182
4.538352,3.4870044406572003,0.13306768222785417
4.54074,3.5059545129347303,0.13249111508319958
4.54312,3.524252958906202,0.13191749374100573
4.545515999999999,3.5434825704374524,0.13132951946467775
4.547903999999999,3.562432642714982,0.13078414480775435
4.550284,3.5773785134996783,0.13035560086127648
4.5526800000000005,3.599820930590844,0.12966606523312674
4.555068,3.61639681506962,0.12914034964029603
4.557447999999999,3.6316222251080372,0.1286838845826774
4.559844,3.639630628093704,0.1284540337184513
4.562227999999999,3.646288556639013,0.12828840871587044
4.564624,3.650013218878126,0.12820371341090991
4.5670280000000005,3.653737881117239,0.1281198894807573
4.569416,3.6513164714902424,0.12822073540315787
4.571795999999999,3.6519680977963,0.12822861061323745
4.574199999999999,3.6519680977963005,0.12822861061323745
4.576584,3.655320672983076,0.12810766336558851
4.578968,3.657322773729492,0.12805202102192606
4.581372,3.657043234475772,0.12808085824520157
4.583755999999999,3.6610474359686056,0.1279672819264214
4.586136,3.6584862567147476,0.12808225405633802
4.58854,3.6547143726473905,0.12824681497514956
4.590928,3.650662949326314,0.12843840402396867
4.593308,3.644749194885681,0.1286697075942813
4.595712000000001,3.636973109325491,0.12893993677741253
4.5981000000000005,3.6298486500713585,0.12922306629964433
4.600479999999999,3.6213737163768673,0.12956208289362856
4.602876,3.619416941600824,0.1297590159527663
4.605264,3.6193224979443377,0.1299151023030537
4.6076440000000005,3.6261655220868803,0.12988955228760238
4.610044,3.6352901862295606,0.12978182947012196
4.612428,3.6422729799989635,0.12974050777906887
4.614808,3.648045068954867,0.12974748264645636
4.617212,3.6588922945902436,0.12960675029941204
4.6196,3.6725330169049544,0.1294113294370509
4.621980000000001,3.6849630344061675,0.12926195656573428
4.624383999999999,3.6941802463474644,0.12921783877615672
4.626771999999999,3.7006039616094264,0.12923270713107188
4.629152,3.710100712804443,0.1291578105044077
4.631556,3.7202490903055185,0.12909365977521772
4.633939999999999,3.7338898126202302,0.12889470340311046
4.63632,3.7476703045618014,0.12868106579052752
4.638724,3.761450796503373,0.1284699955183772
4.641112,3.777233389191361,0.12820813065835013
4.643492,3.7922245859464314,0.12795157348750436
4.645899999999999,3.8128499978884145,0.1275043172196387
4.648287999999999,3.8308216827779233,0.12710536186593385
4.650668,3.8442773094954004,0.12679566355313857
4.653076,3.854427582854344,0.12652254793422232
4.655464,3.858851093227759,0.1263793825452639
4.657848,3.864345538787812,0.12620661754193208
4.6602440000000005,3.871050689161363,0.1259853981898398
4.662632,3.876592356549659,0.12573302011320805
4.665016,3.8874886998711475,0.12533071621061298
4.66742,3.891866884274188,0.12505740970865542
4.669808,3.898014851998168,0.12468645601488823
4.672188,3.905653063789367,0.1242468287331209
4.6746,3.917575016327121,0.12368396256992648
4.676988,3.9277744073721776,0.12314427737266236
4.679368,3.93532007136476,0.12264692191259599
4.681763999999999,3.9468699368501756,0.12206248760593053
4.684151999999999,3.960561672708868,0.12142320077429117
4.686532,3.971320142261366,0.1208454997902662
4.688943999999999,3.97807441032103,0.12036197344747573
4.691331999999999,3.9873426358063084,0.11985440541735604
4.693712,3.992466890171893,0.11945940800040832
4.696108000000001,3.999313706030174,0.11904435278617549
4.698496,4.00867447931407,0.11860642843574747
4.700875999999999,4.019618044463801,0.11815883903009572
4.703272,4.03256371035995,0.11766274599479606
4.70566,4.041505174763265,0.11725949413691018
4.70804,4.054590610286274,0.11675704400340835
4.710456000000001,4.06790836323476,0.11629699469283064
4.71284,4.074148878757357,0.11600952099340339
4.71522,4.083974286892207,0.11566899534239133
4.717636000000001,4.0932406165196165,0.11538006889214436
4.720024,4.099433910213971,0.11516401290002062
4.72242,4.104556268721685,0.11497918950421317
4.724816000000001,4.110749562416039,0.11476669353137774
4.727204,4.116803086483533,0.11456540855916682
4.729583999999999,4.11498797719222,0.11452496080288624
4.731987999999999,4.112381471967988,0.11448715423880051
4.734375999999999,4.112987772303673,0.11436746604873763
4.736756,4.11773804375905,0.11415110872884943
4.739152000000001,4.121045292975452,0.11392946582684102
4.7415400000000005,4.125283707751632,0.11369407988676124
4.743919999999999,4.126868395475339,0.11349028719323621
4.746324,4.125007960213652,0.11332113467694577
4.748711999999999,4.123287294578825,0.1131398532823172
4.751092,4.124360125623332,0.11291632506995257
4.753487999999999,4.1282264533471755,0.11264872994899057
4.755876000000001,4.1288799755111025,0.11246238632597763
4.758255999999999,4.135959108794861,0.1121236830087347
4.760652,4.14182753726512,0.11181990136113609
4.76304,4.148906670548878,0.11148181876571106
4.765420000000001,4.1550546382728575,0.11115668189641396
4.767823999999999,4.163576793795592,0.1108238227529978
4.770211999999999,4.1747526763708,0.11046779844932976
4.772592,4.190584386744901,0.1100527804556986
4.7749880000000005,4.211351464171614,0.10955481042933485
4.777376,4.238916239770496,0.10894169510557121
4.779755999999999,4.2639198361155195,0.10841307126283811
4.782152,4.285850396527488,0.10794639396016273
4.78454,4.302845589886845,0.10756761467554964
4.78692,4.31956124399248,0.10721285497120468
4.789316,4.334274797351699,0.10689589870183931
4.791703999999999,4.353644178509811,0.10651700704124017
4.7941,4.375015660414338,0.10610007640131519
4.796495999999999,4.398249473438422,0.10566216553981957
4.798883999999999,4.418689789783171,0.10526802310709196
4.801264,4.440340810941419,0.1048448097120627
4.803668,4.4630627672863055,0.10440043923492989
4.806056,4.480430047697999,0.10407994975240302
4.808436,4.502732695162304,0.10367976037721499
4.810832,4.5218225370666945,0.10334954729358256
4.813224,4.547989616396974,0.10290461630453354
4.815604,4.575786709421331,0.10240038356067878
4.818007999999999,4.5955753994600235,0.10202768178163153
4.820396000000001,4.608426621699685,0.10176853038739417
4.822775999999999,4.616202707259876,0.10159811578561696
4.82518,4.6215573831930685,0.10149274593432304
