Time,Force,Position
6.720208,0.027647740188847456,0.0
6.722552,0.0390162460852091,0.0
6.7248920000000005,0.04945358642179242,0.0
6.727236,0.060170466012096156,0.0
6.72958,0.0708873456023999,0.0
6.731928,0.07867095888650846,0.0
6.734264,0.08231060105092311,0.0
6.736608,0.0870211784019763,0.0
6.738952000000001,0.09080059019325118,0.0
6.741292,0.09164673567833088,0.0
6.743636,0.0934240467231889,0.0
6.745980000000001,0.0992055592608806,0.0
6.748324,0.10298497105215546,0.0
6.750664,0.1039708861640954,0.0
6.753012,0.1050965709028955,0.0
6.755352,0.10509657090289554,0.0
6.757696000000001,0.1047717056788012,0.0
6.76004,0.10109426526793107,0.0
6.76238,0.09307833455834523,0.0
6.764724000000001,0.08599356940853771,0.0
6.767060000000001,0.07876903463186997,0.0
6.769408,0.06740052873550832,0.0
6.771752000000001,0.05696318839892501,0.0
6.774104,0.04624630880862127,0.0
6.776444,0.03552942921831752,0.0
6.7787880000000005,0.029662896605927185,0.0
6.781132,0.02794033511323075,0.0
6.783464,0.02794033511323075,0.0
6.785812,0.02686939992659222,0.0
6.788148,0.02952312697906697,0.0
6.790492,0.03217685403154172,0.0
6.792832000000001,0.029755444404544237,0.0
6.795176,0.03012753145688172,0.0
6.797524000000001,0.03315334556169395,0.0
6.799872000000001,0.03725009485314471,0.0
6.80222,0.041401593696757055,0.0
6.804568,0.04335647261493076,0.0
6.806904000000001,0.049595092279658574,0.0
6.809248,0.057890562242964835,0.0
6.811596,0.06311299627321572,0.0
6.813931999999999,0.065122624743551,0.0
6.816280000000001,0.06945921918439747,0.0
6.818620000000001,0.07696139735691639,0.0
6.820968000000001,0.08302055329045928,0.0
6.823312,0.0874496955299228,0.0
6.825652,0.09210362747094515,0.0
6.828000000000001,0.0966177897851073,0.0
6.830336000000001,0.10034055616635135,0.0
6.832684,0.10406332254759537,0.0
6.835027999999999,0.11099889448875502,0.0
6.837364000000001,0.11872586236283275,0.0
6.839704000000001,0.12766353505040923,0.0
6.842044,0.13688074699170616,0.0
6.844404000000001,0.1473086637465018,0.0
6.846752,0.15666564531465893,0.0
6.849096000000001,0.16802472762923287,0.0
6.851436,0.18054729292906246,0.0
6.85378,0.1899496004675935,0.0
6.856116,0.19693049837912702,0.0
6.858460000000001,0.21005746815677132,0.0
6.860800000000001,0.2285391138676083,0.0
6.863144,0.2442291587569795,0.0
6.865488000000001,0.2534482665561456,0.0
6.867828000000001,0.2651341099526832,0.0
6.870168,0.2793811326030784,0.0
6.872504000000001,0.29027558006669785,0.0
6.874848,0.30023886197053895,0.0
6.877188,0.3032646760753512,0.0
6.879532000000001,0.31108608760591516,0.0
6.881872,0.31085187432256867,0.0
6.884216,0.31019835215864155,0.0
6.886560000000001,0.3119190177934687,0.0
6.888896000000001,0.3093559426817418,0.0
6.89124,0.3033005227563789,0.0
6.893584000000001,0.2999913776821077,0.0
6.895924000000001,0.2982650244736728,0.0
6.898268,0.2948633316007846,0.0
6.900612000000001,0.28983352089168624,0.0
6.90296,0.2855025583168889,0.0
6.905296,0.2755373805551786,0.0
6.907644,0.26352288021880826,0.0
6.909988,0.25220533215886975,0.0
6.912332000000001,0.24326197189768553,0.0
6.914672,0.23236373271832764,0.0
6.917020000000001,0.22090641503152889,0.0
6.919368,0.21554794738259775,0.0
6.921704,0.21684740827897506,0.0
6.924052,0.22280269697424396,0.0
6.926396,0.22782682010973454,0.0
6.92874,0.23839261063352118,0.0
6.931084,0.2440702559329389,0.0
6.933428000000001,0.24537161268718544,0.0
6.935772,0.2548211420539596,0.0
6.938112,0.2686941817941481,0.0
6.94046,0.27595651481727135,0.0
6.942808000000001,0.2784232504146427,0.0
6.945148,0.28456742642288424,0.0
6.947492,0.29448159064061297,0.0
6.94984,0.3035571370971804,0.0
6.952188,0.31784758986008027,0.0
6.954528,0.3351185307574185,0.0
6.956868,0.3521571542292794,0.0
6.959216,0.37091833919383693,0.0
6.9615480000000005,0.3904709200913124,0.0
6.963892,0.40886001800353233,0.0
6.966240000000001,0.4167739773327134,0.0
6.9685760000000005,0.41938048255694493,0.0
6.97092,0.4270621244606488,0.0
6.973264,0.4333932919239936,0.0
6.975612,0.43688374087976045,0.0
6.977948,0.4478235143137537,0.0
6.980292,0.46034607961358326,0.0
6.9826440000000005,0.4681655952862781,0.0
6.984992,0.4734239317051152,0.0
6.987336000000001,0.4859918229753186,0.0
6.98968,0.5027036853652159,0.0
6.99202,0.5163897336503012,0.0
6.99436,0.5270499678305741,0.0
6.996700000000001,0.5371983453316493,0.0
6.999044,0.5436220605936113,0.0
7.001388,0.5441792432431829,0.0
7.003732000000001,0.5427343251463377,0.0
7.006076,0.5408700981689119,0.0
7.008412,0.5427305334305993,0.0
7.010748,0.5471049261179013,0.0
7.013096000000001,0.5587888736565696,0.0
7.01544,0.5656300019412428,0.0
7.01778,0.5639036487328078,0.0
7.020124000000001,0.5644589355245102,0.0
7.022468,0.5685065671298486,0.0
7.02482,0.5657565005630182,0.0
7.027156,0.5619354988095493,0.0
7.029504000000001,0.5561596181379068,0.0
7.031848,0.555086787093399,0.0
7.034192000000001,0.5496376675037201,0.0
7.036536,0.5426057560482052,0.0
7.038876,0.5360857012718876,0.0
7.041220000000001,0.5311484383614063,0.0
7.043556000000001,0.5299358376900384,0.0
7.045908000000001,0.5325876688846439,0.0
7.048256,0.537753457504864,0.0
7.050600000000001,0.5445020379909201,0.0
7.052944,0.5527408625441956,0.0
7.055288000000001,0.5555324633656613,0.0
7.057624000000001,0.5539477756419559,0.0
7.059968,0.5487781953059974,0.0
7.062316000000001,0.552176096463147,0.0
7.0646640000000005,0.5596254209413736,0.0
7.067,0.5624189176207086,0.0
7.069344000000001,0.5640017094865448,0.0
7.071696000000001,0.5690296243377739,0.0
7.074032000000001,0.5780617406818367,0.0
7.076372000000001,0.5922615415039888,0.0
7.078716,0.6029689975125048,0.0
7.081068,0.616050641319775,0.0
7.083404,0.6275022714329661,0.0
7.085748000000001,0.6403043759865161,0.0
7.088092,0.6533860197937866,0.0
7.090436,0.6628827709888039,0.0
7.092780000000001,0.6657215936385127,0.0
7.095124,0.6719129914749974,0.0
7.097476,0.6795946333787012,0.0
7.099816000000001,0.6862053400957665,0.0
7.102156000000001,0.6953300042384464,0.0
7.104508000000001,0.7097621224860757,0.00803947317472447
7.106848000000001,0.730572630025293,0.015584011163828595
7.109192,0.7480305623777347,0.023143845228182313
7.11154,0.7669315169691523,0.030565955867554173
7.113888000000001,0.7854131626799892,0.03835896322060326
7.116236000000001,0.8046862043237442,0.04600451068764874
7.118584,0.8233076196614413,0.05370671369318926
7.1209240000000005,0.8383441423868854,0.06151162088963435
7.123268,0.8471420454476017,0.06964997628440597
7.125616000000001,0.8542173870156216,0.07797354975702031
7.12796,0.8579873752251087,0.08648918490440809
7.130312,0.8649701689945114,0.0947480211719357
7.132652,0.8686003875771386,0.10347031109371836
7.135,0.8720908365329053,0.11212353765837593
7.137344000000001,0.8773038469813685,0.12071020422533366
7.139684000000001,0.8901059515349186,0.12881048240039866
7.142028,0.8976931497821361,0.13727101365445799
7.144372000000001,0.9059319743354116,0.14555273317124878
7.146712000000001,0.9153815037021857,0.1535521887388577
7.14906,0.929114773815514,0.16096301218935277
7.151403999999999,0.9411254824361459,0.16024924792462486
7.153752000000001,0.9487599025116065,0.15998071705221656
7.156088,0.9529491996016742,0.15995800153676962
7.158432,0.9552761655721853,0.16012608006602108
7.160780000000001,0.9617471026623904,0.15974389616346704
7.1631160000000005,0.964353607886622,0.1597955388333621
7.165464,0.9680310482974921,0.15969689205083604
7.167808000000001,0.9754331509474755,0.15923349362388042
7.170152,0.9862803765828518,0.1584520800992684
7.172499999999999,0.999129702964645,0.15740454516244004
7.174844,1.0143532171451926,0.15618069753301125
7.177200000000001,1.0295767313257398,0.15506070474640463
7.179536000000001,1.0489442166259815,0.15333358447040327
7.18188,1.0693826371128612,0.151540305885096
7.184224,1.0918231583461582,0.14962504001766175
7.186564000000001,1.109468082153703,0.14829795775812504
7.1889,1.1329795385736383,0.14637362757145853
7.191244000000001,1.1509040016349037,0.1449060214345767
7.193588,1.1636135583898366,0.1440500962227625
7.195932000000001,1.171108208838437,0.14387097834481885
7.198272000000001,1.175669592980842,0.14397429786929136
7.200616,1.1788805026828884,0.14430223905575285
7.202956,1.1914030679827181,0.1438446795106997
7.205296000000001,1.206207273282685,0.14312290955947585
7.207636000000001,1.2179384426495965,0.14272523396072084
7.20998,1.2315319431360645,0.1421234710994891
7.21232,1.248198479555588,0.14128524833677272
7.214664000000001,1.2591382529895814,0.140932674797818
7.217004000000001,1.2732908319834901,0.1402832160679081
7.219355999999999,1.2874434109773991,0.13965832292107094
7.221692000000001,1.300013198105472,0.13907401854336177
7.22404,1.308578783740711,0.1388380674398845
7.226383999999999,1.3155615775101137,0.13866765588673347
7.228736,1.3166778386671263,0.13897102360698538
7.23108,1.3139296679581651,0.13957574323590544
7.233424000000001,1.3141147635553994,0.1399393787965192
7.235768,1.3095042617268815,0.1406509800760856
7.238104,1.313553789190089,0.14071769488146402
7.240451999999999,1.324028927773128,0.1401704261755869
7.242788000000001,1.3315708000499715,0.1398195487883229
7.245132,1.3449792049392053,0.1390053521111559
7.247476000000001,1.3586671490821598,0.13807086231942825
7.24982,1.3619725024406923,0.13793350368346716
7.252172,1.3648585469186443,0.13792434923939664
7.254507999999999,1.3723078713968708,0.1374539777383779
7.256856000000001,1.3823183751289552,0.13669450561214616
7.259208000000001,1.386974202927847,0.13641980886712293
7.261547999999999,1.4001502903916037,0.1356342871444631
7.263892,1.4077393844966903,0.13518813713099903
7.266236000000001,1.415980104907835,0.13477281763901594
7.268575999999999,1.4278057179312331,0.13420203302804332
7.27092,1.441912970954768,0.13340464082647482
7.27326,1.4582546421501967,0.13262365985154265
7.275608,1.482464946704433,0.13132212071456367
7.277948,1.5078859560721682,0.12987930197869732
7.280292000000001,1.5334467350667635,0.12847749705812359
7.282640000000001,1.5611493844346356,0.12690356297704442
7.284976,1.5859187674963129,0.12563150521672614
7.287320000000001,1.607475344998075,0.12464401399177757
7.289664,1.6354575336196677,0.12320227300281401
7.292012,1.6612978518679833,0.12199414653762737
7.294348000000001,1.6937960986616079,0.12054673892651732
7.296692,1.732021108440762,0.11877708606397104
7.29904,1.7663816863539423,0.11718672407773244
7.301375999999999,1.7988327113193237,0.11593169568511996
7.303724000000001,1.8299332618443453,0.11485821624072776
7.306064000000001,1.8645261571830036,0.11353593291885011
7.308408,1.8926008936032133,0.11252482847316965
7.310748,1.926402393008953,0.11131902439558418
7.313092000000001,1.957969474242799,0.1101175083781893
7.315444000000001,1.98688282842417,0.10901511972848305
7.317784,2.0204520104044326,0.10781713835746669
7.320132000000001,2.051507234959081,0.1066808800446275
7.322476,2.081491524327091,0.10566752656495243
7.324816,2.1141295407475753,0.10462627159883237
7.327152,2.141832190115448,0.10375980886627813
7.329496000000001,2.1661822642965443,0.10305577949030091
7.33184,2.189461403291002,0.10241692126249655
7.33418,2.215394269337935,0.1017381030089615
7.336524000000001,2.237974560198092,0.10124903154913531
7.338868,2.2557592536324966,0.1008948027103655
7.341212,2.2659548529618156,0.10076837475772404
7.343552000000001,2.2742881211715775,0.10069145020005597
7.345896,2.2875567564339514,0.1004539640946551
7.348244000000001,2.2985909735244308,0.10019797728198693
7.350592000000001,2.3076230898684935,0.10000937735923555
7.352932000000001,2.312091926212282,0.1000444933040703
7.355276,2.319494028862265,0.09998908864937527
7.357620000000001,2.320750059646138,0.1001585972840872
7.359960000000001,2.3235888822958466,0.10032620838668516
7.362308,2.3284298056919717,0.10042773592729314
7.364651999999999,2.3284751316623455,0.10065605454261309
7.367000000000001,2.327589292072942,0.10090655187480271
7.369344,2.3220476246846458,0.10126159813008656
7.371688000000001,2.3125017558035155,0.10173992135727666
7.374036,2.308822419534777,0.10205053680579523
7.376384,2.3095665936394516,0.10217398728464991
7.378732000000001,2.3076570406916517,0.10234097949498457
7.381080000000001,2.3043044655048757,0.10248426887814052
7.383412,2.299089559198544,0.1026722393126331
7.385752,2.3010916599449605,0.10261011104631915
7.3881,2.3049560918109337,0.10250483628567263
7.39044,2.3118935596099623,0.10230036027424676
7.39278,2.3161773003565167,0.10214042480407175
7.39512,2.321252437035989,0.10198014487014567
7.397468,2.328329674461878,0.10175896135657553
7.399804,2.3368971559549863,0.10142697322985812
7.402148,2.3405292703954825,0.1012398801692937
7.404496,2.3490967518885904,0.1009059894216339
7.406836,2.355801902262142,0.10061446815783115
7.409176,2.359434016702638,0.10042864647414998
7.411519999999999,2.3612038000235778,0.10028322230432468
7.413868000000001,2.3697712815166865,0.09995939279439958
7.416204,2.3809924900622694,0.09959104272639142
7.418547999999999,2.3935641730482113,0.09913663079982998
7.420896000000001,2.4021316545413196,0.09881096477170181
7.423232,2.4102798271538473,0.09855371551582648
7.42558,2.42150103569943,0.0981971179597923
7.42792,2.428298733871599,0.09801617455085372
7.430268,2.4391006335366012,0.09771422849274565
7.432603999999999,2.4458983317087695,0.09754087913370073
7.434944,2.454558361000495,0.09733208543507003
7.437296,2.4570723184261096,0.0973145100189061
7.439640000000001,2.4595862758517244,0.09729735256000029
7.441984,2.463171168463978,0.09724287017647244
7.444328,2.465685125889592,0.09722621802059128
7.446671999999999,2.4723430544349005,0.09708194181147939
7.449008000000001,2.4879405515256545,0.0967095284015276
7.451352,2.498742451190657,0.0964442038741844
7.453692,2.5100562075348565,0.09621319850479618
7.456036000000001,2.51964740238636,0.09599194157992999
7.458375999999999,2.5309611587305607,0.09574866219474264
7.46072,2.5345460513428137,0.09569603005602016
7.46306,2.5385502528356474,0.09558811578819901
7.465403999999999,2.544277015821178,0.09546603995454975
7.467752000000001,2.5540079802995415,0.09524045897694675
7.470096,2.5613647569791507,0.09501245933510286
7.472448,2.5652291888451244,0.09492603457707421
7.474792000000001,2.573377361457652,0.09469331099764741
7.477136,2.5805943685104014,0.09448309329367431
7.479476,2.5875318363094304,0.09430973642050228
7.481812,2.5947488433621797,0.09410557986908447
7.484164,2.6081119222810396,0.09373090585472033
7.486504,2.622126627505958,0.09337823891319486
7.488848000000001,2.6350703975442373,0.09306289689629145
7.491192,2.64629160608982,0.09275725268317347
7.493532,2.6532290738888493,0.09259244081140831
7.495884,2.6512269731424327,0.09264086528333423
7.49822,2.6513667427692926,0.0926230833454634
7.500567999999999,2.65420746127687,0.09246879520453125
7.50292,2.6626351731431184,0.09222193715812152
7.505256000000001,2.6701317194495884,0.09198803679530934
7.5076,2.6782798920621156,0.09176887543754585
7.509944000000001,2.6832152591147276,0.0916519241652024
7.512288,2.6884301654210603,0.09150310401231129
7.514628,2.6897806398614192,0.09143510286784497
7.516972000000001,2.692713906167614,0.09137212433735223
7.51932,2.7019330139667805,0.09113230146657761
7.521652,2.7119435176988653,0.09089967873238552
7.523996,2.7196723814308124,0.0907475384167598
7.526344,2.7294033459091764,0.09055033811366929
7.528684,2.7347108000141254,0.09049677179481062
7.531024,2.7377366141189374,0.09052428076990202
7.53342,2.7410419674774698,0.09051847429520675
7.535804000000001,2.746349421582419,0.0904691522556698
7.538192,2.7555213075533422,0.09034877321883539
7.540588,2.76776622945732,0.09015522792620403
7.542975999999999,2.782944417667494,0.0898982533553011
7.54536,2.799845167370364,0.08963448617579339
7.547764000000001,2.8153954426328753,0.08944159438332315
7.550152000000001,2.8310854875222464,0.08924153969493646
7.552536,2.848917402784895,0.08898382943140008
7.55494,2.868099792487902,0.08866204321227909
7.557323999999999,2.8904949877508246,0.08825179882288021
7.559712000000001,2.9078150463342753,0.0879547439101347
7.562108,2.9279286015970616,0.08762053034953025
7.564496,2.947390530553789,0.08727148790549269
7.566892000000001,2.957912890965071,0.08709990828022528
7.569296,2.963919193204321,0.08697551562215948
7.571683999999999,2.970344804324152,0.0868007286709255
7.574088,2.9690415517120368,0.08676156837640624
7.57648,2.9702994783537786,0.08661201537989158
7.578868,2.969043447569906,0.08646966276183918
7.581264000000001,2.9657853160396157,0.08637124508440944
7.583655999999999,2.9595939182031312,0.08632990324415263
7.586044000000001,2.9514004196202297,0.08633087931251236
7.58844,2.941484359544632,0.0863392212073249
7.590835999999999,2.9286350331628386,0.08640586045173046
7.593228,2.911129878982154,0.0865402420386665
7.595628,2.8911107673758547,0.08668058266033195
7.598028000000001,2.8653648927840254,0.08691675376644016
7.600416000000001,2.841621118938613,0.08709803018777874
7.602812,2.816806409906562,0.0873088696897996
7.605216,2.791851931247651,0.08752783968249837
7.607604,2.77276398520113,0.08763915059667403
7.610004,2.751162081728994,0.08775161964144847
7.612396,2.7320741356824736,0.0878538648898179
7.614792,2.7251385637413144,0.08770225687105779
7.617188,2.7237899851588248,0.087481725973765
7.619576,2.7273767736289467,0.08717749033658634
7.621971999999999,2.738971965084737,0.08671554052919844
7.624364,2.752289718033223,0.08625324861242417
7.626752,2.7702632987806006,0.08573991227798351
7.629148000000001,2.79345178583431,0.08512346518316954
7.631544,2.820364935127134,0.08446993140635747
7.633932,2.8503511203530127,0.08376698814231597
7.636328000000001,2.879778227071451,0.0831245182242211
7.638724,2.91958792457431,0.08236667306990735
7.641112,2.9669867161822565,0.08152002302819027
7.643496000000001,3.017690861148736,0.0806790214616237
7.645892,3.074913165033663,0.07976768205551142
7.64828,3.13199569929173,0.07890777177229777
7.65066,3.190800795042494,0.07803911092933545
7.653055999999999,3.2511886826590937,0.07719715973193216
7.655444000000001,3.3065014335962215,0.07644987215148588
7.65784,3.3601841708392697,0.07577140716708185
7.660236000000001,3.4069294402832893,0.07519510888551091
7.662624000000001,3.4443158323012826,0.07482458984353157
7.665004,3.4795603539459985,0.07450824524958281
7.667403999999999,3.5105211348441605,0.0742916166990854
7.669792000000001,3.5413421461154617,0.07409805212318066
7.672172,3.5712319918269846,0.07391885432502052
7.674568000000001,3.5971176360456747,0.07379990377061024
7.676956000000001,3.617508834704312,0.07380218424535734
7.679336000000001,3.6341753711238347,0.0738351223994441
7.681732,3.646558166796804,0.07394960494219009
7.68412,3.658289336163716,0.07404483863551713
7.686504000000001,3.658846518813287,0.07422762513787527
7.6889,3.651674837730913,0.0744928549667801
7.691288,3.642128968849783,0.07474038895586103
7.693668000000001,3.6271358762368435,0.07501578801117456
7.696072000000001,3.6062762510115136,0.07535933385164337
7.698460000000001,3.5859757042936242,0.07564828204480967
7.700839999999999,3.5623698042172034,0.07592431244855385
7.703236,3.541185313767779,0.07613854714710944
7.705624,3.5242845640649088,0.07627620473569247
7.708007999999999,3.5136696558550096,0.07631039952876668
7.710404,3.503194517271971,0.07633424417077626
7.712788,3.488203320516901,0.0763838291579329
7.715172000000001,3.4754937637619676,0.076378743313884
7.717568,3.461992811074116,0.0763659873762895
7.719956,3.44541882245321,0.07640043780730417
7.722352000000001,3.4308469345787205,0.07640834126014727
7.724748,3.4125503844651175,0.07645084502304564
7.727136,3.3951849999112933,0.07648621751627115
7.729516,3.381451729797965,0.07641934981869292
7.731911999999999,3.370791495617692,0.07630343834124828
7.734300000000001,3.3650666284900312,0.07612349256948636
7.73668,3.364696437295563,0.07584104159988926
7.739079999999999,3.3636273979667934,0.07562237692601011
7.741468000000001,3.366422790503998,0.0753613503801055
7.743848,3.3702891182278405,0.07507531352719872
7.746248,3.3737361370711025,0.0748312678655814
7.748635999999999,3.3758326814740056,0.07463247012600302
7.751016,3.378720621809827,0.07444060343042266
