Time,Force,Position
9.958768,0.004949186630244087,0.0
9.961164,0.0019233725254318562,0.0
9.963552,0.0018308247268147963,0.0
9.965932,0.004986538280196369,0.0
9.968328,0.008933647766496054,0.0
9.970716,0.013811922812574057,0.0
9.973095999999998,0.016967636365955628,0.0
9.975492,0.020914745852255313,0.0
9.977875999999998,0.023651150525056258,0.0
9.980256,0.02652732482471741,0.0
9.982651999999998,0.02940349912437857,0.0
9.985039999999998,0.03148827749112161,0.0
9.987436,0.03250212067122612,0.0
9.989832,0.03250212067122612,0.0
9.99222,0.03379550310505105,0.0
9.994596,0.03570505605285084,0.0
9.996992,0.036207042553757667,0.0
9.99938,0.038850899427941545,0.0
10.00176,0.039632425182568785,0.0
10.004155999999998,0.04213651242989246,0.0
10.006543999999998,0.04263849893079928,0.0
10.00894,0.04241605168361288,0.0
10.011336,0.04126243887664816,0.0
10.013724,0.03810672532326659,0.0
10.016099999999998,0.03415961583696692,0.0
10.018508,0.02928134079088891,0.0
10.020892,0.026125627237507335,0.0
10.023276,0.02217851775120765,0.0
10.025672,0.01944211307840671,0.0
10.028056,0.01656593877874555,0.0
10.030435999999998,0.013689764479084397,0.0
10.032832,0.011604986112341354,0.0
10.03522,0.010591142932236841,0.0
10.0376,0.010591142932236841,0.0
10.039996,0.00929776049841191,0.0
10.042383999999998,0.0069334428779484454,0.0
10.044768,0.006431456377041624,0.0
10.047164,0.0037875995028577394,0.0
10.049551999999998,0.0030060737482304964,0.0
10.051948,0.0005019865009068224,0.0
10.054344,0.0,0.0
10.056732,0.0005945342995238819,0.0
10.059112,0.0022600037856862947,0.0
10.061508,0.005927574018265558,0.0
10.0639,0.009734913877705031,0.0
10.06628,0.014613188923783035,0.0
10.068676,0.023495665462694743,0.0
10.071064,0.03158674606868834,0.0
10.073444,0.03567362518184823,0.0
10.075848,0.03990027392186834,0.0
10.078236,0.047060188968083616,0.0
10.080616,0.05408033438743868,0.0
10.08302,0.05988977499329501,0.0
10.085408,0.06583898522601155,0.0
10.087788,0.07085702989894976,0.0
10.090184,0.07480413938524945,0.0
10.092572,0.07480413938524944,0.0
10.094952,0.07480413938524944,0.0
10.097352,0.07480413938524944,0.0
10.099736,0.07480413938524944,0.0
10.10212,0.07480413938524945,0.0
10.104516,0.07420960508572556,0.0
10.106904,0.07254413559956314,0.0
10.109284,0.06887656536698389,0.0
10.11168,0.0650692255075444,0.0
10.114068,0.0601909504614664,0.0
10.116447999999998,0.051308473922554707,0.0
10.118852,0.043217393316561104,0.0
10.12124,0.03913051420340121,0.0
10.123624,0.034903865463381104,0.0
10.12602,0.02774395041716583,0.0
10.128408,0.020723804997810763,0.0
10.130788,0.014914364391954437,0.0
10.133188,0.0089651541592379,0.0
10.135572,0.004354652330720205,0.0
10.137956,0.0028171864352578924,0.0
10.140352,0.009370801145789176,0.0
10.14274,0.012851379923265079,0.0
10.145124,0.015493340939579717,0.0
10.14752,0.027586727180537778,0.0
10.149908,0.04182198379477289,0.0
10.152288,0.054986305222369476,0.0
10.154684,0.0732257633294383,0.0
10.157072,0.09025451662300837,0.0
10.159468,0.10937791846161236,0.0
10.161864,0.128314328845113,0.0
10.164255999999998,0.14645934329569552,0.0
10.166636,0.16129900438774541,0.0
10.169035999999998,0.17585912622607486,0.0
10.17142,0.1856236506386525,0.0
10.1738,0.19417747023773135,0.0
10.176203999999998,0.19979802353061507,0.0
10.178591999999998,0.20779276462225316,0.0
10.180972,0.21937239832614425,0.0
10.183367999999998,0.22919401474525594,0.0
10.185752,0.23715330004481092,0.0
10.188132,0.2405493053440914,0.0
10.190535999999998,0.2523258006813768,0.0
10.192923999999998,0.26680324489938,0.0
10.195304,0.26731320572070844,0.0
10.1977,0.26447059135526113,0.0
10.200088,0.26241937292273193,0.0
10.202468,0.25538556560934744,0.0
10.204871999999998,0.24993455016179927,0.0
10.207259999999998,0.24774356210240983,0.0
10.20964,0.2436449169530898,0.0
10.212036,0.23712486217677234,0.0
10.214424,0.2347941044905226,0.0
10.216804,0.23311497311033083,0.0
10.219204,0.2416786628877006,0.0
10.221592,0.25345515822498593,0.0
10.223972,0.26774561098788585,0.0
10.226368,0.2792425670714508,0.0
10.228756,0.2848729905426254,0.0
10.231136,0.29357644994685533,0.0
10.233536,0.3009294349107263,0.0
10.23592,0.30763079356853945,0.0
10.238304,0.3102354029349018,0.0
10.240696,0.3091153500621509,0.0
10.243084,0.31223181610771095,0.0
10.24548,0.31735038289968787,0.0
10.247875999999998,0.324750589691802,0.0
10.250264,0.33298941424507744,0.0
10.252644,0.34350987879849015,0.0
10.255048,0.3474649626052114,0.0
10.257431999999998,0.3543060908898848,0.0
10.259812,0.3682244566004472,0.0
10.262216,0.38540284969916844,0.0
10.264604,0.40486288279802685,0.0
10.266984,0.41566288660515993,0.0
10.269379999999998,0.42553172485251467,0.0
10.271767999999998,0.43875313828664536,0.0
10.274148,0.4545357309746336,0.0
10.276552,0.4736708988493977,0.0
10.278935999999998,0.4901523396716871,0.0
10.281316,0.506354241240256,0.0
10.28372,0.5222766035551045,0.0
10.286103999999998,0.5395022184820688,0.0
10.288484,0.5604524956481465,0.0
10.290892,0.5832651039337808,0.0
10.293276,0.6068691081523332,0.0
10.295656,0.6281914723707481,0.0
10.298051999999998,0.6463010310292476,0.0
10.300436,0.6589633659559374,0.0
10.302816,0.667901038643514,0.0
10.305212,0.6745570713309532,0.0
10.307596,0.6778605288316166,0.0
10.309992,0.6768802455857258,0.0
10.312388,0.6713839041678036,0.0
10.314775999999998,0.6709626994293538,0.0
10.317156,0.6689114809968246,0.0
10.31956,0.6635076873775195,0.0
10.321943999999998,0.657824354504494,0.0
10.324324,0.6527926479375263,0.0
10.326719999999998,0.651345833982812,0.0
10.329104,0.6543225304015118,0.0
10.331488,0.6603722627532671,0.0
10.33388,0.6629768721196294,0.0
10.336268,0.6619965888737387,0.0
10.338664,0.659573283388872,0.0
10.34106,0.6575692867845859,0.0
10.343443999999998,0.6603608876060515,0.007122113838690157
10.345824,0.6632922580543774,0.007122113838690156
10.348232,0.6710192259284552,0.01430787369356684
10.350616,0.6854041223478414,0.021353320599503536
10.352999999999998,0.703001824327143,0.028268978564915094
10.355391999999998,0.7179457992539701,0.03549894692261502
10.357779999999998,0.7319586086210188,0.042897889558489645
10.36016,0.7450402524282892,0.042897889558489645
10.362555999999998,0.7551886299293644,0.042897889558489645
10.364944,0.7677584170574372,0.042897889558489645
10.36734,0.7827496138125073,0.05029683219436427
10.369736,0.7948075442613823,0.0578734389203755
10.372124,0.8003473157918091,0.0578734389203755
10.374503999999998,0.8001603243367057,0.0578734389203755
10.3769,0.795549822508188,0.0578734389203755
10.379283999999998,0.7930811910529475,0.0578734389203755
10.381668,0.7896813940379284,0.0578734389203755
10.384059999999998,0.7877246192618856,0.057873438920375504
10.386447999999998,0.7842776004186236,0.057873438920375504
10.388844,0.7793403375081422,0.057873438920375504
10.39124,0.7690956204927116,0.05075132508168535
10.393624,0.7623432482909169,0.05075132508168535
10.396007999999998,0.754659710529344,0.04356556522680867
10.398404,0.7471159423946311,0.03652011832087197
10.400792,0.7378496127672216,0.029604460355460417
10.403171999999998,0.7330067935132267,0.022374491997760485
10.405568,0.7281639742592316,0.01497554936188586
10.407956,0.7327725802298801,0.022491927720967787
10.410332,0.7421767836262804,0.029613274901279577
10.412731999999998,0.7494391166494035,0.03684733780455763
10.415119999999998,0.755630514485888,0.03659039067679844
10.417516,0.764755178628568,0.0359817755321727
10.419912,0.782400102436113,0.04263743598103523
10.4223,0.8059115588560483,0.04908549884646089
10.42468,0.8330551297164798,0.05531882852590505
10.427084,0.8524698368449642,0.06185565496772711
10.429472,0.8746780406527837,0.06832427141617543
10.431852,0.8991678844607405,0.07461864610257302
10.434248,0.9250082027090563,0.0809130207889706
10.436632,0.949545268345256,0.08722541033141473
10.439011999999998,0.9747339602875137,0.09358280472596868
10.441416,0.9993635737223305,0.09992153085704089
10.443804,1.0238534175302874,0.10619837157683074
10.446184,1.0452702254051889,0.11262644095400175
10.44858,1.0676181988398685,0.11899092206476634
10.450968,1.0854028922742736,0.12562300238180707
10.453352,1.105329456081956,0.13214127913667145
10.455748,1.114593889851496,0.13152582103516702
10.458132,1.1193422654490048,0.13133406288453756
10.460515999999998,1.1235787843673157,0.1310591267925578
10.46292,1.1258132025392096,0.131011724142014
10.465304,1.1252541240317688,0.13122541702130278
10.467683999999998,1.1209703832852145,0.1317514410331145
10.470084,1.1138931458593255,0.13248506262836313
10.472468,1.1076073043663544,0.1331309482213317
10.474851999999998,1.1070482258589136,0.13332163003786413
10.477256,1.1052784425379742,0.13367732363312318
10.47964,1.1004356232839791,0.13433368777350047
10.48202,1.0993174662690974,0.13469454878005263
10.48442,1.1007132666798305,0.13494790636803883
10.486808,1.1021090670905633,0.13520079918637065
10.489188,1.105506968247713,0.13528183619953404
10.491584,1.104760898285169,0.13575017889371926
10.493972,1.1070878642556803,0.13593327882466982
10.496351999999998,1.1103459957859696,0.13605396862218982
10.498756,1.1177480984359531,0.135788378244388
10.501144,1.1216578562723005,0.1359247745380554
10.503524,1.1306427507881203,0.13557336646255447
10.50592,1.1422813723564147,0.1350736947986521
10.508308,1.1552232465368246,0.1346069162626333
10.510692,1.1701672214636518,0.13394698531572222
10.513088,1.1868337578831751,0.1331827579051079
10.515472,1.20242935911606,0.1325149960327849
10.517855999999998,1.2180249603489453,0.1318472341604619
10.520252,1.229336820835276,0.1316632956915305
10.52264,1.23864658057519,0.13167217910870677
10.525036,1.2463735484492675,0.13171361956570557
10.527432,1.2599670489357357,0.13127966332545596
10.52982,1.268625182369592,0.13127861179909772
10.5322,1.2755607543107517,0.13136704883525888
10.534596,1.2806339951323547,0.13157592144776908
10.536984,1.2809116385282058,0.13215094199937114
10.539364,1.286124648976669,0.13230841230325652
10.541764,1.2896150979324355,0.13255805845365687
10.544152,1.2883099494624504,0.13318194051011675
10.546532,1.2859338658058268,0.1338972298054539
10.548928,1.2929166595752297,0.13376207918808017
10.551316,1.2977575829713552,0.13382758211174473
10.553696,1.2985943048746473,0.1342130355085341
10.556092,1.3001298749122405,0.13439457857390746
10.55848,1.301385905696113,0.13465313381066812
10.560876,1.300779605360429,0.1350291391677787
10.563272,1.3029668017040799,0.13522738913039478
10.56566,1.3056658547269286,0.13548290776831612
10.56804,1.3098551518169965,0.13551839906390595
10.570436,1.3189798159596764,0.1352020394444256
10.572824,1.3336914734610263,0.13456219519424895
10.575208,1.337321692043653,0.13475494037912783
10.577604,1.3441647161861956,0.13466380896503857
10.579988,1.350728201075018,0.13464501386328334
10.582368,1.3619475137627315,0.13433898812058173
10.584772,1.3770312583164186,0.13375796795653982
10.58716,1.3911838373103276,0.133254521345502
10.58954,1.407990143356711,0.13265442137604633
10.591936,1.4295920468288466,0.13171896224049892
10.59432,1.4525444247413413,0.13066705900715286
10.596699999999998,1.467348630041308,0.13027902689934684
10.599108,1.485737727953528,0.1297339082708716
10.601492,1.506268696239025,0.12898843398556809
10.603872,1.52759106045744,0.12827769437608244
10.606276,1.5504036687430742,0.12741759377124545
10.608664,1.575078608148265,0.1264498304190925
10.611044,1.5980309860607596,0.12556335692314272
10.61344,1.6226133776673333,0.1244968394475539
10.615828,1.6477076259531047,0.1234896282550976
10.618208,1.6640020753202909,0.12298709074967769
10.620612,1.673359056888448,0.12288022427987903
10.622996,1.693937247002188,0.12204425366878761
10.62538,1.7115821708097332,0.12139050601018349
10.627776,1.7316485042442755,0.12053915889014138
10.630164,1.7501320458129817,0.11974958171406186
10.632544,1.7675446521950493,0.11905315606216561
10.634948,1.788309833763893,0.11816975691691695
10.637332,1.8061417490265412,0.11745001357970636
10.639712,1.822762959475691,0.11683795588328821
10.642108,1.834960659551426,0.1165073701269055
10.644492,1.84836906444066,0.1160751700484007
10.646892,1.8604742167177781,0.1156221684458678
10.649288,1.8740223912338725,0.11518409992888115
10.651672,1.8872910264962461,0.11481795855443275
10.654056,1.8982780217584827,0.11460648029079798
10.65646,1.9081940818340803,0.11445188012068318
10.658843999999998,1.9236971352683485,0.11412549941292671
10.661224,1.9361271527695612,0.11394926088051523
10.663619999999998,1.949116248778214,0.11367860067959668
10.666007999999998,1.9669009422126194,0.11321052719465749
10.668392,1.9929735778864126,0.11234891913650626
10.670787999999998,2.0142506161344538,0.11171111934992624
10.673172,2.036319050315413,0.11105924597860777
10.675556,2.055034909309596,0.11060041345365411
10.677952,2.075892638677057,0.11006649951921718
10.68034,2.097029907298238,0.10949528929905059
10.68272,2.109879233680031,0.10928269617898881
10.685116,2.119935063382489,0.10914223196273448
10.6875,2.1334832378985835,0.10881645320368823
10.689896,2.153317253907648,0.10822057367829784
10.692291999999998,2.175432909916851,0.1075213178687526
10.694679999999998,2.1961980914856936,0.10692470864677392
10.69706,2.2164514163753397,0.10629278725803955
10.699455999999998,2.2317693742123734,0.10581995902094624
10.701844,2.249229202422684,0.10525925201940098
10.704224,2.2673878787672956,0.10458818756980018
10.70662,2.2751639643274864,0.10421603404216853
10.709008,2.283731445820595,0.1038377718435495
10.711403999999998,2.288946352126927,0.10362243577567154
10.7138,2.295371963246758,0.10334274808007923
10.716183999999998,2.299795473620173,0.10314733313087565
10.718564,2.302728739926368,0.10305770341687594
10.720959999999998,2.306872711046062,0.10290368241375314
10.723344,2.3142294877256715,0.10261905753785341
10.725728,2.313018782912173,0.10268491469874785
10.728124,2.310737142912035,0.10279428717208726
10.730508,2.3166036755244255,0.10261428702674466
10.732904,2.328336740749206,0.1022535755985545
10.7353,2.3327130292943776,0.10218244142603335
10.737688,2.3300120804136597,0.10235404798168365
10.740068,2.319814585226472,0.10284201709762189
10.742463999999998,2.311758960412561,0.1032354739379251
10.744851999999998,2.299978673359537,0.10372728725986415
10.747232,2.2934132926128457,0.10401996226853928
10.749636,2.280841609626904,0.10452844073650862
10.752024,2.268642013693299,0.10509345449899594
10.754404,2.2671045477978375,0.10533019498980874
10.756799999999998,2.2675691826487925,0.10549746053231769
10.759184,2.275111054925636,0.10542086815797533
10.761568,2.2817217616427015,0.10537060680005565
10.763972,2.282046626866795,0.10555482301474121
10.76636,2.2860036065313856,0.10554935034883257
10.76874,2.2918229173155327,0.1055042798271556
10.771135999999998,2.294708961793485,0.10554240177616
10.773523999999998,2.3061624877645452,0.10524750791955655
10.775904,2.3184074096685237,0.1049527404861396
10.778299999999998,2.3258567341467504,0.1047901320664389
10.780688,2.329162087505283,0.10476909992720572
10.783072,2.338753282356787,0.10452741843025194
10.785467999999998,2.3536991531414833,0.10408314386389754
10.787852,2.377864131725346,0.10332190108964366
10.790252,2.398024908816375,0.10268611568844228
10.792648,2.425123153706432,0.10185399676187606
10.795036,2.451430002663572,0.10104667746575552
10.797415999999998,2.4826722186733226,0.10007180462618999
10.799812,2.515264909123433,0.09903822843110055
10.802196,2.5362643039756225,0.0983124703086896
10.804579999999998,2.5584744036413114,0.09755470549403873
10.806976,2.572536330694472,0.09704953294454417
10.809364,2.584456387374356,0.0966195355317418
10.811744,2.601591350360573,0.09601346543472816
10.814139999999998,2.618307004466209,0.09548234827308394
10.816527999999998,2.6310184570790107,0.09506616308427528
10.818924,2.643590140064953,0.09466274934657912
10.82132,2.649736211931064,0.09448010016196633
10.823708,2.6540199526776185,0.09433267436421994
10.826088,2.6597467156631485,0.09420462830850586
10.828484,2.669617449768373,0.09394962498261607
10.830872,2.6744130471941245,0.09384200468488303
10.833256,2.6766474653660186,0.09386288429839086
10.83566,2.6768797827914965,0.09393553176001787
10.838048,2.682047467269585,0.09389023883310768
10.840428,2.6827916413742603,0.09399818905441353
10.842824,2.6832562762252143,0.09414007484110383
10.845212,2.680647875143113,0.09436474628789208
10.847596,2.6768287692475137,0.09463585633754025
10.849992,2.6826008582034175,0.09471900766499346
10.85238,2.6843687456664878,0.09489799856950994
10.85476,2.6936331794360275,0.09485171800099321
10.85716,2.7038287787653466,0.09478825033180081
10.859548,2.71109111178847,0.0947887305477214
10.861928,2.7154201785053975,0.09485143773293568
10.864324,2.7178869141027695,0.09494479682793996
10.866712,2.727291117499169,0.09488106463194988
10.869096,2.7429811623885403,0.09464042504635943
10.871492,2.7649570487708823,0.09423716592749515
10.87388,2.787492013660666,0.09377204431988845
10.876259999999998,2.808444186684613,0.09331880435956068
10.878656,2.8335403308282534,0.09276174259578013
10.881044,2.8609181149720313,0.09213201035967511
10.883428,2.8821498272496986,0.09164312320302216
10.885824,2.899377338034532,0.09124765817440081
10.888212,2.916884388073086,0.09081730612250187
10.890591999999998,2.9322495677383635,0.09044537195161524
10.892988,2.9526898840831124,0.08995500450880219
10.895376,2.9728506611741414,0.08949942991020243
10.897759999999998,2.9891470063991967,0.08912513884846625
10.900156,3.0083766179304465,0.08869754249063551
10.902544,3.0201096831552277,0.08847675227942285
10.90494,3.0351953235667835,0.08816006364343543
10.907336,3.05000142472462,0.08786963131854694
10.909724,3.0668096266288734,0.08753605425161015
10.912104,3.0894843611455167,0.08709098174713925
10.9145,3.1032195271167136,0.08683280307419518
10.916888,3.1156042186475528,0.08664054190344359
10.919268,3.1206321334987814,0.08662817508118413
10.921672,3.12510096984257,0.0866760900326537
10.92406,3.1259376917458614,0.08685004621170735
10.92644,3.125563708835655,0.08706382776461345
10.928836,3.1243983299925295,0.08727206461049263
10.931224,3.130449958202154,0.08732729712383365
10.933608,3.1386434567850556,0.08733016026985478
10.936004,3.1480476601814558,0.08729346941254676
10.938392,3.159733503577993,0.08718958108632194
10.940776,3.17263005178803,0.08705353284716816
10.943172,3.1840835777590906,0.08689558911379279
10.94556,3.1944661685435123,0.0867614921234533
10.94794,3.20056501858138,0.08672777495101505
10.950336,3.2129497101122175,0.086555600300423
10.952728,3.2210506608965024,0.08648689669811634
10.955108,3.229291381307647,0.08640167779270154
10.957504,3.2316655691064016,0.08641121292997958
10.959892,3.2300355554123223,0.0864949993467665
10.962272,3.2316183472781583,0.08650124680853706
10.964672,3.2316183472781583,0.08650124680853705
10.96706,3.234039756905156,0.08641955285497928
10.96944,3.2351579139200375,0.08630230276254841
10.971836,3.2406995813083332,0.08606520951594723
10.974224,3.244518687203933,0.08583692627933898
10.976608,3.244193821979839,0.08569802628073019
10.979004,3.240795920822689,0.08562349961885463
10.981392,3.236327084478901,0.08557466426993483
10.983788,3.2305077736947543,0.08558008949606
10.986188,3.2248282325374675,0.08556997668606618
10.988575999999998,3.2131423891409296,0.08566492045846329
10.990956,3.201456545744392,0.0857600671681024
10.993351999999998,3.1921921119748524,0.08577604459641815
10.995739999999998,3.183346987085893,0.08575132683066479
10.99812,3.1704976607040996,0.0857968570209787
11.000516,3.1602095135761643,0.08574791659321662
11.002904,3.1572781431278383,0.08554180613147234
11.005284,3.1626347149189,0.08516929714684063
11.007684,3.1714836315235977,0.08469920465770461
11.010068,3.1815432529417946,0.08419538938488842
11.012452,3.191602874359991,0.08369285729424078
11.014848,3.199380855778051,0.08324892901589295
11.017236,3.209952333875445,0.08278008190631914
11.019616,3.2175905456666447,0.08235654548505442
11.022012,3.2260201533907615,0.08193663511916059
11.0244,3.2412474592870475,0.08142542432957106
11.026784,3.2596875707432487,0.0808539934101946
