Time,Force,Position
9.32234,0.0,0.0
9.324735999999998,0.0,0.0
9.327123999999998,0.0,0.0
9.329504,0.0,0.0
9.3319,0.0,0.0
9.334288,0.0,0.0
9.336668,0.0,0.0
9.339071999999998,0.0,0.0
9.341459999999998,0.0,0.0
9.34384,0.0,0.0
9.346236,0.0,0.0
9.348624,0.0,0.0
9.351004,0.0,0.0
9.3534,0.0,0.0
9.355784,0.0,0.0
9.35818,0.0,0.0
9.360575999999998,0.0,0.0
9.36296,0.0,0.0
9.365344,0.0010729623344080395,0.0
9.367748,0.0029373206017341887,0.0
9.370131999999998,0.0029373206017341887,0.0
9.372516,0.00745540592153509,0.0
9.374907999999998,0.00917999456200103,0.0
9.377296,0.01290668394888382,0.0
9.379676,0.01556243814912808,0.0
9.382079999999998,0.02022029309578919,0.0
9.384467999999998,0.02501791766931051,0.0
9.386848,0.03088647742947036,0.0
9.389252,0.041038777936184344,0.0
9.391635999999998,0.054124344749093486,0.0
9.394016,0.06599920674850389,0.0
9.396416,0.07759452949419388,0.0
9.398799999999998,0.08825868668010554,0.0
9.401184,0.09692074311960036,0.0
9.403579999999998,0.10558279955909518,0.0
9.405964,0.11345346006567188,0.0
9.408348,0.12132412057224859,0.0
9.410752,0.12705291070554822,0.0
9.413135999999998,0.12798407626532654,0.0
9.41552,0.12654105402635055,0.0
9.417924,0.1298484345326527,0.0
9.420308,0.1308721478910481,0.0
9.422691999999998,0.13562052348855677,0.0
9.425088,0.1402291294592052,0.0
9.427471999999998,0.14753868431057157,0.0
9.429852,0.15349776472157897,0.0
9.432251999999998,0.15945684513258634,0.0
9.434639999999998,0.16606755184965163,0.0
9.43702,0.16639241707374597,0.0
9.439415999999998,0.16178191524522828,0.0
9.441803999999998,0.15852188785706955,0.0
9.444184,0.153958607856795,0.0
9.44658,0.1523285941627156,0.0
9.448968,0.15363184677483138,0.0
9.451363999999998,0.1566576608796436,0.0
9.45376,0.1616855757308727,0.0
9.456148,0.1690876783808561,0.0
9.458528,0.1823090918149867,0.0
9.460932,0.20563355677981862,0.0
9.46332,0.22933010879698804,0.0
9.465699999999998,0.2520501692840052,0.0
9.468096,0.26978953674803646,0.0
9.470479999999998,0.29032240089140265,0.0
9.472863999999998,0.31006386910185074,0.0
9.47526,0.32440343955086304,0.0
9.477643999999998,0.3362290525742608,0.0
9.480028,0.3445623207840225,0.0
9.48242,0.3467495171276735,0.0
9.484808,0.352893693135915,0.0
9.487203999999998,0.3618313658234915,0.0
9.4896,0.36755623295115236,0.0
9.491988,0.37416504381034843,0.0
9.494367999999998,0.38058686321444113,0.0
9.496772,0.3901742663502063,0.0
9.49916,0.3981788776201352,0.0
9.50154,0.4029706833301485,0.0
9.503936,0.4025948045620726,0.0
9.506324,0.39351357053189734,0.0
9.508703999999998,0.37633138571743774,0.0
9.511108,0.3642243375824503,0.0
9.513496,0.3495561101936053,0.0
9.515876,0.33814601433504965,0.0
9.518272,0.3205898466103833,0.0
9.52066,0.29991342112441843,0.0
9.523039999999998,0.28659377231806304,0.0
9.525436,0.27220318832506907,0.0
9.527824,0.2628877410115473,0.0
9.530203999999998,0.2595785959372762,0.0
9.5326,0.25752737750474697,0.0
9.534987999999998,0.2554761590722177,0.0
9.537368,0.2586398469460209,0.0
9.539763999999998,0.2629216918347058,0.0
9.542151999999998,0.2620830740735446,0.0
9.544548,0.2514209440354024,0.0
9.546944,0.238477173997123,0.0
9.549332,0.22911829657109664,0.0
9.551711999999998,0.22134221101090654,0.0
9.554108,0.22324986810083708,0.0
9.556496,0.22511030336252447,0.0
9.558875999999998,0.22548049455699268,0.0
9.561272,0.22808510392335504,0.0
9.563655999999998,0.2266855117968837,0.0
9.56604,0.22556545892413277,0.0
9.568435999999998,0.22784520306640077,0.0
9.570823999999998,0.22588842829035782,0.0
9.57322,0.23180028687312212,0.0
9.575616,0.23491864877655141,0.0
9.578004,0.24166912512047692,0.0
9.580384,0.2421337599714315,0.0
9.58278,0.2407360637028294,0.0
9.585168,0.23957068485970456,0.0
9.587547999999998,0.2442246168007269,0.0
9.589952,0.2576311258320917,0.0
9.592336,0.28155999527473835,0.0
9.59472,0.3073511958369416,0.0
9.597116,0.3282070293465329,0.0
9.599504,0.351064963602541,0.0
9.601883999999998,0.36647357338032266,0.0
9.604284,0.3840712753596244,0.0
9.606672,0.3965012928608369,0.0
9.609051999999998,0.4009229073763819,0.0
9.611456,0.41270129857153653,0.0
9.61384,0.4304859920059417,0.0
9.616219999999998,0.447711606932906,0.0
9.618624,0.4679630359646826,0.0
9.621012,0.4835114153693244,0.0
9.623392,0.5035758529459975,0.0
9.625784,0.5180060753357577,0.0
9.628172,0.5365802688452117,0.0
9.630551999999998,0.5591586638474995,0.0
9.632948,0.5798747277302305,0.0
9.635336,0.5903479704554,0.0
9.637732,0.5925804927694249,0.0
9.640128,0.5889464824710593,0.0
9.642512,0.5873145729191107,0.0
9.644892,0.5946222319126078,0.0
9.647288,0.6050029268391602,0.0
9.649676,0.6186889751242455,0.0070772893036251715
9.652055999999998,0.6335385063945862,0.014076411736836585
9.65446,0.6536954917698764,0.020909212898254363
9.656848,0.6858650816236678,0.027251915911381635
9.659232,0.7148218659175435,0.03362425022879717
9.661635999999998,0.7409851535320843,0.03987607247093189
9.66402,0.7654258796539286,0.04619778273560755
9.6664,0.7865612524172404,0.052591962674593165
9.668796,0.8073245381282146,0.059037905758865035
9.671184,0.822640600107379,0.06569407170356417
9.673564,0.8397264454074831,0.07211079404729806
9.675968,0.856672521080727,0.07845349706042534
9.678356,0.8721283526867517,0.0848046507249072
9.680736,0.8847906876134415,0.09146055686417491
9.683132,0.9041109510854397,0.09793973426424249
9.68552,0.9268763375428307,0.10444585135012972
9.6879,0.9496417240002218,0.11107599636153805
9.690304,0.9685426785916394,0.11797019746288845
9.692688,0.981716870197527,0.12491820063523004
9.695072,0.9898159251239421,0.1320642374485911
9.697475999999998,0.9986138281846584,0.13193495131730754
9.69986,1.0038268386331215,0.1321178162402245
9.70224,1.005594726096192,0.13256231750669306
9.704639999999998,1.0048486561336476,0.1331138155949162
9.707024,1.002380024678407,0.1337764136993733
9.709404,0.9985609187828073,0.13467062827059964
9.711807999999998,0.9971160006859622,0.13548053018122247
9.714196,0.9980452703878713,0.13620434857955452
9.716576,1.000836871209337,0.13676170898924375
9.718972,1.0074929038967761,0.1369527096834113
9.72136,1.0114479877034976,0.13760973659567172
9.72374,1.0120504963234431,0.13872190562016384
9.726136,1.0112099827044125,0.1398256239933014
9.728524,1.0170746194589335,0.14003826944775824
9.730908,1.017492032481645,0.14066422085401248
9.733311999999998,1.015395488078742,0.1414353700653693
9.735699999999998,1.0140903396087568,0.14219013512590162
9.73808,1.0197226589378006,0.14221262159749307
9.740476,1.026425913453483,0.14210666669711788
9.742864,1.0334087072228857,0.14187731745669865
9.745244,1.0395528832311274,0.14196235737222074
9.747647999999998,1.0492819518516219,0.1417568157636828
9.750035999999998,1.0598024164050346,0.14150283246566867
9.752416,1.064176809092337,0.14196971805233552
9.754812,1.0714844680858338,0.14213095653056831
9.7572,1.0777211918926923,0.14241166619786472
9.75958,1.0835858286472135,0.14257357830870673
9.761979999999998,1.0884267520433393,0.14260343744991757
9.764364,1.0916848835736286,0.14269991779000443
9.766748,1.0921495184245833,0.14303157040924191
9.76914,1.09196252696948,0.14335419119578421
9.771528,1.0972699810744295,0.14295126734424463
9.773924,1.103368831112297,0.14251971443649744
9.776319999999998,1.10462486189617,0.14281648533104543
9.778707999999998,1.1114678860387124,0.14265334794274906
9.781092,1.1257602346594813,0.14192880723176154
9.783496,1.143265388840166,0.14088781165762537
9.78588,1.1547642407816003,0.14044747090563017
9.78826,1.1641212223497575,0.14021908045891954
9.790655999999998,1.1772028661570277,0.13974419162564722
9.793043999999998,1.1911231277254595,0.13902412068011333
9.795428,1.205602467801332,0.138187110666705
9.797824,1.2220839086236213,0.13720873439831305
9.800211999999998,1.2414986157521057,0.1359272872031211
9.802592,1.2599821573208119,0.1347647581426478
9.804996,1.2807473388896553,0.1333267910514527
9.807384,1.3004415852718605,0.13202204615477459
9.809763999999998,1.3210197753856006,0.1309085090499095
9.81216,1.3421098221785381,0.12986524108451492
9.814547999999998,1.3657138263970907,0.12872138235015554
9.816928,1.394113428041395,0.12723575832810988
9.819323999999998,1.419020684872063,0.1261880099423707
9.821711999999998,1.4429967761429527,0.12520025626979506
9.824096,1.4692545074139798,0.12398897479264279
9.826491999999998,1.492718742005672,0.12300102438573761
9.828879999999998,1.5095250480520557,0.12247368630367024
9.831264,1.523258318165384,0.12218631152766242
9.833659999999998,1.5402043938386278,0.1216548228369771
9.836047999999998,1.5603632750717875,0.12087954826159603
9.838428,1.5775888899987516,0.1203055762355914
9.840827999999998,1.59132216011208,0.12002874209583156
9.843215999999998,1.6026340205984106,0.11998680883409309
9.845596,1.6127351762712432,0.12005937225484117
9.847995999999998,1.6239072671307138,0.12005638233146666
9.850383999999998,1.6340084228035456,0.1201296160432609
9.852764,1.6450407440361559,0.12016785505567185
9.855163999999998,1.6560730652687665,0.12020609406808277
9.857551999999998,1.6631484068367863,0.12028927997664776
9.859932,1.6695721220987483,0.12035027039022274
9.862332,1.6773463118010694,0.12028352837786971
9.864719999999998,1.681535608891137,0.12035009053245725
9.8671,1.6850732796751469,0.12039241382915063
9.869504,1.6906130512055737,0.12032506688324587
9.871892,1.6912174556833885,0.12051916263142294
9.874271999999998,1.6915423209074827,0.12077482726184398
9.876676,1.6900048550120204,0.12112345240842212
9.87906,1.688467389116558,0.12147328012777221
9.881439999999998,1.6846482832209584,0.12199983790145917
9.883836,1.6798980117655806,0.12255391632909804
9.886224,1.6763584451237017,0.12300165413791103
9.888604,1.6781735544150151,0.12309198540198038
9.891012,1.6794768070271309,0.1231316844663422
9.893396,1.6794768070271309,0.1231316844663422
9.895775999999998,1.678266102213632,0.12323390460426963
9.898172,1.676264001467215,0.12334850607575687
9.90056,1.6742619007207982,0.12345868921068896
9.902943999999998,1.674913527026856,0.12347846133145902
9.90534,1.6808726074378633,0.12332267823988873
9.907728,1.6868316878488707,0.12316689514831841
9.910108,1.6889263363939047,0.12319774072549619
9.912503999999998,1.6933951727376928,0.12320167572423543
9.914891999999998,1.7002854187084786,0.12301689002051777
9.917272,1.7062444991194863,0.12287562813915595
9.919671999999998,1.7171389465831055,0.12248694074247878
9.922059999999998,1.7284527029273054,0.12201014999373543
9.92444,1.7467039270705347,0.1211924100545279
9.926835999999998,1.7684474960273995,0.12015852004300247
9.92922,1.7915415394246235,0.1190088909820285
9.931615999999998,1.8152872091279053,0.1179096851498014
9.934012,1.8367512388310496,0.11696061636506086
9.9364,1.8548626933474182,0.1162482044203189
9.938779999999998,1.8774902060358183,0.1154201889807407
9.941176,1.9024919065229728,0.11458457448761837
9.943559999999998,1.927912915890708,0.11366514342994419
9.945944,1.9539855515645008,0.11274806907685513
9.948335999999998,1.9763335249991805,0.11196593159931101
9.950724,1.9933740443289107,0.11132990640258432
9.953119999999998,2.0089715414196654,0.11070555580142624
9.955524,2.025639973697058,0.11003244146684366
9.957908,2.0403063052280337,0.10942362180407542
9.960287999999998,2.0536693841468936,0.10878518962862119
9.962692,2.0663336149314526,0.10828702510078621
9.96508,2.0751334138500384,0.1079294468000716
9.967456,2.0822106512759273,0.1076150506327034
9.96986,2.0908706805676527,0.10729619306180276
9.972248,2.0944555731799057,0.10720551889648197
9.974628,2.0916148546723274,0.10743480642333703
9.97702,2.0867720354183326,0.10774512668419138
9.979408,2.077273388365446,0.10820485883320449
9.981787999999998,2.070196150939557,0.10850698300678584
9.984188,2.063817761647969,0.1086842069062201
9.986576,2.051712609370851,0.10905510096467538
9.988955999999998,2.0368139604143978,0.1095124611539486
9.991352,2.0245690385104194,0.1098957883563397
9.993735999999998,2.011672490300383,0.11026568838610377
9.996132,2.001569438769682,0.1105533901789376
9.998528,1.9958426757841516,0.11074938205718479
10.000916,1.988485899104542,0.11109503321233544
10.003296,1.9777765472381565,0.11163175358783861
10.005692,1.9727939583573013,0.11196968942377558
10.00808,1.9653899598494489,0.11247144298495093
10.010459999999998,1.9562633998488999,0.11301258785482558
10.012864,1.950070106154546,0.11344792726086625
10.015252,1.9426661076466931,0.11396911173761413
10.017632,1.930746050966809,0.11463026059804952
10.020036,1.9189657639137851,0.11527768529398218
10.02242,1.9110499087267347,0.1157791319157571
10.024804,1.9040652190994627,0.11625023639017974
10.027196,1.9040179972712195,0.11640196613123616
10.029584,1.902340761748897,0.11671815386701
10.031964,1.9008958436520518,0.11712999703640936
10.034368,1.8985197599954282,0.11758925616005117
10.036756,1.9002876474584987,0.11782650897365572
10.039136,1.8984706423093158,0.11816855076865317
10.041532,1.901589004212745,0.11829254791877711
10.043916,1.9099222724225067,0.11817137085226632
10.046295999999998,1.915601813579794,0.11811413212296544
10.048696,1.9230511380580206,0.11788215492820653
10.05108,1.9370658432829384,0.11731425461852724
10.053463999999998,1.947355886268743,0.11686796614589497
10.05586,1.965654332240215,0.1161221670446239
10.058243999999998,1.9862344182118246,0.11525274288340556
10.06064,2.010818705676267,0.11426117433354589
10.06304,2.0395469642604045,0.11311201092842021
10.065424,2.07493315138985,0.11176407867313488
10.067808,2.1131128351986304,0.11034463046526408
10.070211999999998,2.1483592527012156,0.1090061305391131
10.072596,2.1854680013233576,0.10763331555596531
10.074976,2.218572548452666,0.10645899441571278
10.077376,2.2511652389027765,0.10522161559736468
10.07976,2.2840374686066074,0.10394888780173722
10.082144,2.3237073964826065,0.10245637365190792
10.08454,2.3581624180522733,0.1011951021508206
10.086924,2.3904755692486637,0.09999501359959054
10.089303999999998,2.4178533533924416,0.09899902884787619
10.091708,2.434941094550415,0.0984115110575343
10.094096,2.4517492964546674,0.09785524819074677
10.096476,2.4670672542917016,0.0974173785228384
10.098872,2.4770305361955427,0.09721358671528013
10.10126,2.489787314778719,0.09694466028256772
10.10364,2.4937442944433097,0.09694072247193579
10.106036,2.4994238356005964,0.09691839425419183
10.108424,2.497886369705134,0.09714097003344918
10.11082,2.493136098249756,0.09748014190299492
10.113224,2.4835902293686267,0.09793100700973241
10.115612,2.4723217989948,0.09839486109415643
10.117992,2.467339210113945,0.09864311479844984
10.120387999999998,2.457561023807338,0.09900754585098218
10.122775999999998,2.4459205063811744,0.09941497530061026
10.125156,2.436421859328288,0.09974262649116572
10.12756,2.4259920467156233,0.10008730991536216
10.129943999999998,2.409835471117429,0.10055848780219229
10.132324,2.396891701079149,0.1009189718801798
10.134728,2.3936788955192334,0.10103024158469738
10.137116,2.392328421078874,0.10110529988974248
10.139495999999998,2.393119817011792,0.10110559987934352
10.141892,2.396332622571708,0.10098905921553955
10.144279999999998,2.3976830970120666,0.10090995332879858
10.14666,2.3988938018255657,0.10084957182253294
10.149055999999998,2.400384045892785,0.1007514923169553
10.151443999999998,2.405878491452838,0.10053337961359096
10.153824,2.4064375699602785,0.10045448525243975
10.156228,2.412211554774052,0.10019547523195751
10.158616,2.4190564747744636,0.09989749291659464
10.160996,2.425761625148015,0.09961534268318979
10.163391999999998,2.4341893370142635,0.09931694697295697
10.165776,2.439124704066875,0.09918264722728165
10.16816,2.450997538918516,0.09885907778016581
10.170555999999998,2.4684573671288272,0.09842667284709108
10.172944,2.486568821645196,0.09802544648415139
10.175324,2.5038888802286463,0.09762242588984
10.17772,2.5240024354914317,0.09716094273945344
10.180108,2.5430450555675783,0.09674174523650797
10.182488,2.554358811911779,0.09651781586111648
10.184884,2.5656725682559793,0.09629696232401178
10.187272,2.5809905260930126,0.09597162614696511
10.189656,2.5998933765423,0.09561554435366179
10.192052,2.6237315940441985,0.09514546076689631
10.19444,2.651853552292651,0.09454618106948433
10.196836,2.679835740914244,0.09398529013517593
10.199232,2.707538390282117,0.0934658359360584
10.201615999999998,2.7391054715159626,0.09286529023718527
10.204,2.768949991257112,0.0922920440572577
10.206395999999998,2.7980031150653435,0.091722261615326
10.208783999999998,2.8304088140603505,0.09104798128716257
10.211164,2.8598812467491626,0.09043638410312184
10.21356,2.8860483260794414,0.08982390971474
10.215948,2.9080714342900267,0.0893339514617495
10.218328,2.9212947435820267,0.0890162098624725
10.220724,2.933447117687388,0.08873320072052394
10.223112,2.948113449218364,0.08844272687042952
10.225496,2.966783982242173,0.08807822407588359
10.227892,2.9865254504526213,0.08768761834257312
10.23028,3.0081292497826264,0.0872703902774913
10.232675999999998,3.0278707179930744,0.0868797845441808
10.235072,3.0486831213901615,0.08647488439704343
10.23746,3.0646999273614965,0.08615838590673472
10.23984,3.078994171840135,0.08585938889499803
10.24224,3.0902153803857173,0.08563040338107483
10.244628,3.0992947185580233,0.08545570329704505
10.247008,3.1077224304242708,0.08526343294863135
10.249403999999998,3.1144275807978223,0.08508061853804132
10.251791999999998,3.1236466885969887,0.08489786443154963
10.254172,3.134728127515711,0.08469685305011654
10.256567999999998,3.1433881568074367,0.08457642573310536
10.258955999999998,3.153258890912661,0.08441645950634628
10.26134,3.17178965430961,0.08414266882715529
10.263735999999998,3.1915311225200584,0.08383199756599219
10.266123999999998,3.2184895977832557,0.08337220499097363
10.268504,3.248009252300311,0.0828344177851749
10.2709,3.277017050138168,0.08227321285315889
10.273288,3.304162516856469,0.0817551207875312
10.275683999999998,3.326232846895298,0.08131702473094801
10.278088,3.349234342493905,0.08087521355709555
10.280476,3.3731670036522896,0.08042231961052167
10.282856,3.391884758504342,0.08007124225847516
10.28526,3.4087401822368384,0.07973556675989404
10.287644,3.423313965969198,0.07945972942358168
10.290024,3.4358856489551397,0.07921298614270986
10.292428,3.4447326697019682,0.07899879495594786
10.294816,3.4535796904487968,0.07878552899528142
10.297196,3.4633578767554036,0.07856475868626864
10.299599999999998,3.46740930007648,0.07841306620104954
10.301984,3.468527457091361,0.07830341249025967
10.304368,3.472718650039299,0.07814049865569232
10.30676,3.478772174106793,0.07796145778774784
10.309148,3.478679626308176,0.07789066277762233
10.311528,3.4775161433229207,0.07784163962427598
10.313931999999998,3.474350559591248,0.07782218181666248
10.31632,3.4636884295531063,0.07795168943711589
10.3187,3.452886529888104,0.07809163421930641
10.321096,3.435286932050932,0.0783134124437183
10.32348,3.4279773771995656,0.07836264406228585
10.32586,3.418014095295725,0.07842153512514585
10.328256,3.4080508133918834,0.07848042618800584
10.330644,3.405304538540791,0.07842152117933493
10.333023999999998,3.406422695555673,0.0783198832472571
10.33542,3.4106138885036104,0.07817083155425622
10.337803999999998,3.4209511533176578,0.07792885833652077
10.340184,3.4372947203709567,0.07760320137341055
10.342588,3.4524275826107558,0.07730923021137245
10.344976,3.465278804850418,0.07706770468195316
10.347355999999998,3.4832051637695525,0.07675010213333495
10.349752,3.502062688248466,0.07642370547044748
10.35214,3.5178471767943233,0.07614874880073035
10.35452,3.5325607301535427,0.07589739529800428
10.356915999999998,3.5443410172065666,0.0756763645158715
10.359303999999998,3.556261073886451,0.07544317403019868
10.3617,3.5691122961261135,0.07520455464939724
10.364096,3.588109590231886,0.07486713906549819
10.366484,3.604033848404604,0.0745766233893759
10.368868,3.6246139343762134,0.07424433081012005
10.37126,3.63983934441463,0.07402435674252925
10.373648,3.6519917185199917,0.07384745782414856
10.376032,3.6672171285584083,0.07362696619924924
10.378436,3.6755050707977963,0.07349696516011654
10.38082,3.683001617104266,0.0733638390408942
10.3832,3.68756489710454,0.07326369902620553
