Time,Force,Position
11.011608,0.13859387803977657,0.0
11.013987999999998,0.13052373744828036,0.0
11.016399999999996,0.12138266167014557,0.0
11.018783999999997,0.11089111145165186,0.0
11.021164,0.09946839567337983,0.0
11.02358,0.08818544952196798,0.0
11.025963999999998,0.08101566429746186,0.0
11.028343999999995,0.07449750537901359,0.0
11.030759999999995,0.06718795052764726,0.0
11.033143999999997,0.056013963810307404,0.0
11.035519999999998,0.04577114265274587,0.0
11.037916,0.04018414929407595,0.0
11.040304,0.03953252298801806,0.0
11.042679999999995,0.0375304222416012,0.0
11.045075999999998,0.034317616681685606,0.0
11.047459999999996,0.031896207054688125,0.0
11.04984,0.027922815754642654,0.0
11.052256,0.027301999641372986,0.0
11.05464,0.027301999641372986,0.0
11.057019999999998,0.027301999641372986,0.0
11.059431999999996,0.027301999641372986,0.0
11.061819999999996,0.027301999641372986,0.0
11.0642,0.027301999641372986,0.0
11.066603999999998,0.027301999641372986,0.0
11.068987999999996,0.027301999641372986,0.0
11.071368,0.027301999641372986,0.0
11.073771999999998,0.024399543527966045,0.0
11.076159999999998,0.020565921854780785,0.0
11.078539999999997,0.017523696114513633,0.0
11.080944,0.01634380149380312,0.0
11.083327999999998,0.014092971686454079,0.0
11.085707999999997,0.009979810759548397,0.0
11.088112,0.004935484272864392,0.0
11.0905,0.0021727977863176605,0.0
11.092879999999996,0.0004810464864094598,0.0
11.095271999999998,0.0,0.0
11.097659999999998,0.0,0.0
11.10004,0.0009003553669900902,0.0
11.102435999999996,0.0019404803608403906,0.0
11.104823999999995,0.004982706101107542,0.0
11.107204,0.008024931841374695,0.0
11.109607999999998,0.013860654260976806,0.0
11.111991999999995,0.02076731186721745,0.0
11.114372,0.026742803913679777,0.0
11.116771999999996,0.032997835213862514,0.0
11.119155999999997,0.039113096887185055,0.0
11.121551999999998,0.04108438744081367,0.0
11.123948,0.04226428206152419,0.0
11.126335999999998,0.04637744298842987,0.0
11.128715999999995,0.0484885031689187,0.0
11.13112,0.0484885031689187,0.0
11.133504,0.0484885031689187,0.0
11.135883999999995,0.0484885031689187,0.0
11.138288,0.0484885031689187,0.0
11.140676,0.0484885031689187,0.0
11.143055999999998,0.0484885031689187,0.0
11.145452,0.0484885031689187,0.0
11.147835999999998,0.04758814780192861,0.0
11.150215999999997,0.046548022808078314,0.0
11.152615999999998,0.043505797067811165,0.0
11.154999999999998,0.040463571327544,0.0
11.15738,0.0346278489079419,0.0
11.159783999999998,0.02772119130170125,0.0
11.162171999999998,0.021745699255238924,0.0
11.164551999999995,0.015490667955056181,0.0
11.166947999999998,0.009375406281733646,0.0
11.169331999999995,0.007404115728105025,0.0
11.171715999999996,0.0062242211073945146,0.0
11.174111999999996,0.002111060180488832,0.0
11.176495999999997,0.0,0.0
11.178891999999998,0.0,0.0
11.181288,0.0009003553669900902,0.0
11.183675999999998,0.00166094110711997,0.0
11.186055999999995,0.0034924620338883804,0.0
11.188451999999998,0.005323982960656792,0.0
11.190835999999996,0.006224338327646881,0.0
11.193231999999998,0.008055859254415291,0.0
11.195624,0.012029250554460764,0.0
11.198007999999998,0.015723102600785816,0.0
11.200387999999997,0.018346019460472335,0.0
11.202783999999998,0.022831267439715495,0.0
11.205167999999995,0.023312313926124956,0.0
11.207548,0.02331231392612496,0.0
11.209964,0.023312313926124963,0.0
11.212348,0.023793360412534423,0.0
11.214727999999996,0.02492603320500178,0.0
11.217123999999998,0.02726941081096788,0.0
11.219507999999998,0.027269410810967884,0.0
11.221891999999997,0.02761068767051713,0.0
11.224296,0.028883130089844705,0.0
11.226679999999998,0.03243721250930954,0.0
11.229059999999995,0.0352307091886445,0.0
11.231464,0.03737257956192157,0.0
11.233847999999998,0.04044561549497695,0.0
11.236227999999995,0.03872305400228052,0.0
11.238632,0.037822698635290426,0.0
11.241015999999998,0.03599117770852202,0.0
11.243395999999995,0.032017786408476544,0.0
11.2458,0.028323934362151495,0.0
11.248188,0.025701017502464972,0.0
11.250567999999998,0.02121576952322181,0.0
11.252964,0.02073472303681235,0.0
11.255347999999998,0.02298555284416139,0.0
11.257727999999997,0.02444498671859232,0.0
11.260123999999998,0.02396394023218286,0.0
11.262507999999997,0.0228312674397155,0.0
11.264888,0.0204878898337494,0.0
11.267283999999997,0.02073661889468159,0.0
11.269668,0.020395342035132342,0.0
11.272047999999998,0.01912289961580477,0.0
11.274444,0.01556881719633993,0.0
11.276832,0.01187496515001488,0.0
11.279211999999998,0.008972509036607937,0.0
11.281623999999995,0.004067952176784143,0.0
11.284011999999995,0.003958992742712163,0.0
11.286392,0.003958992742712163,0.0
11.288808,0.003958992742712163,0.0
11.291192,0.003958992742712164,0.0
11.293575999999998,0.004067952176784144,0.0
11.295972,0.004067952176784144,0.0
11.298355999999998,0.004067952176784144,0.0
11.300739999999998,0.005387616424354865,0.0
11.303136,0.004456450864576544,0.0
11.305519999999998,0.002997016990145613,0.0
11.307899999999997,0.002997016990145613,0.0
11.310295999999996,0.002997016990145613,0.0
11.312683999999996,0.002997016990145613,0.0
11.315064,0.0027482879292134227,0.0
11.31748,0.0027482879292134227,0.0
11.319868,0.0027482879292134227,0.0
11.322247999999998,0.0027482879292134227,0.0
11.324644,0.0027482879292134227,0.0
11.327032,0.0027482879292134227,0.0
11.329411999999998,0.0027482879292134227,0.0
11.331808,0.0027482879292134227,0.0
11.334196,0.0027482879292134227,0.0
11.336575999999996,0.0027482879292134227,0.0
11.338971999999998,0.002748287929213423,0.0
11.341355999999998,0.002639328495141443,0.0
11.343736,0.002639328495141443,0.0
11.346151999999996,0.002639328495141443,0.0
11.348536,0.0013196642475707214,0.0
11.350915999999998,0.0,0.0
11.353319999999997,0.0,0.0
11.355708,0.0,0.0
11.358088,0.0,0.0
11.360491999999995,0.0011326727924673595,0.0
11.362875999999996,0.005198611891129891,0.0
11.365256,0.00912478136293221,0.0
11.367659999999995,0.015844447514069493,0.0
11.370047999999995,0.019491077732151394,0.0
11.372428,0.022066772763594766,0.0
11.374831999999998,0.02599294223539709,0.0
11.377215999999995,0.028056780587642764,0.0
11.379596,0.028258287820331806,0.0
11.381991999999997,0.029251190985938955,0.0
11.384376,0.030244094151546105,0.0
11.386755999999998,0.031376766944013465,0.0
11.389159999999997,0.03302129641567852,0.0
11.391547999999997,0.03302129641567851,0.0
11.393928,0.03671325260413432,0.0
11.396331999999996,0.04222031808390362,0.0
11.398719999999996,0.046469456921931024,0.0
11.4011,0.048809042812158636,0.0
11.403495999999995,0.05282396836683954,0.0
11.40588,0.05851423358597371,0.0
11.408264,0.06460739605023359,0.0
11.410667999999998,0.06478680407385998,0.0
11.413051999999997,0.0674801695231009,0.0
11.415432,0.06854352127826246,0.0
11.417835999999998,0.07677665825793017,0.0
11.420223999999996,0.0888270052753282,0.0
11.422604,0.09999151270332185,0.0
11.424995999999997,0.11548508684824352,0.0
11.427383999999996,0.13558726696381365,0.0
11.429764,0.15764432599755746,0.0
11.432167999999995,0.18430999100194972,0.0
11.434551999999996,0.2174465930965471,0.0
11.436936,0.2543078574302577,0.0
11.439331999999997,0.2984006445943033,0.008960685282603159
11.441716,0.3388014755698931,0.017921370565206318
11.444108,0.38139139874700306,0.02625070917827991
11.446503999999996,0.4289639108049683,0.03415373858768229
11.448887999999997,0.47802666693015267,0.0422209614138427
11.451268,0.5244829178311055,0.050392777373329256
11.453664,0.5712659298140217,0.05830534630906993
11.456048,0.6135801054531498,0.06658568731557346
11.458427999999998,0.6633908273987477,0.07441240879351503
11.460824,0.7130617797174853,0.08216888033796585
11.463212,0.7630122712899432,0.08989762652745723
11.465591999999996,0.8104488054367867,0.09755304341518885
11.468007999999998,0.8557906910385963,0.10521949822049885
11.470391999999997,0.9034614384687862,0.11265145752979135
11.472776,0.9523901125407181,0.11980140878466246
11.475179999999998,1.001226238814033,0.1267985339245418
11.477567999999998,1.0465246943033377,0.13381900722098647
11.479947999999997,1.0862833782622157,0.14090332532332944
11.482352,1.1162185499441128,0.14831764716774662
11.484735999999998,1.1405667282673402,0.15593730187953564
11.487119999999996,1.1614697836051748,0.15436130612552385
11.489511999999998,1.1822330693161491,0.15282757103313394
11.491899999999998,1.195779347974374,0.15228675523406948
11.49428,1.2034590940202086,0.1524349895897999
11.496679999999998,1.2132807104393202,0.1522933586719562
11.499063999999995,1.2264076802169646,0.151937197719181
11.501448,1.2352509092480546,0.15214187735500748
11.503843999999996,1.2518230020110919,0.15153301399281507
11.506227999999997,1.264018806228958,0.1513357948205278
11.508619999999995,1.2747715882078479,0.15117755815848835
11.511024,1.2839415783209018,0.15108846034578788
11.513407999999998,1.2904578413814807,0.15118900648867878
11.515787999999995,1.2976729525763606,0.1510795453871742
11.518196,1.3020945670919057,0.1512045797816871
11.52058,1.299578713808422,0.1519665736081566
11.522959999999998,1.2952005294053814,0.15284557304346005
11.525356,1.2910546624278185,0.15387626710239108
11.527739999999998,1.2875604217563132,0.15493178595475723
11.530119999999997,1.2869994473910031,0.15574674958585782
11.532524,1.2868577819062736,0.15644296376417205
11.534911999999998,1.283084001981048,0.15765173118775508
11.537291999999995,1.2801016179887403,0.15881905686744274
11.539692,1.2832653058625436,0.15931282087347837
11.542075999999998,1.288710633736484,0.1594997105652912
11.544459999999996,1.2902915297444508,0.16007652723123592
11.54686,1.2877756764609671,0.1609019667060243
11.549248,1.2875414631776207,0.16142581261595682
11.551627999999996,1.2826514220953826,0.1623477919238201
11.554032,1.2796237121327012,0.1630832309534047
11.556416,1.2738025054906847,0.16407845302316773
11.558795999999996,1.2710543347817238,0.16471714111484834
11.5612,1.2680266248190426,0.16546358665848734
11.563588,1.2652312322818382,0.16632242949518097
11.565967999999998,1.262435839744634,0.16718127233187452
11.568364,1.2657865190735405,0.16739260016502272
11.570752,1.2683458024695289,0.1676397485043287
11.573131999999998,1.2757479051195124,0.16725516740466007
11.575536,1.284500482209855,0.16667615711271055
11.577924,1.2928809722478598,0.1659976522194658
11.580303999999998,1.3041947285920596,0.16506559345488514
11.582707999999997,1.3157880241899802,0.1639949838264855
11.585092,1.329802729414898,0.16266216556238947
11.587471999999998,1.3378111324005655,0.16190272606611947
11.589875999999997,1.3444690609458738,0.1613311588648808
11.59226,1.3552709606108762,0.16032426501455654
11.594639999999998,1.3684470480746327,0.15918900217334486
11.597043999999997,1.3844166322177243,0.157868557976542
11.599431999999997,1.3976852674800981,0.156902193071659
11.601812,1.4066701619959179,0.1564144845755898
11.604215999999996,1.4185883228179326,0.1556285036841875
11.606599999999997,1.4245001814006968,0.15545323271026582
11.60898,1.4357667159166538,0.15469029726991382
11.611383999999996,1.4455902281936346,0.15397633239509198
11.613767999999997,1.4544825749108372,0.15332976294249082
11.616152,1.4647253960683986,0.1525737081273294
11.618555999999998,1.4748284475991,0.1518530224463241
11.620939999999996,1.4792972839428884,0.1517584666701085
11.623323999999997,1.482555415473178,0.15180611075503544
11.625728,1.489118900362,0.15171386406514378
11.628111999999998,1.4946114500641836,0.15172932939983197
11.630491999999997,1.5025254093933644,0.1514801183303501
11.632896,1.5081577287224084,0.15147003712300475
11.635279999999998,1.520727515850481,0.150954973135686
11.637659999999997,1.5394433748446643,0.14999902303538382
11.640059999999998,1.558159233838848,0.1490984836183802
11.642447999999998,1.5780857976465303,0.14810464093651546
11.644827999999997,1.5933565336553208,0.14737896595875224
11.647232,1.6145410241047453,0.14611433306391858
11.64962,1.6387985504872244,0.144588223457263
11.651999999999996,1.6641270120563427,0.1430307386734353
11.654395999999998,1.6934596751182946,0.14114157994427035
11.656788,1.714644165567719,0.13984638717347175
11.659167999999998,1.7332674767632852,0.13878239960895136
11.661563999999998,1.753613349451548,0.13763700865923764
11.663951999999998,1.7633896399002853,0.13731480549016728
11.666331999999995,1.7740970959088014,0.13693869599169686
11.668732,1.7860152567308165,0.1364237233466377
11.671119999999998,1.8000752879261084,0.1357459496282643
11.673499999999995,1.8113418224420652,0.1352479100667583
11.675895999999998,1.820466486584745,0.13491755828777524
11.678283999999998,1.828240676287066,0.1347433159882662
11.680667999999995,1.8330815996831917,0.13475526546457192
11.683063999999998,1.832707616772985,0.13516022450028908
11.685451999999998,1.8263273316235278,0.13595065893062136
11.687831999999997,1.8167342409141547,0.13698084547572337
11.690227999999998,1.8052788190852251,0.1380940183693356
11.692615999999996,1.7952664194952714,0.13922532740550322
11.694996,1.7814821358379613,0.14069131064931084
11.697391999999995,1.765975290687955,0.14223108794884035
11.699779999999995,1.7484663447915316,0.14387199720393945
11.70216,1.7318885644548867,0.14542547912819523
11.704563999999998,1.7256008271040464,0.14628577166782888
11.706951999999998,1.7277408016194542,0.14657760490513738
11.709332,1.7289496105750837,0.14691167701638005
11.711735999999998,1.7373754265834627,0.14678027281190043
11.714123999999998,1.743147515539367,0.14675696016907344
11.716503999999995,1.7491991437489915,0.14667448978621445
11.718899999999998,1.7520379663987005,0.14682210021883596
11.721287999999998,1.755947724235048,0.1468934338197114
11.723667999999996,1.7619993524446727,0.1468107726364894
11.726063999999996,1.7669800454676585,0.14680078941802824
11.728451999999995,1.7741026088639216,0.1466268742795857
11.730832,1.7853691433798784,0.14616742284590753
11.733227999999997,1.7983582393885318,0.14563119228148505
11.735615999999997,1.8093452346507684,0.14519285744199256
11.737996,1.8223343306594217,0.14463300503330356
11.740392,1.8406781026012677,0.1437025683932327
11.74278,1.8605121186103328,0.14260358253384983
11.745159999999998,1.8842105664853714,0.1413012126437626
11.747559999999996,1.9076294751066896,0.14004922818743065
11.749944,1.931979549287786,0.13881021523329073
11.752323999999998,1.9499040123490516,0.138083061194665
11.754727999999997,1.9596803027977892,0.13785524324055723
11.757112,1.9715984636198038,0.13749933173652842
11.759491999999998,1.9853789555613752,0.13708055359165963
11.761883999999998,2.002464800861479,0.13657420227073838
11.764271999999998,2.0211334380274195,0.13605192138108857
11.766651999999995,2.0458083774326106,0.13524306866567562
11.769063999999997,2.072345647957358,0.1343907980115634
11.771451999999996,2.100745249601662,0.13349827557394348
11.773832,2.135151153485217,0.1323480431226385
11.776235999999995,2.1735612588616053,0.13105931226771614
11.778623999999995,2.2053134356926853,0.1300253696955752
11.781004,2.2364139862177077,0.12897987804061478
11.783399999999997,2.276733644541896,0.12750886015231608
11.785787999999997,2.3126297924926695,0.12628251602265686
11.788168,2.3423798685773325,0.12538892684859537
11.790571999999996,2.369568765408138,0.1246656559871135
11.792955999999997,2.393544856679027,0.12412293012700475
11.79534,2.4225960846293892,0.1233833970280454
11.797732,2.445641010340501,0.12288787940780849
11.80012,2.4688257056784733,0.12236293711327832
11.802499999999998,2.4950834369495,0.12168753982322685
11.804903999999995,2.5209218593399463,0.12109952075287915
11.807288,2.5438270154241978,0.12063795275990917
11.809668,2.566360084456112,0.12012993944191647
11.812071999999995,2.5848889519951923,0.11977557958262584
11.814459999999997,2.5955491861754654,0.11972467656943825
11.81684,2.6014138229299864,0.11984049787479108
11.819235999999997,2.6074182293113677,0.11993775300562294
11.821624,2.608487268640137,0.12020952986401472
11.824008,2.6080660639016866,0.12057798880348504
11.826411999999998,2.616165118828102,0.12069880196907132
11.828799999999998,2.6251953393142955,0.12079487117951457
11.83118,2.6291504231210165,0.12107006962153644
11.833583999999998,2.6367376213682334,0.12116149656130791
11.835971999999998,2.64567529405581,0.12117141898696121
11.838351999999997,2.656382750064327,0.1210411010524039
11.840747999999998,2.66951161569984,0.12078978323726733
11.843131999999995,2.67290951685699,0.1208372716567387
11.845512,2.683664194693749,0.12060346912996764
11.847915999999998,2.6946984117842283,0.1203321953390549
11.850303999999998,2.7048014633149298,0.12008689602342472
11.852683999999996,2.71052822630046,0.11992240791479379
11.855079999999996,2.715463593353072,0.11976206595293318
11.857467999999995,2.720259190778824,0.11962279506608037
11.859848,2.72933852895113,0.11931056605800643
11.862251999999998,2.744284399735826,0.11881160666674334
11.864639999999998,2.7610926016400796,0.11825336300833614
11.867019999999997,2.7709633357453036,0.11792512822037518
11.869415999999998,2.780042673917609,0.1176003053614863
11.871803999999996,2.783674788358106,0.11740815656156181
11.874184,2.7799973479472357,0.11740125961756007
11.876579999999995,2.776319907536365,0.11739372861641949
11.878967999999997,2.771711301565716,0.11741060762581007
11.881348,2.765891990781569,0.11748810194800813
11.883751999999998,2.7588619751839234,0.1176284731577893
11.886139999999996,2.7514126507056966,0.11782448595039342
11.88852,2.7454063484664464,0.11801992115685803
11.890923999999998,2.7443354132798086,0.11806297193381
11.893311999999998,2.7371184062270593,0.11832288406934788
11.895691999999997,2.7306927951072275,0.11857533886464895
11.898087999999998,2.7250585799203146,0.11882164262778803
11.900475999999998,2.7231490269725147,0.11897484383241222
11.902856,2.7249641362638277,0.11903231345979298
11.905259999999998,2.729060885555279,0.11899043348311127
11.907652,2.7334371741004504,0.11891622534133812
11.910031999999998,2.734228570033369,0.11891216172131781
11.912436,2.7383725411530624,0.11877642893970218
11.91482,2.745449778578952,0.11855255495950544
11.917199999999998,2.755600051937896,0.11823088232302653
11.9196,2.7677524260432573,0.11783837435863881
11.921983999999998,2.7862831894402063,0.11731098402383326
11.924363999999995,2.8010892905980422,0.11686755709621813
11.926759999999998,2.81482445656924,0.11646107266352987
11.929147999999998,2.8285596225404377,0.11605458823084162
11.931527999999997,2.847230155564247,0.11550791031957142
11.933932,2.866971623774695,0.1149228543795004
11.936319999999998,2.8823368034399723,0.11442240739849417
11.938703999999998,2.8975622134783894,0.11393835947845164
11.9411,2.9147897242632226,0.11338526600755404
11.943483999999998,2.931086069488278,0.11285748268671027
11.945867999999995,2.9467307884072755,0.11231945133706478
11.948263999999998,2.960513176206716,0.11182536222911724
11.950651999999998,2.970710671393904,0.11140640836765857
11.953028,2.9756932602747588,0.1111663528370316
11.955423999999995,2.9771835043419776,0.11107664982874595
11.957807999999996,2.9803963099018937,0.11096252324966377
11.960203999999996,2.978254439528617,0.11103804560148797
11.962599999999998,2.9841209721410067,0.1108859837718044
11.964987999999998,2.98770586475326,0.11082465982723937
11.967367999999995,2.9912907573655128,0.11076248147529642
11.969772,2.9902198221788736,0.11079831704980098
11.972155999999998,2.996877750724182,0.11064897184937336
11.974539999999998,3.0078194200160446,0.11036256437674172
11.976944,3.022765290800741,0.10997886309477282
11.979328,3.032915564159686,0.10970698412719575
11.981707999999998,3.045207707891907,0.10937618717138285
11.984104,3.0554977508777115,0.10909047087780327
11.986487999999998,3.0680694338636543,0.1087266191645739
11.988867999999997,3.0794304120360976,0.10840841087224717
11.991272,3.0886495198352635,0.10815301575092691
11.993659999999998,3.09772885800757,0.10791401969057034
11.996039999999995,3.108670527299432,0.10763937331303035
11.998435999999998,3.1194724269644345,0.10737841405284305
12.000823999999998,3.131065722562355,0.10710873090261813
12.003203999999997,3.1469427589068295,0.10670462521911776
