Time,Force,Position
12.272688,0.10447305582168506,0.0
12.275067999999996,0.10647515656810191,0.0
12.277483999999998,0.10912888362057667,0.0
12.279868,0.11336540253888765,0.0
12.282252,0.11196770627028554,0.0
12.284647999999995,0.11243234112124008,0.0
12.287036,0.10935263541616465,0.0
12.289416,0.10413105933781218,0.0
12.291812,0.09797831769968138,0.0
12.2942,0.08968370568827351,0.0
12.296595999999996,0.08059769774394752,0.0
12.298991999999998,0.07258262498626009,0.0
12.301379999999998,0.06349661704193411,0.0
12.30376,0.055481544284246676,0.0
12.306164,0.04867717634005797,0.0
12.308547999999998,0.041872808395869265,0.0
12.310928,0.035208210078540775,0.0
12.313323999999998,0.03161664769426767,0.0
12.315711999999998,0.026954150123356026,0.0
12.318092,0.023502357365943125,0.0
12.320487999999996,0.019119399048751904,0.0
12.322875999999995,0.015015979985281102,0.0
12.325256,0.011052330548670511,0.0
12.327652,0.005226349992503279,0.0
12.33004,0.0026131749962516396,0.0
12.332435999999998,0.0,0.0
12.334832,0.0,0.0
12.33722,0.0,0.0
12.339599999999995,0.0,0.0
12.341995999999998,0.0,0.0
12.344383999999998,0.0,0.0
12.346764,0.0,0.0
12.349159999999998,0.0,0.0
12.351547999999998,0.0,0.0
12.353932,0.0,0.0
12.356327999999998,0.0005185264512177287,0.0
12.358712,0.0005185264512177286,0.0
12.361096,0.0005185264512177286,0.0
12.363491999999995,0.0023875273427944083,0.0
12.365879999999995,0.005047924167289198,0.0
12.36826,0.009570652111340628,0.0
12.370656,0.01609548080180891,0.0
12.373044,0.02075797837272055,0.0
12.375443999999998,0.027282807063188832,0.0
12.37784,0.03287647019387879,0.0
12.380228,0.037399198137930224,0.0
12.382607999999998,0.041921926081981656,0.0
12.385004,0.042300682906339176,0.0
12.387387999999998,0.042300682906339176,0.0
12.389768,0.0434708356636148,0.0
12.392172,0.04450121879403023,0.0
12.394559999999998,0.044501218794030226,0.0
12.396936,0.044501218794030226,0.0
12.39934,0.044501218794030226,0.0
12.401728,0.044501218794030226,0.0
12.404104,0.043982692342812504,0.0
12.406499999999998,0.043982692342812504,0.0
12.408884,0.043982692342812504,0.0
12.411264,0.04211369145123583,0.0
12.413667999999998,0.039453294626741034,0.0
12.416052,0.034930566682689596,0.0
12.418432,0.028405737992221312,0.0
12.420828,0.02374324042130967,0.0
12.423212,0.01721841173084139,0.0
12.425591999999998,0.011624748600151431,0.0
12.427984,0.007102020656099999,0.0
12.430371999999998,0.002678510282685665,0.0
12.432751999999995,0.004261302148521886,0.0
12.435164,0.006222850838715625,0.0
12.437548,0.005943311584995205,0.0
12.439927999999998,0.007945412331412055,0.0
12.442324,0.014050932141299707,0.0
12.444712,0.019085516764548827,0.0
12.447095999999998,0.022909396574299207,0.0
12.449492,0.026593506757189377,0.0
12.45188,0.029346451380301227,0.0
12.454259999999998,0.031028460816774545,0.0
12.456651999999998,0.031028460816774548,0.0
12.459039999999998,0.03205884394718997,0.0
12.46142,0.036953658943578875,0.0
12.463836,0.04077753875332926,0.0
12.46622,0.04152838263002426,0.0
12.4686,0.043350161693357786,0.0
12.470992,0.043350161693357786,0.0
12.47338,0.043350161693357786,0.0
12.475759999999998,0.043350161693357786,0.0
12.478155999999998,0.04325094412272069,0.0
12.480543999999998,0.041289395432526944,0.0
12.482924,0.0393278467423332,0.0
12.485319999999998,0.039467616369193416,0.0
12.487703999999995,0.03643513249236114,0.0
12.490084,0.030329612682473493,0.0
12.4925,0.025295028059224376,0.0
12.494884,0.021471148249473992,0.0
12.497267999999998,0.018305564517801555,0.0
12.499664,0.017142081532545962,0.0
12.502047999999998,0.019051634480345754,0.0
12.504431999999998,0.025576463170814034,0.0
12.506823999999998,0.029068807984450044,0.0
12.509211999999998,0.026694620185695715,0.0
12.511592,0.02725369869313656,0.0
12.514004,0.03209651794713152,0.0
12.516392,0.035728632387627746,0.0
12.518771999999998,0.0413222955183177,0.0
12.521168,0.04798689383564619,0.0
12.523556,0.05451172252611447,0.0
12.525935999999998,0.05810328491038758,0.0
12.528336,0.06276578248129923,0.0
12.53072,0.06463478337287591,0.0
12.533099999999996,0.06533363150717697,0.0
12.535495999999998,0.06706286277189344,0.0
12.537879999999998,0.06772115884997137,0.0
12.54026,0.06903108123410721,0.0
12.542676,0.07127216917802137,0.0
12.54506,0.0729947306707178,0.0
12.547439999999998,0.07257542179013717,0.0
12.549855999999998,0.06898385940586405,0.0
12.552239999999998,0.06390872272639182,0.0
12.55462,0.059385994782340384,0.0
12.557019999999998,0.05686536758470581,0.0
12.559403999999995,0.05248240926751459,0.0
12.561784,0.04688874613682463,0.0
12.56418,0.04143485263299488,0.0
12.566564,0.03584118950230492,0.0
12.568943999999998,0.029176591184976425,0.0
12.57136,0.022983297490622515,0.0
12.573743999999998,0.02726514237930739,0.0
12.576124,0.032151391745807015,0.0
12.578523999999998,0.04178601670981531,0.0
12.580907999999996,0.05100133279324297,0.0
12.583288,0.06165967111564663,0.0
12.585684,0.07161916130374925,0.0
12.588072,0.08474423522352433,0.0
12.590452,0.09782208731505623,0.0
12.592852,0.11285481832476184,0.0
12.59524,0.13012196750636157,0.0
12.59762,0.14809273873641315,0.0
12.600032,0.1642870568735051,0.0
12.60242,0.18653967299224153,0.0
12.604799999999996,0.21461159989512518,0.0
12.607195999999998,0.24449863608932235,0.0
12.609583999999998,0.2755491552687751,0.0
12.611964,0.3092061796724594,0.0
12.614355999999995,0.3513362419127657,0.008123369906527643
12.61674,0.3964921182578842,0.01608941024082114
12.61912,0.44238739479352684,0.023882242942871664
12.62152,0.4762247408802945,0.032210172014717806
12.623904,0.5065244161830522,0.032210172014717806
12.626288,0.5363122348066124,0.04074681479167652
12.628684,0.5688935501095074,0.04915616166458122
12.631072,0.6025458005990408,0.05732605528190285
12.633451999999998,0.6388989999692922,0.06538152630578613
12.635848,0.6703640541151747,0.07361352460936527
12.638236,0.7013172515818598,0.08197529393523086
12.640615999999998,0.7317585923693468,0.0902852109731326
12.643012,0.7626192420374147,0.09848823725228416
12.6454,0.7982301631608605,0.10607458773820792
12.647779999999996,0.8375204205530455,0.11321182931678768
12.650175999999998,0.8712709064148039,0.12042786960156593
12.652568,0.8959892759324994,0.12805328257130658
12.654947999999996,0.9175420617185225,0.1359351322662226
12.657343999999998,0.9388625300790683,0.1437194790181451
12.659731999999998,0.9585076587751609,0.15140972949555598
12.662115999999996,0.9653960088880771,0.1516058824675228
12.664511999999998,0.9697704015753792,0.15202196701304788
12.666904,0.9723750109417415,0.15290617910751925
12.669283999999998,0.9821494055326101,0.15297135161493539
12.67168,0.9965796279223703,0.16105591275820683
12.674067999999998,1.0104979936329328,0.16050792274675632
12.676448,1.0199003011714638,0.16044407797380902
12.678863999999995,1.0265091120306598,0.16072890688301134
12.681251999999995,1.036051189196051,0.160677829260752
12.683632,1.0480146759884397,0.16021341092615932
12.686028,1.0609565501688496,0.15939320998839449
12.688416,1.0723156324834238,0.15867162939440618
12.690796,1.0847456499846362,0.15786691672329517
12.693212,1.0916812219257959,0.157846461822962
12.695595999999998,1.0927030394263222,0.1586798218742638
12.697979999999998,1.0946560224866266,0.15943438321936712
12.700391999999995,1.102335768532461,0.15961550058837784
12.702779999999995,1.1120176153247125,0.15954939975576116
12.705164,1.1231424843559399,0.15947479502587206
12.707559999999996,1.1342673533871674,0.1594175165365636
12.709947999999995,1.151817833538226,0.15850112429919186
12.712328,1.1691359962638073,0.15744005070619652
12.714731999999998,1.1879444030566078,0.15605667446274954
12.717115999999995,1.2030281476102953,0.15506670352460994
12.719496,1.2131765251113706,0.15461511436944098
12.721892,1.2214625714928893,0.15433620362596615
12.724276,1.232681884180603,0.15371021043721783
12.726655999999998,1.2437614272414566,0.1531062256625512
12.729056,1.2537700351156715,0.15272359102032296
12.73144,1.2607981548554483,0.15286646818432126
12.733819999999998,1.2620522897814517,0.15380761837749732
12.736235999999998,1.264377359894094,0.15460972205724513
12.738619999999996,1.2639089333274007,0.15564888506409222
12.741,1.267165168999821,0.1563464894136825
12.743403999999998,1.2760556198591542,0.15630859274622838
12.745791999999998,1.2858772362782658,0.15619465809024324
12.748172,1.294255830458401,0.1561301997940183
12.750567999999998,1.3010516327727006,0.1561297908565306
12.752955999999998,1.3076151176615227,0.15601142301721357
12.755336,1.3141786025503448,0.15590170561636724
12.757739999999998,1.31846044743903,0.1560607879112491
12.760127999999998,1.3192499475140789,0.15663790144701817
12.762508,1.3231124835221828,0.15691655256142
12.764912,1.3316308473291787,0.15686592637395638
12.767295999999998,1.346155513375425,0.15631706645979143
12.769679999999996,1.364544611287645,0.15549861295951156
12.772084,1.3844239532670841,0.1545072102279814
12.774468,1.407795640060159,0.15318487480229534
12.776847999999998,1.4271631253604005,0.15219733378833816
12.779243999999998,1.4512336602877767,0.150728814344057
12.781631999999998,1.4846630726411791,0.14843194767101714
12.784012,1.5173010890616636,0.1461999947962427
12.786407999999998,1.5482165439894515,0.14399698242513218
12.788791999999995,1.5775492070514032,0.14192957830890424
12.791172,1.600596028620384,0.14039692218989372
12.793588,1.6264363468686998,0.13878108157191119
12.795972,1.6510659603035167,0.1373074464066641
12.798351999999998,1.6783493007908084,0.1357119818026019
12.800748,1.6993467997851293,0.13458175172456352
12.803131999999998,1.7180626587793124,0.13364916097023327
12.805515999999995,1.7358473522137174,0.13275132840940382
12.807911999999998,1.7594985782605128,0.1314159130920874
12.810299999999998,1.7782144372546964,0.13047843482941104
12.81268,1.7894809717706532,0.12997404176373972
12.815084,1.7947412040473598,0.12989976656962277
12.817472,1.7946467603908736,0.13025480378400928
12.819851999999996,1.7905481152415534,0.13088598844004676
12.822247999999998,1.783236664532318,0.13175118406990305
12.824635999999998,1.7748542786364438,0.1327367339613083
12.827016,1.7629795479269341,0.1340225082088013
12.829411999999998,1.744958745351313,0.13570328307010218
12.831799999999998,1.725587468335333,0.13755484241274316
12.834191999999998,1.7057968824387726,0.13959203074586463
12.836599999999995,1.6838644261689355,0.14182493435322646
12.838984,1.6668673369517097,0.1437394099205634
12.841364,1.6460058158685107,0.1458525659383162
12.843764,1.623421733292615,0.14809456884997124
12.846152,1.5991150892240231,0.1503851333181561
12.848532,1.5818856825813201,0.15216389072428585
12.850928,1.5670776855656148,0.15370230991235617
12.853316,1.5550631852292442,0.1550648449527791
12.855695999999998,1.5405347274672594,0.15649213490680935
12.858092,1.5260062697052743,0.15795345745630177
12.860475999999998,1.5190669060483764,0.15893425946580053
12.862855999999995,1.514129643137895,0.15978869343111948
12.86526,1.5124051857873295,0.1603781362592834
12.867648,1.5161279521685738,0.16064601195620362
12.870027999999998,1.5170572218704828,0.1610949270490517
12.872432,1.520128361945669,0.16135248163356133
12.87482,1.5274832427674092,0.1612271332496144
12.877199999999998,1.5361885980295085,0.16093010560125515
12.879596,1.5481067588515234,0.16034646987733836
12.881984,1.5652398259798708,0.1593136290359512
12.884363999999998,1.5866566338547718,0.15791862992964886
12.886768,1.6084927506102538,0.15649013781035284
12.889156,1.6275353706864009,0.15518785736917332
12.891536,1.650162883374801,0.1536652592206181
12.893932,1.6726506264363408,0.15217141817557833
12.89632,1.6916460246842449,0.15106400985310714
12.898699999999998,1.7094307181186499,0.15009661209816386
12.901104,1.7256326196872187,0.14920218987090234
12.903492,1.743417313121624,0.14828000280155784
12.905872,1.7613417761828896,0.14729814100506383
12.908268,1.7775436777514582,0.1464634007882378
12.910656,1.7988207159994996,0.145327058837054
12.91304,1.8207966023818418,0.14407586540874553
12.915436,1.8383962002190128,0.14304581043030792
12.91782,1.8629332658552125,0.14160182740785227
12.920199999999998,1.8905433674244678,0.13999567957661385
12.922604,1.9133578715679709,0.1386981154945533
12.924988,1.9371035412712527,0.13737582592547462
12.927367999999998,1.9599180454147562,0.1361403602622302
12.929776,1.983523945491178,0.13496761014205805
12.93216,2.001914939261267,0.13410729445663264
12.934539999999998,2.016161961911662,0.13348306510513894
12.936944,2.0373464523610862,0.13252005246325926
12.939332,2.0549460501982577,0.1316827531854082
12.941712,2.073616583222067,0.13078551326587562
12.944115999999998,2.096059000313233,0.1296154583970183
12.946503999999996,2.1195723525910375,0.12838764743964404
12.94888,2.1418750000553435,0.12723967346060894
12.951283999999998,2.1604529852805356,0.12623788268598657
12.953671999999996,2.1796825968117863,0.12523495354784095
12.956052,2.1967703379697596,0.1243748933782013
12.958447999999995,2.206780841701844,0.12389042700473267
12.960832,2.2178150587923233,0.12349997203533136
12.963216,2.232434168495056,0.12300546134933545
12.965612,2.240627667077958,0.12286066502267239
12.967996,2.245748129727804,0.12286601863159309
12.97038,2.2515202186837078,0.12288350488121508
12.972776,2.25780416431881,0.12293995337444341
12.97516,2.2636688010733312,0.12306615032628865
12.977543999999998,2.265017379655821,0.12332647045573679
12.979944,2.2705099293580044,0.12339409458159017
12.982332,2.281589472418858,0.1232758668298226
12.984716,2.288245505106297,0.12339513081536492
12.987112,2.2975552648462116,0.12344447684661225
12.9895,2.308727355705682,0.12343881884813784
12.991879999999998,2.3144050010051,0.12371087734697227
12.99428,2.319942876677657,0.12400334875471106
12.996664,2.3282742490295494,0.12420831546092566
12.999043999999998,2.3386077221278585,0.12433173976110246
13.001444,2.3520142311592234,0.1243259608993495
13.003832,2.3623477042575325,0.1244440904387112
13.006228,2.3737521125424803,0.12450347013955666
13.008623999999998,2.3838532682153124,0.12454062617164169
13.011011999999996,2.3891588264623924,0.1247495025984215
13.013392,2.3999588302695263,0.12467755533208222
13.015795999999998,2.4118297692632975,0.12455466788401229
13.018183999999998,2.4250511826974273,0.1243379763221013
13.020564,2.437760739452361,0.12409257430510329
13.022959999999998,2.449678900274376,0.12385388134429287
13.025344,2.463040083335367,0.12361916535728897
13.027728,2.475050791955999,0.12348260485816903
13.030123999999995,2.4814745072179605,0.12351861081915194
13.032512,2.49017986248006,0.12343536734310055
13.034892,2.5010270881154364,0.12326135162975649
13.037295999999998,2.508149651511699,0.12319943970025604
13.039683999999998,2.5224892219607113,0.12285321980956133
13.042064,2.5389706627830004,0.1224262925041211
13.044463999999998,2.5577337436054273,0.1219117169665635
13.046851999999998,2.580081717040107,0.12133059141781136
13.049232,2.599636193795452,0.1208333576266751
13.051635999999998,2.6254765120437678,0.12009575325626397
13.054023999999998,2.654250096598279,0.11926904509026692
13.056404,2.6784604011525146,0.11863938857316413
13.058799999999998,2.7086770079460014,0.11781779772174336
13.061183999999995,2.7376829099259896,0.11708832600392248
13.063564,2.7648264807864207,0.11640567119268042
13.065967999999998,2.7908991164602135,0.11577106277450389
13.068355999999998,2.8177631480669243,0.1151465759560673
13.070736,2.843696014113857,0.11453657825741105
13.073131999999998,2.867906318668094,0.11394843345171513
13.075519999999996,2.891604766543133,0.113330923595643
13.0779,2.9180967110975065,0.1126359602120199
13.080303999999998,2.940863993412767,0.1120339075163367
13.082687999999996,2.962700110168249,0.11147648633265046
13.085072,2.983325522110233,0.11096378537948655
13.087467999999998,2.99501136550677,0.1107279889259157
13.089855999999996,3.0028327770373338,0.11060180196724699
13.092236,3.00250601595537,0.11073898734730525
13.094639999999998,2.9998050670746523,0.11088527383189496
13.097027999999998,2.9992459885672114,0.11095391842192617
13.099408,2.9965450396864934,0.11109539783782206
13.101812,2.991981759686219,0.11127538137835395
13.1042,2.99091082449958,0.11131279813237065
13.106579999999996,2.9846249830066096,0.11151716044329685
13.108984,2.9763370407672216,0.11177637153120566
13.111368,2.971122134460889,0.11194088045229683
13.113751999999998,2.9657674585276963,0.11212237518662128
13.116148,2.9596213866615857,0.1123036371386558
13.118536,2.9588299907286677,0.11230617138163433
13.120912,2.963253501102082,0.11215306249077607
13.123316,2.96432443628872,0.11211813880112448
13.125704,2.9647437451693004,0.11206972837707374
13.128083999999998,2.9678167811023557,0.11198094048255208
13.13048,2.9658146803559386,0.11203514609022222
13.132863999999998,2.967956550729216,0.1119645096437441
13.135247999999995,2.9781068240881607,0.11167621377647981
13.137639999999998,2.9901194285666626,0.11134969165851598
13.140027999999996,3.007346939351496,0.11085161493487936
13.142408,3.022292810136193,0.1104436774178704
13.144811999999998,3.034957040920752,0.11012893504199825
13.147199999999998,3.0476212717053106,0.10981770308923715
13.14958,3.058283401743453,0.10955712014276123
13.151984,3.070807862901151,0.10926296935027435
13.154367999999998,3.084403259245488,0.10892908031997596
13.156748,3.097207259656907,0.10859539790141108
13.159152,3.1065189152546906,0.10840267305129192
13.16154,3.1158305708524736,0.10820876376832125
13.163919999999996,3.12286058645012,0.1081024597114505
13.166315999999998,3.1233252213010747,0.10822688736541923
13.168703999999998,3.117783553912778,0.10851134232045995
13.171087999999996,3.1177363320845353,0.10860566825455502
13.173492,3.1204826069356284,0.10864386177386805
13.17588,3.1217858595477437,0.10867099611535007
13.178259999999998,3.1290954143991105,0.10853972881049123
13.18066,3.137336134810255,0.10839558437131114
13.183048,3.1414328841017047,0.10837092176254709
13.185427999999998,3.1444586982065172,0.10837897577150864
13.187832,3.1482759082442473,0.10838592573592452
13.190216,3.154095219028395,0.10834357627636584
13.192595999999998,3.160054299439402,0.10828567357022882
13.194992,3.164942444663771,0.10826011209861326
13.19738,3.174626187313891,0.10813489589639082
13.199759999999998,3.181236894030957,0.10809127361375277
13.202156,3.1902690103750193,0.10795612966315031
13.204539999999998,3.2003720619057208,0.1077889730451147
13.20692,3.2148986238098365,0.10748241577287063
13.209324,3.2327777609007278,0.1070743376651361
13.211712,3.2510762068721997,0.10661632234675077
13.214091999999996,3.2717960624706692,0.10605780401750704
13.216496,3.293167544375197,0.1055020999621455
13.218884,3.3161218181455605,0.10496420462155097
13.221263999999998,3.3362825952365895,0.1044848862085626
13.223668,3.359748725686151,0.10399187481064487
13.226052,3.3804213594563772,0.10355505921989468
13.228431999999998,3.3972295613606303,0.10319868797401863
13.230836,3.413386136958825,0.10282704494314883
13.233224,3.4298222518107404,0.10242662306967762
13.235604,3.4457465099834588,0.10200641323909246
13.238007999999995,3.4608793722232587,0.1015894401478686
13.240392,3.479085270396113,0.10110800140337987
13.242772,3.498501873382467,0.10058625922088342
13.245175999999995,3.515404518943206,0.10008758021497677
13.247564,3.5353802004370007,0.0995213056164141
13.249944,3.5538656378635762,0.09903212273045489
13.252347999999998,3.577286442342764,0.09846338740533223
13.254735999999998,3.598844915702395,0.09793377933036768
13.257116,3.6162594179423317,0.0975006256438151
13.259511999999996,3.6375383520482414,0.09701111470265507
13.261896,3.65960868208707,0.09652522102930218
13.26428,3.6839606521260357,0.09597494108128032
13.266676,3.7007235280599144,0.09553621742031426
13.26906,3.715344533620516,0.09514463828660671
13.271444,3.7285225169421428,0.0947449762925025
13.27384,3.74048979545027,0.09438159453375021
13.276224,3.7533882395181752,0.09400485117211518
13.278603999999998,3.7681490147056373,0.09360530236431891
13.281004,3.7818388547064616,0.09322986047912206
13.283388,3.792036349893649,0.0929543294321565
