Time,Force,Position
11.742748,0.0,0.0
11.745127999999998,0.0,0.0
11.747524,0.0007934230806876192,0.0
11.749911999999998,0.000793423080687619,0.0
11.752291999999995,0.000793423080687619,0.0
11.754687999999998,0.0007934230806876192,0.0
11.757071999999996,0.0007934230806876192,0.0
11.759452,0.0034491772809318788,0.0
11.761847999999995,0.010248902600870052,0.0
11.764235999999997,0.02226353422714067,0.0
11.766616,0.03241583473385464,0.0
11.769019999999998,0.04149720005393008,0.0
11.771407999999996,0.05057856537400553,0.0
11.773788,0.05965993069408097,0.0
11.776191999999998,0.06981223120079495,0.0
11.778575999999996,0.07703126540131376,0.0
11.780959999999997,0.0822481988554157,0.0
11.783355999999998,0.08439209637646228,0.0
11.785743999999998,0.0874671594572872,0.0
11.788127999999997,0.08854012179169524,0.0
11.790519999999995,0.08854214893946474,0.0
11.792907999999995,0.08854214893946474,0.0
11.795288,0.08774872585877712,0.0
11.797687999999996,0.08774872585877712,0.0
11.800075999999995,0.08882168819318516,0.0
11.802456,0.08882168819318516,0.0
11.804851999999997,0.08882168819318516,0.0
11.80724,0.0861659339929409,0.0
11.809624,0.07936620867300273,0.0
11.812027999999998,0.06735157704673209,0.0
11.814411999999995,0.057199276540018114,0.0
11.816796,0.04811791121994267,0.0
11.819191999999996,0.03903654589986723,0.0
11.821579999999996,0.029955180579791785,0.0
11.82396,0.01980288007307781,0.0
11.826355999999995,0.012583845872559002,0.0
11.828743999999997,0.00736691241845705,0.0
11.831128,0.00522301489741048,0.0
11.833523999999995,0.0021479518165855877,0.0
11.835908,0.0010749894821775485,0.0
11.838307999999998,0.0010729623344080397,0.0
11.840704,0.0010729623344080397,0.0
11.843092,0.0010729623344080397,0.0
11.845471999999996,0.0010729623344080397,0.0
11.847867999999998,0.0,0.0
11.850255999999998,0.0,0.0
11.852635999999997,0.0047485068874089245,0.0
11.855035999999998,0.00893793526737701,0.0
11.857419999999998,0.012940372192241732,0.0
11.8598,0.017547213594921212,0.0
11.862195999999996,0.02769382652802746,0.0
11.864583999999995,0.040446944685365305,0.0
11.866968,0.05408400657423832,0.0
11.869363999999996,0.06888455144836694,0.0
11.871751999999995,0.08857324154686441,0.0
11.874132,0.10779540093653811,0.0
11.876531999999996,0.1294842959235832,0.0
11.878915999999997,0.15699250169477547,0.0
11.881315999999998,0.18724698231705955,0.0
11.883712,0.2183854066708788,0.0
11.8861,0.2544119762490669,0.0
11.888479999999998,0.29262574217090603,0.0
11.89088,0.3366588188768923,0.008783641335158836
11.893268,0.3864186585684087,0.016791302519618106
11.895647999999998,0.4341763975135083,0.02507692674915524
11.898044,0.47928040940613326,0.03366363584083292
11.900432,0.5164231088514335,0.042871348718905515
11.902815999999998,0.5603635064689024,0.051281320563466876
11.905212,0.6054220611012531,0.05957718760924515
11.9076,0.649224584949731,0.06786800218489118
11.909983999999998,0.6836229054018087,0.07671591866018353
11.91238,0.7152749510027946,0.08563016470134077
11.914763999999998,0.7484172406709997,0.09434477065743374
11.917143999999997,0.7831895440332842,0.1027034301889027
11.919535999999995,0.8118629973577011,0.11129583242610086
11.921923999999995,0.8440760173239972,0.11943867413091938
11.924315999999996,0.871820200946505,0.1278555333953343
11.926711999999998,0.8894613330383114,0.1370245307710445
11.929095999999998,0.9039368813984454,0.1463940815105633
11.931487999999998,0.9204617523332396,0.15529171464786126
11.933884,0.9300963772972478,0.16451909605839746
11.936267999999998,0.9399652155446026,0.1732325259377048
11.93866,0.9458770741273668,0.17292682857296066
11.941052,0.946853565657519,0.17334256024159214
11.94344,0.9536965898000614,0.1730164451152439
11.945815999999995,0.966126607301274,0.17207017968674038
11.948211999999998,0.9816296607355419,0.17055128825772375
11.950595999999996,0.9896833896915832,0.1700169064295791
11.952991999999998,1.0005306153269595,0.16925607534238618
11.955392,1.0166852950672853,0.16812985955659407
11.957776,1.037635572233363,0.16637877438045273
11.960155999999998,1.0597965542129393,0.1644550598076114
11.96256,1.0783726435802625,0.16287860729117348
11.964948,1.0976003592536436,0.1614801596388551
11.967327999999998,1.1180387797405236,0.15984796928080752
11.96972,1.1324708979881528,0.158899536334144
11.972108,1.148905116982199,0.15767708582788406
11.974487999999996,1.171485407842356,0.15557061389213758
11.976883999999998,1.1943452379562334,0.15330347374446018
11.979267999999998,1.215202967323694,0.15144432135285946
11.981664,1.2317769559446001,0.14988831689147242
11.984056,1.243787664565232,0.14910224156771085
11.986444,1.2528651068796686,0.14868660785834448
11.988823999999996,1.2598006788208285,0.1485644818007912
11.991215999999998,1.2613815748287955,0.1492083443667779
11.993603999999998,1.2565368597169313,0.15077652834168645
11.996,1.2484793390451514,0.1529248416712441
11.9984,1.2445657894930653,0.15442982063914895
12.000788,1.2369275777018662,0.15627535366488518
12.003168,1.223562602925137,0.158677298038873
12.00556,1.20940623221549,0.16108768216207686
12.007948,1.1931079911325653,0.1637964834376635
12.010327999999998,1.1810934907961952,0.16586039247362563
12.012732,1.1634919971011548,0.16846672375831678
12.015116,1.1474732952719506,0.1709355367218174
12.017495999999998,1.1342480901220817,0.173227646655681
12.019892,1.1219540505319907,0.17539655075584468
12.022275999999998,1.10979978056876,0.1774096380472351
12.024672,1.0996476113519467,0.17916633021039813
12.027075999999996,1.0893556725082725,0.18093424022833265
12.029459999999997,1.0944289133298757,0.18105299355288867
12.03184,1.102575190084534,0.18084219146262412
12.034243999999996,1.114725668332026,0.18024852365012897
12.036627999999997,1.128086851393017,0.17945465018339668
12.039008,1.1440092137078655,0.17825443833138416
12.0414,1.1675678919560437,0.17609653277338322
12.043788,1.2004854476302484,0.17289583174814777
12.046167999999998,1.2281880969981211,0.17034929037430882
12.048568,1.2594756389782462,0.16763689176800514
12.050956,1.2906234113315114,0.1648509412028104
12.053335999999998,1.324285141110391,0.16201154040488716
12.05574,1.3606005979417457,0.15894918045780226
12.058128,1.3895592780934904,0.15670406753326144
12.060503999999998,1.4175867926854573,0.15432290004522667
12.062911999999995,1.4440315154115877,0.15207925087838245
12.065296,1.4732697348170531,0.14964791324506277
12.067676,1.5012972494090198,0.14740582996895493
12.070079999999995,1.5281140591874878,0.14543088630613468
12.072467999999995,1.5577243656452906,0.1434209294886545
12.074848,1.5871949024762333,0.14147722301502716
12.07724,1.6060958570676511,0.14072178748103267
12.079628,1.6257882075919867,0.13997234309837725
12.08202,1.6391947166233516,0.13974857896638715
12.084424,1.6538119304682153,0.139401598181279
12.086811999999998,1.6692205402459968,0.13905750444105372
12.089191999999995,1.6803454092772243,0.1390966972419136
12.091592,1.683322105695924,0.13971604674428098
12.093979999999998,1.6905825428611778,0.1400028816740229
12.096359999999995,1.6903936555482053,0.14069900904394997
12.098764,1.6923466386085095,0.14122785762824638
12.101147999999998,1.6912265857357587,0.1419671353418499
12.103527999999995,1.6894549065569497,0.14268225953825456
12.105932,1.6959711696175288,0.14280803216871707
12.108316,1.706212094917221,0.14271694828197928
12.110695999999995,1.716964876896111,0.14266729430097883
12.1131,1.726926262942083,0.14265176622720055
12.115488,1.7388897497344717,0.14250658022605453
12.117863999999996,1.7479199702206651,0.14253392220056016
12.120268,1.7493610966017719,0.14299267512360442
12.122656,1.7480087263035438,0.14360702095222821
12.125035999999998,1.7502884704458117,0.14388022507308604
12.12744,1.7517768186551617,0.14416988783242457
12.129824,1.7574091379842056,0.14416181296529168
12.132203999999998,1.7638328532461676,0.144140333032044
12.134608,1.7673233022019341,0.14429845029943938
12.136992,1.7717449167174795,0.1444064369628704
12.139371999999998,1.7803105023527184,0.14422431120594628
12.141768,1.785011656121984,0.1442718209172584
12.144156,1.794368637690141,0.14405722384528247
12.146535999999998,1.8054481807509948,0.14378670776614585
12.14894,1.81559655825207,0.14355040449478484
12.151328,1.8238826046335883,0.1434168336108828
12.153703999999998,1.8272332839624945,0.14360133916300974
12.156104,1.8320742073586205,0.1436203450019073
12.158492,1.8362635044486884,0.143626623988652
12.160871999999998,1.8384507007923394,0.14375776007040544
12.163276,1.839055105270154,0.14392371717089192
12.16566,1.8458055816140795,0.14370257570752792
12.168043999999998,1.8582828209435351,0.1431767982207169
12.170436,1.8718309954596293,0.14254934938177324
12.172824,1.882166364415808,0.1421599537975534
12.175203999999995,1.8912910285584876,0.14187599042115578
12.177604,1.9005554623280276,0.1415691715298172
12.179992,1.9088887305377893,0.14131819483938785
12.182367999999997,1.9233680706136618,0.14071481248411188
12.184763999999998,1.9399892810628114,0.13999779942695342
12.187147999999995,1.9563309522582406,0.1393597322501308
12.189528,1.9762575160659228,0.13858304726194692
12.191931999999998,1.9975345543139642,0.13771414511446786
12.194315999999995,2.01750833994989,0.13685740665355756
12.1967,2.0391121392798945,0.13582430492615494
12.199095999999995,2.0643008312221522,0.13467684737663918
12.20148,2.094285120590162,0.1333477541344637
12.203875999999998,2.1191942732786995,0.13227683644331736
12.206271999999998,2.1453141307807355,0.13112777855448782
12.208655999999998,2.170363053096133,0.1300208112558063
12.211036,2.1989968680237832,0.1288314476022122
12.21344,2.2206932151524055,0.12798124868770108
12.215823999999998,2.2375939648552756,0.12733528416341441
12.218204,2.257288211237481,0.12658510706893158
12.220599999999996,2.278844788739242,0.12575865335923184
12.222987999999996,2.302031379935083,0.12478654451644057
12.225364,2.325357740757784,0.12380919698630623
12.227767999999998,2.346821770460928,0.12290103714366672
12.230155999999996,2.357855987551408,0.1225193437405993
12.232536,2.3640946072161357,0.12233283947767823
12.234939999999998,2.367679499828389,0.12222353658119353
12.237327999999998,2.370472996507724,0.12212623354213385
12.239707999999997,2.3668408820672275,0.1223651184813857
12.242103999999998,2.3625099194924304,0.12271524336548476
12.244487999999995,2.3578994176639125,0.12310986755320873
12.246883999999998,2.347701922476725,0.1237022134042854
12.249288,2.330427189863648,0.12461662528171737
12.251672,2.317808285049463,0.12537398370495784
12.254051999999998,2.303047509862001,0.1262448174328099
12.256456,2.290708144301536,0.12695582170772973
12.25884,2.2717108501957632,0.12792137667828238
12.261219999999998,2.2522942472094094,0.1290151431990184
12.263624,2.2347399753426123,0.13005642027076628
12.266012,2.217465242729536,0.1310209505721139
12.268392,2.199259344556681,0.13201922183138498
12.270788,2.1804943678763853,0.13309262940978517
12.273176,2.1617293911960886,0.1341463188614576
12.275551999999998,2.1436160408218514,0.13522466170900524
12.277956,2.136723898993196,0.13576402059281362
12.280344,2.12941244828396,0.13639118456749924
12.282723999999998,2.1231719327613634,0.1369615471078179
12.285127999999997,2.1180023524254046,0.13746288068674922
12.287512,2.1220518798886125,0.13751350125323034
12.289891999999998,2.1273121121653187,0.1374846726686923
12.292288,2.134574445188442,0.13736907558944358
12.294676,2.1487742460105936,0.13695736203589584
12.297051999999995,2.16711801795244,0.13632739470879024
12.299456,2.1868122643346446,0.13562480734749574
12.301844,2.208508611463267,0.13483110774433826
12.304223999999998,2.228854484151529,0.13414648004343246
12.306628,2.2509229183324893,0.13338647411504456
12.309012,2.2823502299394747,0.13217647830495954
12.311391999999998,2.3180612822930144,0.1307864890571035
12.313799999999995,2.352841169086776,0.12946861400767262
12.316184,2.3897629262538147,0.12806146890093562
12.318564,2.424682582674436,0.12672902923065857
12.320964,2.459462469468198,0.1254419408197372
12.323348,2.492100485888682,0.12422193991982015
12.325727999999998,2.5179408041369973,0.12331225814314783
12.328132,2.546854158318368,0.12224737703020117
12.33052,2.5773503043655754,0.12117902891150231
12.332895999999998,2.605844349666366,0.12021161295541194
12.3353,2.6284718623547665,0.11949291750445698
12.337684,2.6463037776174145,0.11893181708410927
12.340068,2.6629249880665644,0.11845184351145142
12.342471999999995,2.6744710618362415,0.11818047150763179
12.344856,2.6852257396730006,0.11791922835977874
12.347236,2.6916966767632062,0.11784669739483308
12.349639999999996,2.700169714599828,0.11770778551050913
12.352024,2.712786723556144,0.11741822328142233
12.354404,2.731689574005431,0.11689904326716397
12.3568,2.7456570574021057,0.11655979627890968
12.359188,2.754269864865588,0.11642862068682168
12.361563999999998,2.7606010323289323,0.11639483483099086
12.363968,2.767863365352056,0.11634354570514589
12.366356,2.7774073383753164,0.11619641175643587
12.368735999999998,2.7829471099057432,0.11616806910636121
12.371132,2.7951920318097216,0.11587092687526564
12.373516,2.8063660185270614,0.11560698769044347
12.375895999999996,2.819030249311621,0.11525796747514234
12.3783,2.8290407530437047,0.11495687844034554
12.380688,2.83798032158915,0.11469251055537337
12.383067999999998,2.8498531564407905,0.11434854884283624
12.385472,2.8655904231584053,0.11389449041215616
12.387856,2.8823986250626574,0.1134081396474967
12.390235999999998,2.9001379925266892,0.11289449988386732
12.392632,2.918668755923638,0.11238111661347212
12.39502,2.940412324880503,0.1117517003359189
12.397399999999998,2.9622956634642286,0.11113134966223971
12.399804,2.976822225368344,0.11075785434101154
12.402192,2.9853424850332098,0.11056438858895695
12.404567999999998,2.9926520398845766,0.11042486061789697
12.406972,3.0021034651092195,0.11021174429999946
12.40936,3.0170493358939154,0.10980863535288647
12.411739999999998,3.028922170745557,0.10950140181403173
12.414143999999997,3.041586401530116,0.10919747797860455
12.416528,3.0601171649270653,0.10874758447853308
12.418907999999998,3.0742244179506004,0.10846259070038067
12.421311999999997,3.095129369146304,0.10802674509210046
12.423699999999997,3.1145440762747887,0.10768024566183224
12.42608,3.135681344895969,0.10731333580824609
12.428479999999997,3.157889548703789,0.10690970480483528
12.430867999999997,3.177816112511471,0.1065911438597758
12.433248,3.1997447770655696,0.10623234861327475
12.435647999999995,3.218879944940334,0.1059263745140112
12.438035999999997,3.2390860480017363,0.10558921426905536
12.440416,3.261434021436416,0.10519940669734645
12.442812,3.2797777933782624,0.10490498384300775
12.445196,3.2929066590137763,0.10475280696865331
12.447575999999998,3.311390200582482,0.10444046838256178
12.44998,3.332387699576803,0.1041085122653308
12.452368,3.351522867451567,0.10380384846052884
12.454748,3.3687957042067747,0.10353269029785407
12.457151999999995,3.380574095401929,0.10343928268840012
12.459539999999995,3.3944943569703607,0.10328574473071038
12.46192,3.4054813522325973,0.10319555673368583
12.464315999999997,3.413674850815498,0.10315497556486046
12.4667,3.4221478886521197,0.10308516962203738
12.469079999999998,3.423823228316573,0.10315443180422358
12.471483999999997,3.425778107234747,0.10319472634189113
12.473872,3.4300146261530577,0.10316259321371599
12.476252,3.4351823106311468,0.10311587444154298
12.478655999999996,3.442771404736234,0.10298423860108774
12.481043999999995,3.4454251317887086,0.10295440084255704
12.483424,3.452874456266935,0.10283965742270283
12.485819999999997,3.462465651118439,0.10267267467614496
12.488204,3.46670217003675,0.10264398570071728
12.490583999999998,3.4780159263809503,0.10246685147104917
12.492987999999997,3.492542488285066,0.10220622507563967
12.495372,3.5062776542562637,0.10195127571785255
12.497751999999998,3.5195009635482637,0.10167258505440831
12.500148,3.5377994095197356,0.10128973703672303
12.502536,3.5580999562376245,0.10086795620926742
12.504932,3.581753078142289,0.10035532508159528
12.507336,3.60154176818098,0.09990970115821254
12.509719999999998,3.6256141989662254,0.09936503554988205
12.512099999999997,3.6508973345649696,0.09878563264395498
12.514495999999998,3.6751095349770746,0.09823104600856677
12.516883999999996,3.7003926705758188,0.09764208637065265
12.519264,3.7255360365477026,0.09707225383007433
12.521667999999998,3.747606366586531,0.0965756934370503
12.524055999999998,3.7728895021852753,0.0960166185352915
12.526435999999997,3.7950996018509637,0.09552378626270457
12.52884,3.8233160037559033,0.09492573194519086
12.531228,3.8468765778619507,0.09439581803071123
12.533607999999996,3.86377922342269,0.09396072217252413
12.536003999999998,3.883103278610427,0.09344691521997486
12.538387999999998,3.8964210315589134,0.09304890252203378
12.540768,3.906945287828065,0.09268480602149498
12.543167999999998,3.9153276737239393,0.09236907591285402
12.545551999999995,3.9189144621940613,0.09212013252375977
12.547936,3.91849704917135,0.09194264091753929
12.550331999999996,3.9160775354022226,0.09179990841107076
12.552719999999995,3.9096538201402606,0.09172622290127046
12.5551,3.904161270438077,0.09164131617849194
12.557495999999997,3.895455915175978,0.09162614548771793
12.559883999999997,3.8886128910334343,0.09158778121813636
12.562264,3.88270103245067,0.09153882535481264
12.56466,3.8779998786814045,0.09145442192470743
12.567044,3.870505228232804,0.09140211397530892
12.569439999999997,3.8652922177843405,0.09129140813006448
12.571844,3.8539331354697666,0.09129124258227658
12.574227999999998,3.843505218714971,0.09128096850667873
12.576607999999997,3.82427750304159,0.09140119491265414
12.579012,3.8039788521815705,0.09154610987793083
12.581395999999998,3.7889876554265003,0.09165337017130026
12.583775999999997,3.7758587897909863,0.09173723229878035
12.586171999999998,3.7605880537821963,0.09187067168143098
12.588559999999998,3.7456894048257428,0.09204661568235888
12.59094,3.7355863532950417,0.09215292454209664
12.593343999999998,3.7302788991900924,0.09219342264022737
12.595727999999998,3.7289756465779766,0.09216530714441576
12.598108,3.7293949554585577,0.09212809305049324
12.600507999999998,3.733678696205112,0.09203556512526458
12.602891999999995,3.7390333721383047,0.09191967838668448
12.605276,3.7435966521385793,0.09180190244809015
12.607671999999996,3.7412224643398244,0.09179685305636849
12.610056,3.7420610821009865,0.09172280748507175
12.612451999999998,3.742620160608426,0.09167351647381286
12.614848,3.74690390135498,0.09158237502749936
12.617235999999998,3.7487662324745368,0.09156179297593081
12.619615999999995,3.7515597291538714,0.09153025775093736
12.622011999999998,3.7534220602734285,0.09150913127791695
12.624399999999998,3.7610111543785147,0.09141007661509533
12.62678,3.771673284416657,0.09125356301482639
12.629175999999998,3.780752622588963,0.09109486869720501
12.631559999999997,3.7879696296417125,0.0909592474703613
12.633955999999998,3.7991908381872954,0.09075411941690875
12.63636,3.814044161173375,0.09044290908158673
12.638748,3.822239555614146,0.09022009435664965
12.641127999999998,3.8335079859879726,0.08994746966307848
12.643524,3.839561510055466,0.08977520737239428
12.645912,3.8451031774437623,0.0895774227672855
12.648295999999998,3.847711578525863,0.08942245653967305
12.650696,3.850180209981104,0.08927970506202793
12.653084,3.851438136622846,0.08917013133267966
12.655463999999998,3.8574916606903398,0.08899604939551893
12.657867999999995,3.861403314384556,0.0888693876269945
12.660255999999997,3.8662461336385507,0.08873326219180996
12.662636,3.866433125093654,0.0886462505141595
12.665039999999998,3.8658287206158395,0.08855681847342133
12.667427999999996,3.8676457257650223,0.08839900419841494
12.669808,3.873606702033899,0.08816726888877649
12.672211999999998,3.879707447929636,0.08792523166301472
12.674599999999998,3.883386784198375,0.08775034479723748
12.676979999999997,3.8901391564001697,0.08752590423462363
12.679375999999998,3.897962463788603,0.08728198211787891
12.681763999999998,3.906996475990535,0.0870085411862871
