Time,Force,Position
14.515227999999995,0.0,0.0
14.517608,0.0,0.0
14.520004,0.0,0.0
14.522388,0.0,0.0
14.524772,0.0,0.0
14.527168,0.00031499504580346187,0.0
14.529552,0.001840694905105664,0.0
14.531948,0.005368495510824718,0.0
14.534343999999995,0.009967231303182302,0.0
14.536731999999995,0.013774571162621775,0.0
14.539116,0.01665074546228293,0.0
14.541511999999996,0.01665074546228293,0.0
14.543899999999995,0.01665074546228293,0.0
14.54628,0.01665074546228293,0.0
14.548679999999996,0.01665074546228293,0.0
14.551064,0.01665074546228293,0.0
14.553448,0.01665074546228293,0.0
14.555843999999995,0.01665074546228293,0.0
14.558232,0.01665074546228293,0.0
14.560612,0.01665074546228293,0.0
14.563008,0.01665074546228293,0.0
14.565396,0.01665074546228293,0.0
14.567776,0.01665074546228293,0.0
14.570172,0.01665074546228293,0.0
14.57256,0.016650745462282932,0.0
14.574956,0.01633575041647947,0.0
14.577351999999998,0.014810050557177268,0.0
14.579739999999996,0.011282249951458214,0.0
14.58212,0.006683514159100627,0.0
14.584515999999995,0.0028761742996611535,0.0
14.586903999999995,0.0,0.0
14.589288,0.0,0.0
14.591683999999995,0.0,0.0
14.594068,0.0,0.0
14.596448,0.0,0.0
14.598851999999995,0.0009666213518613612,0.0
14.601239999999995,0.0010020771439444018,0.0
14.60362,0.0010020771439444018,0.0
14.606016,0.001002077143944402,0.0
14.608407999999995,0.001002077143944402,0.0
14.610788,0.001002077143944402,0.0
14.613183999999997,0.001002077143944402,0.0
14.615572,0.001002077143944402,0.0
14.617956,0.001002077143944402,0.0
14.620351999999995,0.001002077143944402,0.0
14.62274,0.001002077143944402,0.0
14.62512,0.001002077143944402,0.0
14.627516,0.001002077143944402,0.0
14.629904,0.001002077143944402,0.0
14.632288,0.001002077143944402,0.0
14.634684,0.001002077143944402,0.0
14.637072,0.001002077143944402,0.0
14.639467999999995,0.001002077143944402,0.0
14.641863999999998,0.001002077143944402,0.0
14.644251999999998,0.001002077143944402,0.0
14.646635999999996,3.545579208304077e-05,0.0
14.649031999999998,0.0,0.0
14.651415999999998,0.0,0.0
14.653799999999997,0.0,0.0
14.656195999999998,0.0,0.0
14.658579999999995,0.0,0.0
14.660964,0.0,0.0
14.663359999999996,0.0,0.0
14.665747999999995,0.0,0.0
14.668132,0.0,0.0
14.670527999999996,0.0,0.0
14.672915999999995,0.0,0.0
14.675296,0.0,0.0
14.677699999999998,0.0,0.0
14.680083999999995,0.0,0.0
14.682464,0.0007343039263840923,0.0
14.684867999999998,0.001189068599047764,0.0
14.687255999999998,0.0012245243911308047,0.0
14.689636,0.0012245243911308049,0.0
14.69204,0.0012245243911308049,0.0
14.694427999999998,0.0012245243911308049,0.0
14.696807999999995,0.0012245243911308049,0.0
14.699203999999998,0.0012245243911308049,0.0
14.701591999999998,0.0015395194369342668,0.0
14.703972,0.0015395194369342666,0.0
14.706367999999998,0.0015395194369342666,0.0
14.708755999999996,0.0015395194369342668,0.0
14.71114,0.0019942841095979386,0.0
14.713535999999998,0.0023092791554014005,0.0
14.715923999999998,0.004486605320761503,0.0
14.718304,0.008526262605678247,0.0
14.720699999999995,0.01363685507723352,0.0
14.723087999999995,0.017816281989010474,0.0
14.725472,0.019993608154370575,0.0
14.727867999999996,0.020960229506231935,0.0
14.730252,0.022263482118347732,0.0
14.732647999999998,0.021808717445684064,0.0
14.735048,0.02315919188604302,0.0
14.737436,0.027757927678400605,0.0
14.739815999999998,0.033427598657396716,0.0
14.742212,0.038957500009532624,0.0
14.744599999999998,0.04527879729458664,0.0
14.746983999999998,0.051739864206500855,0.0
14.74938,0.05560429607247436,0.0
14.751767999999998,0.057921391864694666,0.0
14.754151999999998,0.060378257283775195,0.0
14.756548,0.06483722344927256,0.0
14.758936,0.0659081586359111,0.0
14.761315999999995,0.06725863307627004,0.0
14.763711999999998,0.06674677639707237,0.0
14.766099999999998,0.06358119266539992,0.0
14.768483999999996,0.059065134493368525,0.0
14.770879999999998,0.05762211225439251,0.0
14.773267999999998,0.05925212594847188,0.0
14.775651999999996,0.06330354926954873,0.0
14.778056,0.06935707333704244,0.0
14.78044,0.0795900243163131,0.0
14.782819999999996,0.08550377875694659,0.0
14.78522,0.08713379245102597,0.0
14.787608,0.08662193577182827,0.0
14.789987999999996,0.08732078390612931,0.0
14.792383999999998,0.08843894092101098,0.0
14.794771999999998,0.0872754579357554,0.0
14.797155999999998,0.08839361495063709,0.0
14.799551999999998,0.09323643420463205,0.0
14.801935999999998,0.09672877901826807,0.0
14.804319999999995,0.09621692233907038,0.0
14.806715999999998,0.09849856233920766,0.0
14.809103999999998,0.10157159827226303,0.0
14.8115,0.10571556939195693,0.0
14.813896,0.10757790051151359,0.0
14.816284,0.10999931013851107,0.0
14.818663999999998,0.10892837495187253,0.0
14.82106,0.10571556939195695,0.0
14.823448,0.10069752471901873,0.0
14.825831999999998,0.09260644411302514,0.0
14.828228,0.08237349313375449,0.0
14.830616,0.07925133951458671,0.0
14.832999999999998,0.0734754588429442,0.0
14.835396,0.07049307485063663,0.0
14.837784,0.06426432536419965,0.0
14.840163999999998,0.05685843099847776,0.0
14.84256,0.05280511181953166,0.0
14.844948,0.05154528931992053,0.0
14.847327999999996,0.05177571088752855,0.0
14.849732,0.05307706764177511,0.0
14.85212,0.05959333070235411,0.0
14.854499999999998,0.06303655782987774,0.0
14.856896,0.06461745383784472,0.0
14.859284,0.06191460909925757,0.0
14.861663999999998,0.06521806659992098,0.0
14.864064,0.06810221522000376,0.0
14.866452,0.0736400908925613,0.0
14.868831999999998,0.08564890365532393,0.0
14.871228,0.10211668258358392,0.0
14.873615999999998,0.12263588483292076,0.0
14.876012,0.13761531555183082,0.0
14.878411999999996,0.14166673887290768,0.0
14.880796,0.15596098335154607,0.0
14.88318,0.16201450741903975,0.0
14.885575999999997,0.1744799807123353,0.0
14.887964,0.18076582220530626,0.0
14.890344,0.1888667729895907,0.0
14.89274,0.19310329190790168,0.0
14.895132,0.19170559563929956,0.0
14.897512,0.18965627306463956,0.0
14.899908,0.18141365679562566,0.0
14.902296,0.184624566497672,0.0
14.90468,0.19328269993152808,0.0
14.907076,0.20622457411193826,0.0
14.90946,0.2159536427324329,0.0
14.911844,0.22726550321876368,0.0
14.91424,0.23755365034669912,0.0
14.916628,0.23997505997369661,0.0
14.919007999999998,0.23373644030896884,0.0
14.921404,0.22768291624147513,0.0
14.923792,0.22782079001046607,0.0
14.926175999999998,0.23638447978783583,0.0
14.928572,0.23521720508684174,0.0
14.93096,0.25109044971557787,0.0
14.933343999999998,0.26137670098564403,0.0
14.93574,0.2815336863609343,0.0
14.938128,0.29987556244491104,0.0
14.940511999999998,0.32129047446194314,0.0
14.942908,0.3456386527851705,0.0
14.945296,0.37436311965356894,0.0
14.947692,0.40541644835034785,0.0
14.950091999999998,0.421850667344394,0.0
14.952479999999998,0.4299043963004353,0.0
14.95486,0.43753881637589603,0.0
14.957259999999998,0.4461044020111351,0.0
14.959647999999998,0.4541581309671764,0.0
14.962028,0.4619323206694973,0.0
14.964427999999998,0.46961206671533184,0.0
14.966815999999998,0.48632392910522926,0.0
14.969199999999995,0.500382064442652,0.0
14.971595999999998,0.5148595086606551,0.0
14.973983999999998,0.5299432532143423,0.0
14.976367999999995,0.547308637768167,0.0
14.978763999999998,0.5490765252312373,0.0
14.981151999999998,0.5515432608286086,0.0
14.983535999999996,0.5516358086272257,0.0
14.985931999999998,0.5477241549330091,0.0
14.988319999999998,0.53859759493246,0.0
14.990703999999996,0.5293312653050506,0.0
14.993099999999998,0.5174112086251667,0.0
14.995487999999998,0.5118695412368706,0.0
14.997871999999996,0.5184330261256928,0.0
15.000267999999998,0.531514669932963,0.0
15.002655999999998,0.5465984144866503,0.0
15.005039999999996,0.557026331241446,0.0
15.00744,0.5655919168766851,0.0
15.009828,0.5732263369521458,0.0
15.012207999999998,0.5855638066547412,0.0
15.014604,0.591802426319469,0.0
15.016991999999998,0.5965980237452209,0.0
15.019375999999998,0.5992517507976954,0.0
15.021772,0.5982733634096741,0.0
15.024164,0.601811034193684,0.0
15.026543999999998,0.6120066335230023,0.0
15.028944,0.6275096869572702,0.0
15.031336,0.6420343530035165,0.00585604470006643
15.033711999999998,0.6618664731547125,0.011606477161106224
15.036116,0.6877048955451589,0.017155085130811293
15.038504,0.7150335620028245,0.022531150335888147
15.040883999999998,0.7394289621542949,0.028079758305593214
15.043287999999997,0.7533020018944834,0.03404063640991735
15.045672,0.7623794442089201,0.039923520950083294
15.048051999999998,0.766661289097605,0.039923520950083294
15.050448,0.7670787021203163,0.039923520950083294
15.052832,0.7784377844348903,0.04557985443958851
15.055215999999998,0.7933817593617175,0.051100817710685836
15.057612,0.8109794613410193,0.05655572800373219
15.06,0.8260159840664634,0.0621586740565296
15.062379999999996,0.8477104353372158,0.06744428873776795
15.064775999999998,0.867774872913889,0.07296365755429791
15.067163999999998,0.8897016416101188,0.07847515710844918
15.069543999999995,0.9140498199333461,0.0838893072618276
15.071939999999998,0.9336024008308216,0.08944668492649857
15.074327999999998,0.9526431250490994,0.0949055746845086
15.076711999999995,0.9660968559087074,0.10041707423865986
15.079107999999998,0.9794580389696983,0.09998147940647988
15.081495999999998,0.9893740990452963,0.09970407836072945
15.083876,0.9943547920682821,0.09983624038394776
15.08628,0.9962624491582127,0.10025144746475981
15.088667999999998,1.0016152292335363,0.10051797753301567
15.091047999999995,1.0132066289735873,0.10039480845009005
15.093443999999998,1.021445453526863,0.10067467866730435
15.095831999999998,1.0315466091996948,0.10693922666992804
15.098212,1.0448605704324425,0.1130173866829921
15.100607999999998,1.051097294239301,0.1134880736617719
15.102991999999997,1.0556114565534633,0.11402897177372902
15.105387999999998,1.0584030573749288,0.11463592286373711
15.107784,1.060682801517197,0.1151599972792247
15.110172,1.0561648474872962,0.11619025103265136
15.112551999999996,1.0554187775247523,0.11670044125328838
15.114947999999998,1.0537415420024296,0.11726710171220117
15.117335999999998,1.0516449975995266,0.11796290300575314
15.119715999999997,1.0558342946895944,0.11808662072258658
15.12212,1.0596042828990815,0.11834192009725474
15.124508,1.0648172933475448,0.11861927513706057
15.126887999999996,1.0724044915947621,0.1188755881816965
15.129283999999998,1.0826454168944546,0.11902280073266053
15.131671999999998,1.0978217092467588,0.11882703652698695
15.134051999999995,1.1159312679052582,0.11843674631256697
15.136447999999998,1.1345999050711986,0.11790819430007754
15.138835999999998,1.1528964551848013,0.11728521412355339
15.141216,1.1746853501120404,0.11626745202764005
15.143615999999998,1.199966589852915,0.11495051485731905
15.146003999999998,1.2221747936607346,0.11388387326917111
15.148384,1.2423808967221373,0.112901845462353
15.150779999999996,1.261376294970041,0.11205215044394898
15.153167999999996,1.2820942547106413,0.11116457259189796
15.155552,1.3073282726232731,0.11010991028789766
15.157947999999998,1.3344246216554614,0.10889761485558286
15.160335999999996,1.358820021806932,0.10806595297243973
15.16272,1.3840068178913207,0.10721482458246859
15.165115999999998,1.4093333836025694,0.10632942037808314
15.167499999999997,1.4273031726342087,0.10603798492463826
15.169895999999998,1.442479464986513,0.10585518453769051
15.172292,1.456072965472981,0.10567170269395015
15.17468,1.4660815733471961,0.1056417632469149
15.177059999999996,1.4734364541689364,0.10571087888861089
15.17946,1.476135507191785,0.10600373639937538
15.181843999999998,1.4779033946548552,0.10633577870557387
15.184227999999996,1.4767380158117305,0.10682705597811665
15.186623999999998,1.4763640329015235,0.10730168674119166
15.189011999999998,1.4757105107375963,0.10783825445478509
15.191391999999995,1.4724958093198115,0.10859905173992909
15.193787999999998,1.469281107902027,0.1093741193683946
15.196175999999998,1.4669975720440203,0.1101322492220375
15.198572,1.4660645106263726,0.11074195178072621
15.200968,1.4634088877160287,0.11138953717306194
15.203352,1.4571683721934314,0.11213904793211636
15.205735999999998,1.4529299574172512,0.11277025288434069
15.20814,1.4512527218949287,0.1131580465939248
15.210528,1.4490636296934085,0.1134837315755721
15.212908,1.4471540767456088,0.11374108259303972
15.215304,1.446455228611308,0.11390413926972041
15.217692,1.4508315171564792,0.1137814214304535
15.220071999999998,1.4613538775677613,0.11332831363836893
15.222468,1.472527864285101,0.11289212335591726
15.224856,1.484493246935359,0.11244272832859621
15.227239999999998,1.5009746877576482,0.11184070691695608
15.229636,1.5134519270871036,0.11143623642992269
15.23202,1.5265807927226172,0.11104648754171731
15.234403999999998,1.5367763920519355,0.11080975742035196
15.2368,1.5461805954483356,0.11058082653187565
15.239188,1.5549331725386781,0.11032504790101298
15.241571999999998,1.5684813470547723,0.10985730348260375
15.243968,1.5872444278771989,0.10909577070673881
15.246356,1.6029344727665702,0.10850207893151077
15.248735999999996,1.617413812842443,0.10799593362561943
15.251136,1.6337554840378723,0.10742782614725291
15.253524,1.647024119300246,0.10703405462994516
15.255903999999996,1.6558692441892053,0.10694193841717159
15.258299999999998,1.6673680961306394,0.10678339556555334
15.260687999999998,1.6776562432585749,0.10672402466768363
15.263071999999998,1.6911571959464256,0.10647511414486414
15.265467999999998,1.7037269830744983,0.10628385808065695
15.267855999999998,1.7082883672169036,0.10646612338122691
15.270239999999998,1.7140604561728074,0.10655929628011214
15.272636,1.7230453506886272,0.10648175302337011
15.275023999999998,1.7324495540850275,0.10633608093684642
15.277403999999995,1.74678912453404,0.10598716465542546
15.279804,1.76355010461005,0.10548168853509285
15.282191999999998,1.7821734158056162,0.10491247368408485
15.284588,1.8026590581207391,0.10429779182298707
15.286983999999997,1.8239360963687803,0.103684210970526
15.289375999999995,1.8402777675642095,0.10327388920787596
15.291756,1.8526152372668048,0.10304081934095344
15.294159999999998,1.8698880740220123,0.10263097570210578
15.296547999999998,1.8903737163371352,0.10206878364217453
15.298928,1.9102077323462003,0.1015040162451901
15.301323999999996,1.9331147842883205,0.1008130011522492
15.303711999999996,1.961516281790494,0.0998507110559445
15.306092,1.9852619514937757,0.09902369670551006
15.308487999999995,2.0083559948909997,0.09816535231220835
15.310875999999997,2.028097463101448,0.09748743990714166
15.31326,2.0429035642592845,0.09697699949734831
15.315663999999998,2.059571996536677,0.09639256807335349
15.318051999999998,2.078242529560487,0.09575579870951183
15.320432,2.0935604873975207,0.09530438592032889
15.322827999999998,2.103663538928222,0.09507113609222853
15.325215999999998,2.112835424899145,0.09486738050814666
15.327599999999997,2.1218675412432084,0.09469772353660724
15.329995999999998,2.1322501320276293,0.09444529269795421
15.332383999999998,2.1437036579986892,0.09416244938863085
15.334764,2.1554367232234704,0.09384042118411079
15.337159999999995,2.167589097328831,0.0934456897924361
15.339547999999995,2.1796017018073326,0.09307159085552771
15.341928,2.188681039979639,0.09278767828167825
15.344327999999996,2.1948271118457496,0.0925862563095965
15.346715999999995,2.196549673338446,0.09256884292412662
15.349096,2.196549673338446,0.09256884292412662
15.351491999999997,2.192126162965031,0.09275053968753388
15.35388,2.1894252140843133,0.09291827434385262
15.35626,2.1883070570694314,0.09309077271419307
15.358656,2.1883996048680485,0.09320156037652066
15.361044,2.1943586852790564,0.09315160198430042
15.363423999999998,2.204321967182897,0.09298292861126281
15.365824,2.2084187164743483,0.09297290793342647
15.368212,2.2147971057659364,0.09286119560530852
15.370591999999998,2.2263904013638567,0.09257068966510469
15.372988,2.2379836969617775,0.09228455162137812
15.375376,2.2463641869997826,0.09211811086521333
15.377772,2.2515318714778716,0.09207128843043669
15.380167999999998,2.2497620881569325,0.09221553100014088
15.382555999999996,2.2486439311420505,0.09238089520051052
15.38494,2.250459040433364,0.09247163613915037
15.387335999999998,2.2544160200979544,0.09248668350607672
15.389723999999998,2.259304165322323,0.09248479402022722
15.392104,2.268196512039526,0.09237748084844398
15.394499999999995,2.284445635436338,0.09203425516029247
15.396887999999995,2.298413118833013,0.09177927253855021
15.399268,2.313591307043186,0.09146129994319693
15.401664,2.330119969693718,0.09106919020043508
15.404052,2.3487905027175286,0.09061452274894748
15.406436,2.3696029061146153,0.09009719892015698
15.408831999999997,2.3893443743250633,0.08963374770619162
15.41122,2.405081641042677,0.08927629896636308
15.4136,2.4276166059324606,0.08877549998387327
15.415999999999997,2.449080635635605,0.08832031447058776
15.418388,2.4653297590324166,0.08801682622497926
15.420768,2.481718652056089,0.08770036573530096
15.423164,2.4962452139602047,0.08739990902621368
15.425552,2.5117029414240992,0.08707941260263284
15.427936,2.5331669711272435,0.08660026245863761
15.430332,2.550114942658357,0.08617718304241333
15.432723999999997,2.566783374935749,0.08580570262482767
15.435104,2.5771659657201704,0.08561482732944799
15.4375,2.5847550598252576,0.08546989615958545
15.439888,2.589922744303347,0.08543476178611685
15.442272,2.590015292101964,0.08553098340778627
15.444668,2.5953227462069135,0.08548037895071581
15.447052,2.6037032362449186,0.08535334251064575
15.449451999999996,2.610733251842565,0.08529604775511847
15.451852,2.61175696520096,0.08537645736898054
15.454235999999998,2.613432304865413,0.08547773584349361
15.456619999999996,2.6104518167309743,0.08564659451877236
15.459015999999998,2.609473429342953,0.08577091174380672
15.461403999999998,2.60383921415604,0.08595909895156698
15.463787999999996,2.5934094015433753,0.08623603846038624
15.466183999999998,2.586052624863765,0.08643918055991515
15.468571999999998,2.5737604811315435,0.08675241108066378
15.470955999999996,2.56975627963871,0.08684280679404162
15.473356,2.566962782959375,0.08688347377498064
15.475744,2.562167185533623,0.08696760895261325
15.478123999999998,2.5643090559069006,0.0869065770434757
15.480524,2.5655197607203992,0.08685921910973755
15.482912,2.5765086518405056,0.08652711165183136
15.485291999999998,2.592153370759503,0.08613385192077345
15.487692,2.606355067439524,0.08571298354988104
15.49008,2.621487929679324,0.0852772006231354
15.492463999999998,2.6326165904262897,0.08493218599325647
15.49486,2.638670114493783,0.08470170389918359
15.497243999999998,2.646865508934554,0.08441560397410072
15.499623999999995,2.6612069752414356,0.0839895130547752
15.502019999999998,2.6727549448689825,0.08360520965210158
15.504407999999998,2.687887807108782,0.08318487191346799
15.506788,2.703160438975442,0.08275311633369944
15.509183999999998,2.7182933012152413,0.08233508345382799
15.511571999999996,2.742225962373626,0.08176220684437303
15.513952,2.764436062039315,0.08119825436165666
15.516344,2.793443859877172,0.08051223376926415
15.518732,2.814163715475642,0.08003306371640856
15.521127999999996,2.836885671820528,0.0795292252169865
15.523532,2.8586764626056365,0.07903409603718103
15.52592,2.874321181524634,0.07867793813532065
15.528299999999998,2.8862412382045184,0.07836215473012312
15.530704,2.8934582452572677,0.07821160028544173
15.533092,2.896950590070903,0.07810268100361001
15.535472,2.902305266004096,0.07797441280464004
15.537868,2.9095222730568455,0.07782773453809978
15.540256,2.9198123160426497,0.07762261517077304
15.542635999999998,2.9359688916408446,0.07733107058279819
15.545032,2.9522652368659,0.07703294213152659
15.54742,2.9665594813445386,0.07677598526319004
15.549799999999998,2.9791311643304805,0.07652007886159636
15.552204,2.99412425694342,0.07619380151887571
15.554588,3.0091173495563583,0.07587211000148485
15.556967999999998,3.025972773288855,0.07553364867556465
15.559372,3.0360304988491826,0.07528734007878479
15.56176,3.048881721088845,0.07501938917784141
15.564139999999998,3.0618727129553673,0.07474605836992604
15.566543999999997,3.0777969711280853,0.07442935890662307
15.568932,3.0875751574346926,0.07421677554626217
