Time,Force,Position
16.769423999999997,0.035460536820078166,0.0
16.771824,0.03969705573838913,0.0
16.774212,0.04593567540311695,0.0
16.776591999999997,0.04723892801523276,0.0
16.778988,0.053757086933681,0.0
16.781375999999998,0.05492056991893658,0.0
16.783759999999997,0.06330105995694148,0.0
16.78616,0.07112914125952556,0.0
16.788548,0.07950963129753046,0.0
16.790931999999998,0.08733771260011454,0.0
16.793328,0.09516579390269862,0.0
16.795716,0.10113154408572606,0.0
16.798099999999998,0.1070972942687535,0.0
16.800496,0.1150651451981978,0.0
16.802884,0.12317276575450231,0.0
16.805267999999998,0.1294180551912502,0.0
16.807664,0.1274159544448333,0.0
16.810052,0.1290459681389127,0.0
16.812431999999998,0.1360306577661847,0.0
16.814836,0.1396627722066809,0.0
16.817224,0.13514671403464953,0.0
16.819608,0.12904786399678192,0.0
16.822004,0.12215094825397615,0.0
16.824392,0.11525403251117039,0.0
16.826776,0.10514431120844903,0.0
16.829172,0.0993183306522818,0.0
16.83156,0.09041931416305918,0.0
16.83394,0.0825912328604751,0.0
16.83634,0.07383198599811269,0.0
16.838724,0.06829221446768594,0.0
16.841108,0.06368360849703747,0.0
16.843504,0.06307920401922272,0.0
16.845896,0.059401763608352594,0.0
16.848276,0.0514339126789083,0.0
16.850672,0.043326292122603804,0.0
16.853064,0.03708100268585594,0.0
16.855444,0.034839914741941785,0.0
16.85784,0.030456956424750558,0.0
16.860228,0.02193002698786542,0.0
16.862612,0.015405198297397142,0.0
16.865008,0.013955506286401092,0.0
16.867396,0.013157440581462941,0.0
16.86978,0.013157440581462941,0.0
16.872176,0.013157440581462941,0.0
16.874564,0.013157440581462941,0.0
16.876948,0.013157440581462943,0.0
16.879344,0.013157440581462945,0.0
16.881732,0.013157440581462945,0.0
16.884112,0.013157440581462945,0.0
16.886512,0.010869130809305632,0.0
16.8889,0.007649655477370003,0.0
16.89128,0.002288309772157311,0.0
16.89368,0.0,0.0
16.896068,0.0,0.0
16.898448,0.0,0.0
16.900848,0.0,0.0
16.903236,0.0,0.0
16.905616,0.0,0.0
16.908016,0.0019615486901937394,0.0
16.910404,0.001961548690193739,0.0
16.912784,0.0020607662608308373,0.0
16.91518,0.0020607662608308377,0.0
16.917568,0.0020607662608308377,0.0
16.919952,0.0025792927120485663,0.0
16.922348,0.0025792927120485663,0.0
16.924736,0.0025792927120485663,0.0
16.92712,0.006031085469461467,0.0
16.929516,0.007620547107317726,0.0
16.931908,0.007620547107317726,0.0
16.934292,0.008278843185395665,0.0
16.936688,0.008937139263473604,0.0
16.939076,0.008937139263473604,0.0
16.94146,0.008937139263473604,0.0
16.943859999999997,0.008937139263473604,0.0
16.946247999999997,0.008937139263473604,0.0
16.948628,0.009315896087831123,0.0
16.951027999999997,0.010625818471966962,0.0
16.953415999999997,0.011935740856102802,0.0
16.9558,0.009974192165909062,0.0
16.958199999999998,0.012355049736683433,0.0
16.960587999999998,0.016638790483237555,0.0
16.962971999999997,0.022604540666264994,0.0
16.965372,0.028710060476152648,0.0
16.96776,0.036299154581239425,0.0
16.970143999999998,0.0473400414437391,0.0
16.97254,0.06038302905265563,0.0
16.974928,0.06410769129176891,0.0
16.977311999999998,0.07062585021021715,0.0
16.979712,0.07379810371390962,0.0
16.9821,0.07845393151280122,0.0
16.984484,0.08497209043124947,0.0
16.98688,0.09536135098769125,0.0
16.989268,0.10668177710391134,0.0
16.991652,0.11986453433968808,0.0
16.994048,0.1322558956425467,0.0
16.996436,0.14212662974777074,0.0
16.99882,0.15106619829321644,0.0
17.001216,0.1578638964653851,0.0
17.003608,0.1650403514619113,0.0
17.005992,0.16769407851438606,0.0
17.008388,0.1662038344471669,0.0
17.010779999999997,0.16341033776783195,0.0
17.01316,0.15940613627499828,0.0
17.015552,0.1512985157186938,0.0
17.017936,0.1402576288561941,0.0
17.020315999999998,0.1281052547508328,0.0
17.022712,0.1235419747505582,0.0
17.025095999999998,0.11818729881736553,0.0
17.027476,0.12284312661625715,0.0
17.029871999999997,0.12521731441501147,0.0
17.032259999999997,0.12493777516129104,0.0
17.034636,0.11944332960123819,0.0
17.037039999999998,0.11101561773499016,0.0
17.039427999999997,0.09886324362962885,0.0
17.041808,0.08843343101696398,0.0
17.0442,0.08014548877757616,0.0
17.046588,0.07306825135168708,0.0
17.048968,0.07027475467235211,0.0
17.051364,0.06841242355279546,0.0
17.053748,0.06883173243337609,0.0
17.056127999999998,0.07232407724701209,0.0
17.058543999999998,0.07432617799342896,0.0
17.060927999999997,0.0794013146729012,0.0
17.063308,0.08657776966942737,0.0
17.0657,0.09375422466595355,0.0
17.068088,0.09589609503923062,0.0
17.070483999999997,0.09859704391994852,0.0
17.072879999999998,0.10208938873358453,0.0
17.075267999999998,0.09943566168110977,0.0
17.077648,0.09491960350907837,0.0
17.080052,0.09212610682974341,0.0
17.082435999999998,0.09333681164324215,0.0
17.084816,0.0956184516433794,0.0
17.087211999999997,0.10069358832285163,0.0
17.089599999999997,0.10083335794971184,0.0
17.09198,0.10404616350962742,0.0
17.094383999999998,0.10404616350962742,0.0
17.096767999999997,0.10083335794971184,0.0
17.099148,0.10069358832285162,0.0
17.10154,0.10227638018868784,0.0
17.103928,0.105209646494883,0.0
17.106312,0.11242665354763232,0.0
17.108704,0.11657062466732623,0.0
17.111092,0.12285646616029723,0.0
17.113491999999997,0.12700043727999116,0.0
17.115887999999998,0.1355679187730994,0.0
17.118271999999997,0.14185376026607038,0.0
17.120656,0.14520633545284617,0.0
17.123051999999998,0.15135240731895694,0.0
17.125439999999998,0.1605715151181231,0.0
17.12782,0.16778852217087237,0.0
17.130215999999997,0.17100132773078794,0.0
17.132603999999997,0.1779387955298168,0.0
17.134984,0.18394509776906737,0.0
17.137387999999998,0.19917050780748408,0.0
17.139775999999998,0.21011217709934665,0.0
17.142156,0.22198501195098752,0.0
17.14456,0.234928781989267,0.0
17.146948,0.23958460978815863,0.0
17.149327999999997,0.24144694090771526,0.0
17.151723999999998,0.23888576165385758,0.0
17.154111999999998,0.23031828016074934,0.0
17.156492,0.22575500016047478,0.0
17.158887999999997,0.22091218090647982,0.0
17.161275999999997,0.21863054090634254,0.0
17.163656,0.21779192314518128,0.0
17.166064,0.2189081843021937,0.0
17.168447999999998,0.22589097807159647,0.0
17.170828,0.22756631773604977,0.0
17.173223999999998,0.22989328370656092,0.0
17.175611999999997,0.2315686233710142,0.0
17.177992,0.23803956046121932,0.0
17.180387999999997,0.24157723124522926,0.0
17.182775999999997,0.24576652833529705,0.0
17.185171999999998,0.2438097535592541,0.0
17.187568,0.24227228766379175,0.0
17.189956,0.23994342583541137,0.0
17.192335999999997,0.2404080606863659,0.0
17.194732,0.24757784591087206,0.0
17.197119999999998,0.2555390270682963,0.0
17.199499999999997,0.2649904522929397,0.0
17.201895999999998,0.2790977053164747,0.0
17.204283999999998,0.2864072601678411,0.0
17.206664,0.28477724647376174,0.0
17.209063999999998,0.2856139683770538,0.0
17.211451999999998,0.29031512214631927,0.0
17.213832,0.285239985466847,0.0
17.216231999999998,0.2741585465481243,0.0
17.218615999999997,0.26973503617471,0.0
17.220996,0.26051592837554377,0.0
17.223391999999997,0.2551140306141079,0.0
17.22578,0.24878096729289378,0.0
17.22816,0.23886301135942656,0.0
17.230576,0.22736226356012315,0.0
17.23296,0.21679268132059806,0.0
17.235343999999998,0.2055242509467719,0.0
17.23774,0.2023567713572302,0.0
17.240123999999998,0.194533463968797,0.0
17.242507999999997,0.18587153881920243,0.0
17.244912,0.1804224192295235,0.0
17.2473,0.17692817855801823,0.0
17.249679999999998,0.17329416825965274,0.0
17.252076,0.17445575538703909,0.0
17.254464,0.18404505438067348,0.0
17.256843999999997,0.18623225072432448,0.0
17.25924,0.17682615147005498,0.0
17.261627999999998,0.1786865867317424,0.0
17.264007999999997,0.18469099311312367,0.0
17.266408,0.18506118430759194,0.0
17.268791999999998,0.19036674255467217,0.0
17.271188,0.19292602595066063,0.0
17.273584,0.19241227341359368,0.0
17.275968,0.19748551423519667,0.0
17.278351999999998,0.20148781987016112,0.0
17.280752,0.20665360849038117,0.0
17.28314,0.2145203459913191,0.0
17.285519999999998,0.21363450640191467,0.0
17.28792,0.2135400627454284,0.0
17.290308,0.21223491427544336,0.0
17.292688,0.20529555061854524,0.0
17.295084,0.19812386953616987,0.0
17.297472,0.18871777028190037,0.0
17.299856,0.1811740021471875,0.0
17.302252,0.17758721367706523,0.0
17.30464,0.1823809152449478,0.0
17.307019999999998,0.19439162386557962,0.0
17.309416,0.2021658135679005,0.0
17.311804,0.20858952882986243,0.0
17.314183999999997,0.2233011863312122,0.0
17.31658,0.23615051271300536,0.0
17.318967999999998,0.25179333577413343,0.0
17.321351999999997,0.2697177988353988,0.0
17.323748,0.2882938882027221,0.0
17.326135999999998,0.31459884130199234,0.0
17.328515999999997,0.33787798029645033,0.0
17.330916,0.3618087455969663,0.0
17.333299999999998,0.3878341594425161,0.0
17.335696,0.4185154010869575,0.0
17.338092,0.4509664260523385,0.0
17.34048,0.4851872343386591,0.0
17.342859999999998,0.5171264026248424,0.0
17.345264,0.5483667227767247,0.0
17.347652,0.5756028414357732,0.0
17.350032,0.5953896356165952,0.0
17.352435999999997,0.6122431634912221,0.0
17.354823999999997,0.6286773824852683,0.0
17.357204,0.6516297603977627,0.0
17.3596,0.6737907423773389,0.0
17.361988,0.6892937958116068,0.0
17.364372,0.7037259140592361,0.0
17.366767999999997,0.7143861482395092,0.0
17.369156,0.7219733464867266,0.0
17.371536,0.7282572921218284,0.0
17.373932,0.7277435395847615,0.0
17.376324,0.7329565500332247,0.0
17.378704,0.7361674597352709,0.0
17.3811,0.7436621101838715,0.0048698563498303735
17.383488,0.7463611632067201,0.009912521968007675
17.385868,0.7515741736551834,0.014734807794207352
17.388264,0.7593011415292611,0.019511164303777633
17.390652,0.7680990445899774,0.024338867164820307
17.393036,0.7793183572776912,0.029068453528129375
17.395432,0.7905376699654049,0.03394781382291405
17.39782,0.8028279178397573,0.038931485298906325
17.400199999999998,0.8171202664605263,0.043714578892490946
17.402604,0.8283395791482402,0.04875080651180546
17.404992,0.8304795536636478,0.05418875668181956
17.407376,0.8316883626192773,0.05975503091687688
17.409772,0.8326176323211865,0.05975503091687688
17.41216,0.8372715642622087,0.0653578006070325
17.41454,0.8475597113901442,0.0705985992593838
17.416936,0.8586392544509978,0.07600475889034741
17.419324,0.8671576182579935,0.08164164015298069
17.421704,0.8776780828114064,0.0872116715406973
17.424108,0.8814008491926504,0.09305073698506529
17.426496,0.8841924500141161,0.0990291593919139
17.428876,0.8849819500891649,0.09998256009105477
17.431272,0.8840488886715173,0.09493989447287746
17.43366,0.8773890642683396,0.09011760864667778
17.436044,0.8707292398651618,0.0853412521371075
17.43844,0.8682133865816781,0.0863215696661194
17.440824,0.863415893298057,0.08759308516142861
17.443208,0.8649042415074069,0.08820215631072095
17.445604,0.8702570215827302,0.08853570122989221
17.447992,0.8705346649785815,0.0892839965979733
17.450388,0.8760272146807652,0.08955978482689533
17.452783999999998,0.8898077066223368,0.089104915071749
17.455171999999997,0.9055902993103251,0.08847955056303146
17.457552,0.9244459279313688,0.09334011618308058
17.459956,0.9405080598730775,0.09263852387904675
17.462343999999998,0.9496327240157574,0.09246690661642698
17.464724,0.9616906544646323,0.09208552417223438
17.467119999999998,0.9750990593538663,0.09147342009637213
17.469511999999998,0.9875762986833219,0.09092816589542657
17.471891999999997,1.004709365811669,0.0900720525489346
17.474287999999998,1.0254273255522692,0.0890375939126019
17.476675999999998,1.0402787526804793,0.08840529386035753
17.479059999999997,1.0617881083539977,0.0934272357729823
17.481455999999998,1.0859511910799908,0.09848740848060367
17.483843999999998,1.1083917123132876,0.10354758118822505
17.486227999999997,1.1228238305609168,0.10305314334325513
17.488623999999998,1.142051546234298,0.10222953028225888
17.491011999999998,1.1557848163476265,0.10203750706413733
17.493392,1.1636515538485643,0.10223963328285392
17.495787999999997,1.172589226536141,0.10232172898282982
17.498175999999997,1.1773829281040236,0.10276569278753049
17.50056,1.1749596226191572,0.10379532838468554
17.502955999999998,1.171605151574512,0.10486713467036862
17.505343999999997,1.1691818460896453,0.10584062652098364
17.507728,1.1689004109780554,0.10662102910811515
17.510123999999998,1.1734145732922177,0.10713215744014977
17.512511999999997,1.1772771093003218,0.10759897543589289
17.514896,1.1814191845621465,0.1079855693337084
17.517291999999998,1.1862128861300292,0.10840621293392726
17.519683999999998,1.1890044869514946,0.10894821725156772
17.522064,1.1895616696010662,0.1094496742680417
17.524459999999998,1.1931918881836934,0.10975031245382902
17.526847999999998,1.1929576749003468,0.11026035208593767
17.529228,1.1940739360573593,0.1106007839004996
17.531632,1.1962611324010104,0.1108595316834038
17.534019999999998,1.2041750917301914,0.11081967976795198
17.536399999999997,1.2047794962080063,0.11108761175731982
17.538795999999998,1.2055236703126808,0.11131615994688085
17.541183999999998,1.21613857852258,0.11095396156190429
17.543567999999997,1.2290351267326163,0.11039167662839504
17.545963999999998,1.2423509838232332,0.1096877018086954
17.548351999999998,1.259810812033544,0.10865755834798434
17.550732,1.2811350721098282,0.10746709951007036
17.553131999999998,1.2958014036408043,0.106615614590718
17.555519999999998,1.308325864798503,0.10595046045872815
17.5579,1.3179170596500067,0.10545585894736352
17.560295999999997,1.3272287152477897,0.10504879736824052
17.562683999999997,1.3367726882710502,0.10478869253310581
17.565064,1.3440822431224166,0.1044984121516099
17.567463999999998,1.3546046035336987,0.10398910247983645
17.569851999999997,1.3647076550644002,0.10359257158308827
17.572232,1.3777439729012966,0.10305118075755987
17.574631999999998,1.3930619307383303,0.10234472843009032
17.577019999999997,1.4053068526423087,0.10183110718145055
17.5794,1.414478738613232,0.10149469803314848
17.581795999999997,1.4216485238377379,0.10126912060840215
17.584183999999997,1.4364074031673308,0.10071260542145434
17.586564,1.4538672313776415,0.09989799872311478
17.588963999999997,1.46052515992295,0.09962783776775472
17.591351999999997,1.4655530747741794,0.09955911072463342
17.593747999999998,1.4735142559316037,0.09936506035190211
17.596144,1.4788217100365528,0.099239172576192
17.598532,1.4751895955960568,0.09953417459115096
17.600911999999997,1.4763530785813124,0.09963386352092915
17.603312,1.4764456263799293,0.09980284462169503
17.6057,1.4776091093651846,0.09990254335332291
17.608083999999998,1.4770500308577437,0.10004038596967786
17.61048,1.4778414267906617,0.1000385127052988
17.612868,1.4848714423883076,0.0998658079225578
17.615251999999998,1.4893875005603392,0.0997390667788568
17.617648,1.4949744939190093,0.09954937529417968
17.620036,1.502423818397236,0.09931735330652315
17.622419999999998,1.5077312725021854,0.09921000645858856
17.624816,1.515180596980412,0.09898665124423985
17.6272,1.5254234181379736,0.09867076204571867
17.629579999999997,1.539158584109171,0.09813500313207262
17.631975999999998,1.5530335197072287,0.09762056450403515
17.634359999999997,1.560482844185455,0.09742260907809867
17.636751999999998,1.5722159094102357,0.09699442215686133
17.639148,1.586370384262014,0.09640165354061463
17.641531999999998,1.60103671579299,0.09589815119466136
17.643915999999997,1.6144923425104671,0.09546218774642039
17.646311999999998,1.6339542714671949,0.0947449252390292
17.648699999999998,1.6534162004239223,0.09404235618326832
17.65108,1.6783725749407032,0.09306322479418727
17.653471999999997,1.7031891798306233,0.0921080278287443
17.655859999999997,1.731078820653599,0.09103418668149696
17.65824,1.7601791662900734,0.08993975239282999
17.660632,1.7836925185678778,0.08902766736523827
17.66302,1.8052963178978827,0.08831714147890715
17.665395999999998,1.828762448347444,0.08758734431830464
17.667792,1.8460825069308946,0.0871001346035557
17.670175999999998,1.8621918607008463,0.08667724865127738
17.672556,1.8792323800305766,0.08625052333230851
17.674972,1.8973438345469453,0.08578720140161497
17.677356,1.9130338794363164,0.08548409741616136
17.679736,1.9208552909668806,0.08541041455758386
17.682152,1.933332530296336,0.08522742863217123
17.684535999999998,1.948463496678267,0.08502277544713413
17.686916,1.9626632975004192,0.0848482601691505
17.689311999999997,1.9762114720165131,0.08465513846755535
17.691699999999997,1.9968368839584962,0.0842593629915066
17.69408,2.0203955622066747,0.08381151372444909
17.696492,2.043023074895075,0.08338396871373906
17.69888,2.0613668468369206,0.08312984057540984
17.701259999999998,2.0807815539654055,0.08283923461070557
17.703651999999998,2.1028499881463647,0.0825517734427018
17.706039999999998,2.1197035160209916,0.08241907480378248
17.708432,2.1373484398285365,0.08229012965259208
17.710828,2.1564836077033007,0.08205315538285203
17.713216,2.1689608470327566,0.08193539430587121
17.715595999999998,2.184790661548988,0.08168328796989721
17.718,2.202902116065357,0.08133468833504022
17.720384,2.2188717002084486,0.08106396451829408
17.722763999999998,2.2349810539784,0.08078292436277179
17.725168,2.250299011815434,0.08049589411447143
17.727556,2.271203963011137,0.08011251254038368
17.729936,2.2933196190203398,0.07967723898183125
17.732332,2.3122224694696265,0.07935436932568267
17.734716,2.330845780665193,0.07907725469574059
17.737095999999998,2.345325120741065,0.07891556227527942
17.739492,2.3524476841373287,0.07897339976684886
17.741875999999998,2.353843484548061,0.07913112218579368
17.744256,2.3561704505185723,0.07927519335608635
17.746651999999997,2.358217877235363,0.07945843220819881
17.749039999999997,2.3634781095120694,0.07954370151809179
17.75142,2.360869708429968,0.0797848004152088
17.753836,2.3624052784675618,0.07991908104833535
17.75622,2.3619387477587384,0.08009928402610916
17.758604,2.3626829218634136,0.08022743760297626
17.761008,2.3692936285804787,0.08024067075677013
17.763392,2.3797687671635175,0.08019017991510144
17.765772,2.391035301679474,0.08014949309495996
17.768168,2.402581375449152,0.08007164989909753
17.770556,2.41305651403219,0.0800269261611731
17.772935999999998,2.4246025878018673,0.07995419947100063
17.775336,2.434705639332569,0.07985172454100778
17.77772,2.44494846049013,0.07973550112134953
17.780116,2.456541756088051,0.07955564500972623
17.782511999999997,2.467483425379913,0.07935220621512236
17.784896,2.48242929616461,0.07906875489923001
17.787276,2.501938446949581,0.07863554889992683
17.789679999999997,2.525312029600525,0.07814257449811475
17.792067999999997,2.5497565474381076,0.07763149617650668
17.794448,2.571826877476936,0.07708923492748723
17.796844,2.588542531582572,0.07669778397918738
17.799228,2.611404257554319,0.07617288620526294
17.801607999999998,2.630261782033232,0.07572544350582008
17.804004,2.653263277631839,0.07518111011176298
17.806392,2.6750540684169466,0.07468882611861256
17.808788,2.6945632192019175,0.07427274948026509
17.811192,2.7062037366280807,0.07399395134690567
17.813575999999998,2.71533029662863,0.07371355575734324
17.815956,2.724037547748598,0.07348334910074357
17.818348,2.727949201442815,0.07331615381225234
17.820736,2.7275771143904777,0.07325705454684872
17.823116,2.724783617711143,0.07328820674403963
17.825519999999997,2.718405228419555,0.07334206259435935
17.827907999999997,2.7109559039413287,0.07342241243279894
17.830288,2.7024356442764637,0.07353026388674273
17.832691999999998,2.6923325927457626,0.07362058009421554
17.835079999999998,2.680739297147841,0.07378490330348365
17.83746,2.6651418000570875,0.07402137577750105
17.839864,2.647542202219916,0.07428960341996661
17.842247999999998,2.6364607633011934,0.07448969414223233
17.844628,2.625658863636191,0.07465975381075728
17.847032,2.6096420576648565,0.07494301821530104
17.84942,2.5966982876265767,0.07516568746206771
17.851796,2.5838942872151573,0.07536408401815703
17.854191999999998,2.5721612219903767,0.07553513300123128
17.856579999999997,2.5599163000863983,0.07566703462884579
17.85896,2.5516755796752535,0.0757311577226661
17.861352,2.5470197518763618,0.07577448920222624
17.86374,2.5406413625847746,0.07582062924751365
17.86612,2.5421316066519934,0.07574496712638584
