Time,Force,Position
14.852548,0.08705803630138415,0.0
14.854932000000002,0.09301711671239155,0.0
14.857316,0.09860411007106146,0.0
14.85972,0.10339970749681328,0.0
14.862104,0.10540180824323013,0.0
14.864484,0.10861461380314573,0.0
14.866888,0.11047694492270238,0.0
14.869276,0.10791576566884468,0.0
14.87166,0.10535458641498702,0.0
14.874056,0.10222381569890347,0.0
14.87644,0.09802210979618141,0.0
14.878824000000002,0.09167853352018228,0.0
14.881215999999998,0.08333285649776632,0.0
14.883604000000002,0.07726881947548762,0.0
14.885988,0.07335716578127098,0.0
14.888384,0.07344971357988804,0.0
14.890772000000002,0.07233155656500635,0.0
14.893152,0.06855967249764991,0.0
14.895548000000002,0.0617042395424531,0.0
14.897936,0.056850907333673144,0.0
14.900332,0.04948361769927864,0.0
14.902732,0.04118516250510582,0.0
14.905116,0.03060506731079575,0.0
14.9075,0.022818468795820612,0.0
14.909896,0.01890681510160397,0.0
14.912284,0.013913713265963799,0.0
14.914664000000002,0.00920015068404405,0.0
14.917064,0.010271085870682579,0.0
14.919448,0.01134202105732111,0.0
14.921831999999998,0.016707209945298757,0.0
14.924228,0.023422873273635354,0.0
14.926616,0.03414273809480566,0.0
14.928996,0.046864703662392815,0.0
14.931392,0.05572223736400647,0.0
14.933776000000002,0.06335855329733639,0.0
14.93616,0.06191553105836038,0.0
14.938556000000002,0.06433694068535786,0.0
14.940944000000002,0.06941207736483009,0.0
14.943328,0.07491703587966797,0.0
14.945723999999998,0.08028222476764561,0.0
14.948112000000002,0.08750974477517989,0.0
14.950508,0.09580819996935272,0.0
14.952904,0.1028959503500268,0.0
14.955292,0.10891276554406235,0.0
14.957672,0.11398790222353455,0.0
14.960068,0.11907355185779181,0.0
14.962456,0.12523013667868757,0.0
14.964836000000002,0.12895479891780084,0.0
14.967232,0.13375039634355268,0.0
14.96962,0.13589226671682975,0.0
14.972004000000002,0.13761482820952614,0.0
14.9744,0.13132898671655518,0.0
14.976788,0.12197010929052882,0.0
14.979172000000002,0.11647566373047595,0.0
14.981568,0.11354239742428077,0.0
14.983956,0.11568426779755785,0.0
14.986336,0.1170347422379168,0.0
14.988732,0.1166626551855793,0.0
14.99112,0.1168024248124395,0.0
14.993504,0.11908406481257679,0.0
14.9959,0.11950337369315743,0.0
14.998288,0.117780812200461,0.0
15.000684,0.11619802033462479,0.0
15.00308,0.11675709884206563,0.0
15.005468,0.11517430697622941,0.0
15.007852,0.11144964473711612,0.0
15.010248,0.10529305991622036,0.0
15.012636,0.0989967054684644,0.0
15.015016,0.09162941583406989,0.0
15.017416,0.08412235657281518,0.0
15.019804,0.07568413175178215,0.0
15.022184,0.07125010842358281,0.0
15.024584,0.06788702028202201,0.0
15.026968,0.06452393214046122,0.0
15.029352,0.059810369558541486,0.0
15.031748,0.05509680697662174,0.0
15.034136,0.049312309208063454,0.0
15.036516,0.0444589769992835,0.0
15.03892,0.03881424885758543,0.0
15.041308,0.031167419969470516,0.0
15.043688,0.023520591081355593,0.0
15.046092000000002,0.016944697379879203,0.0
15.04848,0.01186956070040697,0.0
15.05086,0.005583719207435994,0.0
15.053256,0.005164410326855363,0.0
15.055644,0.005955806259773472,0.0
15.058024,0.008247959214695738,0.0
15.060424,0.008538011423201153,0.0
15.062812,0.008538011423201155,0.0
15.065192,0.008538011423201155,0.0
15.067588,0.008538011423201155,0.0
15.069976,0.008538011423201155,0.0
15.072356,0.008538011423201155,0.0
15.074752,0.00882806363170657,0.0
15.07714,0.00882806363170657,0.0
15.07952,0.00882806363170657,0.0
15.081916,0.00882806363170657,0.0
15.084304,0.00882806363170657,0.0
15.0867,0.00882806363170657,0.0
15.089096,0.00882806363170657,0.0
15.091484,0.00882806363170657,0.0
15.093864,0.00882806363170657,0.0
15.096264,0.008398241796340945,0.0
15.098652,0.00810818958783553,0.0
15.101032,0.0050246406999951525,0.0
15.103428,0.0028722573719330968,0.0
15.10582,0.0005801044170108301,0.0
15.1082,0.00029005220850541504,0.0
15.110596,0.0002900522085054151,0.0
15.11298,0.0002900522085054151,0.0
15.11536,0.0002900522085054151,0.0
15.117764,0.0002900522085054151,0.0
15.120152,0.0002900522085054151,0.0
15.122532,0.0,0.0
15.124936000000002,0.0,0.0
15.12732,0.0,0.0
15.1297,0.0,0.0
15.132104000000002,0.0,0.0
15.134492000000002,0.0,0.0
15.136872,0.0,0.0
15.139268,0.0,0.0
15.141656,0.0,0.0
15.144036,0.0,0.0
15.146440000000002,0.0,0.0
15.148828000000002,0.0,0.0
15.151208,0.0,0.0
15.153612,0.0,0.0
15.155996000000002,0.0,0.0
15.15838,0.0,0.0
15.160784,0.0,0.0
15.163168,0.0,0.0
15.165548,0.0,0.0
15.167944,0.0,0.0
15.170332000000002,0.0,0.0
15.172712,0.0,0.0
15.175116,0.0,0.0
15.177504,0.0,0.0
15.179884,0.0,0.0
15.18228,0.002477248552156386,0.0
15.184668,0.005047044902929829,0.0
15.187048,0.010038250880700752,0.0
15.189444000000002,0.01003825088070075,0.0
15.191832000000002,0.010038250880700752,0.0
15.194212,0.010038250880700754,0.0
15.196608,0.010038250880700754,0.0
15.198996,0.010038250880700754,0.0
15.201376,0.012747816858334406,0.0
15.203772,0.019321814701941546,0.0
15.20616,0.023242085493073945,0.0
15.208556000000002,0.027022586657346123,0.0
15.210952,0.03438798043387139,0.0
15.21334,0.03998359088945706,0.0
15.21572,0.05130596433057287,0.0
15.218115999999998,0.06220902889110805,0.0
15.220504000000002,0.07511419419806008,0.0
15.222884,0.09025377767690623,0.0
15.22528,0.10376334746167301,0.0
15.227668,0.11112684538032902,0.0
15.230048,0.11494215956019012,0.0
15.232444,0.119224004448875,0.0
15.234832,0.12280700120325883,0.0
15.237224,0.13831867173444246,0.0
15.23962,0.15383034226562609,0.0
15.242007999999998,0.17520854540920006,0.0
15.244388,0.1964469789259138,0.0
15.246792,0.22010682206962506,0.0
15.249176,0.2362615018099508,0.0
15.251556,0.2481324408037225,0.0
15.25396,0.26223779796938823,0.0
15.256348,0.2759238462544734,0.0
15.258728,0.2863045411810259,0.0
15.261124,0.295661522749183,0.0
15.263512,0.2991519717049497,0.0
15.265892,0.3035735862204948,0.0
15.268288000000002,0.3055737911090424,0.0
15.270676000000002,0.30547934745255617,0.0
15.273056,0.30715468711700944,0.0
15.275456000000002,0.31362562420721457,0.0
15.27784,0.32289005797675463,0.0
15.28022,0.3317351828657141,0.0
15.282616,0.33257190476900605,0.0
15.285004,0.32698301555246695,0.0
15.287400000000002,0.32204575264198565,0.0
15.289796,0.314035453798449,0.0
15.292184,0.30388328458163527,0.0
15.294564,0.29116993611096387,0.0
15.29696,0.2828328761854636,0.0
15.299348000000002,0.2737044203270453,0.0
15.301728,0.26713714372248465,0.0
15.304124000000002,0.2642019815584203,0.0
15.306512,0.2636410071931102,0.0
15.308896,0.26973796137310857,0.0
15.311292000000002,0.27597468517996715,0.0
15.313680000000002,0.2807683867478497,0.0
15.316076,0.2878437283158695,0.0
15.318472,0.29463953063016896,0.0
15.32086,0.3031578944371648,0.0
15.323239999999998,0.31409766787115817,0.0
15.325644,0.3214525486928984,0.0
15.328028,0.3303902213804749,0.0
15.330407999999998,0.35026956335991394,0.0
15.332808,0.3696370486601553,0.0
15.335192,0.38807336840061835,0.0
15.337576,0.4043678177678044,0.0
15.339972,0.42694810862796134,0.0
15.342356,0.4476660683685616,0.0
15.344740000000002,0.4746698696021329,0.0
15.347136,0.5066090378883162,0.00533252089396363
15.349524,0.538128897293919,0.010594984735607292
15.351904,0.5655047855798278,0.01597941979361232
15.354304,0.5899474075595413,0.0214821070529932
15.356688000000002,0.61159653285992,0.02685905866539964
15.359072,0.6351079892798552,0.03211151350151644
15.361468,0.6622043383120436,0.03724682414202828
15.363855999999998,0.6895802265979524,0.04218052816726914
15.366248,0.7189582156302778,0.04702203527836403
15.368644,0.7460545646624662,0.052004413568312785
15.371032,0.7747337055604908,0.0568967278650567
15.373412000000002,0.8071375086976286,0.06170506694931908
15.375816,0.8338145488492363,0.06678116371730441
15.3782,0.8576980923215091,0.07176346600587455
15.380584,0.884514902099977,0.07657423592121966
15.38298,0.9136133518785823,0.08126670458906006
15.385368,0.94233971460485,0.0858781791884976
15.387747999999998,0.9672016454651442,0.09044944688196413
15.390144,0.994577533751053,0.09510572870627487
15.392532,1.0118031486780175,0.10008798398874663
15.394915999999998,1.0265148061793672,0.099608777575939
15.397308,1.0373620318147434,0.099373275072485
15.399696,1.0520736893160931,0.09888609465042415
15.402092,1.0690669868175804,0.09816044000407775
15.404488,1.0867119106251253,0.09752648153412574
15.406872,1.1032858992460315,0.09702009666003927
15.409256,1.1173459304413234,0.09659214409359745
15.411652,1.1280533864498394,0.09648040329000251
15.41404,1.1367587417119387,0.09650062072925907
15.41642,1.148816672160814,0.09623248282987551
15.418816,1.1582208755572139,0.09605440892369682
15.421204,1.1664143741401154,0.09600091017252621
15.423584000000002,1.184478606828241,0.09542143733120577
15.42598,1.1957451413441977,0.09515991966104573
15.428368,1.2031472439941813,0.09510399007879239
15.430764,1.2076160803379692,0.0952014309619308
15.43316,1.207521636681483,0.09569587681074274
15.435548,1.2059369489577776,0.09640242799050025
15.437928,1.2079843756745687,0.09672823778294735
15.440324,1.214595082391634,0.09664969198223725
15.442712,1.2214381065341764,0.09674014276696637
15.445096,1.2342874329159697,0.09647874399090457
15.447492,1.2435518666855097,0.09634446795699243
15.44988,1.2496034948951342,0.09643789351821457
15.45226,1.253653022358342,0.09663957291542395
15.45466,1.2527671827689373,0.0971151050299863
15.457048,1.255466235791786,0.0974649571171351
15.459428,1.2580255191877745,0.09785546194181008
15.461824,1.2607245722106233,0.09820620543777953
15.464212,1.2574173229942214,0.09891831222833955
15.466596,1.2569035704571545,0.09949472728864982
15.468992,1.2548070260542512,0.10007440137111812
15.47138,1.2467041794120974,0.10095234724731739
15.47376,1.2500548587410039,0.10131993777097933
15.47616,1.2540571643759684,0.10172516128763566
15.478548,1.2576401611303523,0.10224437117796309
15.480928,1.2743066975498758,0.10202403598709263
15.483324,1.2892506724767026,0.10179500181827451
15.485712,1.2988399714703371,0.10196493938164146
15.488108,1.3118743934493642,0.10207539075127046
15.490504,1.3246764980029142,0.10204983522022436
15.492896000000002,1.3304013651305753,0.1023990085718427
15.495276,1.3364983193105735,0.10285177640750619
15.497672,1.3398017768112371,0.10342317913578969
15.50006,1.3424536080058425,0.10396264199831312
15.50244,1.3541847773727538,0.10395678635941594
15.504840000000002,1.3591182485674966,0.10430030513799542
15.507228,1.369266626068572,0.1043010271282698
15.509608,1.3783440683830088,0.10437230221712193
15.512004,1.3915654818171395,0.10415914507259195
15.514392,1.3999912978255182,0.10419020184881787
15.516776,1.4113503801400922,0.10406887746985308
15.51918,1.420707361708249,0.10405074344370766
15.521567999999998,1.4238257236116785,0.10424949386643059
15.523948,1.4282945599554666,0.10430517645437802
15.526344000000002,1.4371869066726692,0.10404196904860329
15.528728,1.432204317791814,0.10448195285536713
15.531112,1.4333678007770696,0.10457962830493239
15.533508,1.4346710533891853,0.1046433455625031
15.535896,1.4330410396951063,0.10484237474770769
15.538276,1.4272670548813329,0.10528485882603061
15.540672,1.4248456452543352,0.10549569197642729
15.54306,1.424705875627475,0.10552962417956405
15.54544,1.4336454441729207,0.10506956360800597
15.547836,1.4445871134647832,0.10450553963753256
15.550224,1.4496622501442555,0.10424038211899833
15.552608,1.4588813579434219,0.10372909139920732
15.555004,1.4643758035034746,0.1033747759248558
15.557388,1.4769474864894168,0.10270175873599759
15.559784,1.4873772991020815,0.10215234069371852
15.56218,1.5039531835808573,0.10131670698160511
15.564568,1.514382996193522,0.10076728893932603
15.566948,1.531890046232076,0.09990137275215236
15.569344,1.5481863914571312,0.09912710975359647
15.571732,1.5634118014955478,0.09842422588214003
15.574112,1.5775662763473262,0.09782080201304508
15.576508,1.598006592692075,0.09686513676503063
15.578896,1.6164448082904075,0.09604315872613065
15.581292,1.6370248942620167,0.09510752377168018
15.583688,1.65616195799465,0.0941433126234474
15.586075999999998,1.6811655543396737,0.09295280198109471
15.58846,1.7101733521775313,0.0916612826383306
15.590856,1.7354564877762755,0.09047702375112161
15.593244,1.7565956522553257,0.08954480920686014
15.595624,1.7765241119208772,0.08869751506284058
15.598020000000002,1.8001772338255417,0.08777328803626099
15.600408000000002,1.822759420543568,0.08691021170883538
15.602788,1.8442706720749555,0.08609289514311566
15.605184,1.8545607150607604,0.0857008191490121
15.607572,1.868994729166259,0.0851565269859041
15.609956,1.8771429017787864,0.08487134562427634
15.612352,1.8925080814440634,0.08431079101125126
15.61474,1.9002841670042534,0.08394935776201222
15.61712,1.907780713310723,0.08363087599159671
15.61952,1.9162084251769713,0.08329490367268849
15.621904,1.9215631011101642,0.08307106545846317
15.624288,1.9264984681627761,0.08292613608030709
15.626684,1.9303629000287494,0.08282662840320819
15.629072,1.9330166270812243,0.0827956393310671
15.631468000000002,1.9360424411860366,0.08284429211450378
15.633864,1.9330619530515984,0.083079786270998
15.636252,1.9217935226777723,0.08361616064489628
15.638636000000002,1.915320689729698,0.08402832491757983
15.641032,1.9077769215949851,0.08448211597042855
15.643415999999998,1.9003729230871325,0.08491267552230358
15.6458,1.8921775286463618,0.08532203572116573
15.648196,1.8850530693922296,0.08568623767598646
15.650583999999998,1.8787200060710156,0.08606009652977667
15.652964,1.8817458201758277,0.08610836667024861
15.655360000000002,1.881419059093864,0.08630318376694487
15.657748000000002,1.8841653339449558,0.08639842042987432
15.660132,1.888773939915604,0.08646092291933895
15.662528000000002,1.895756733685007,0.08654208590380749
15.664916000000002,1.9039502322679085,0.08655795443275847
15.667296,1.9109330260373112,0.08663608557164357
15.669692,1.9219200212995475,0.08660148678608894
15.672084000000002,1.9290425846958104,0.08665401136326836
15.674464,1.9378877095847697,0.08669508106688746
15.676864000000002,1.9478037696603678,0.08669545748586811
15.679252000000002,1.9590703041763249,0.08660940921398516
15.681636,1.976203371304672,0.08636883501764316
15.684028,2.001484611045547,0.08586472190971685
15.686416,2.023972354107087,0.08543332265320436
15.688812,2.046599866795487,0.08497613058342941
15.691208,2.0701585450436655,0.0845054845859911
15.693596,2.0927860577320656,0.08406953785606026
15.695976000000002,2.118067297472941,0.08362855908793222
15.698372,2.1454904075870926,0.08312011692937998
15.70076,2.1666276762082735,0.08282182361771313
15.703144000000002,2.188184253710035,0.08245711176908306
15.70554,2.210811766398435,0.08206795264455538
15.707928,2.2306457824075,0.08174970238063815
15.710312000000002,2.251830272856924,0.08135794050167663
15.712708,2.2739459288661266,0.08095559829091158
15.715096,2.2984829945023266,0.08045258699786437
15.717476,2.3159428227126373,0.0801160054380463
15.719876,2.3395487227890586,0.07961822763370698
15.72226,2.3625029965594226,0.07910419358528424
15.724644,2.384526104770008,0.07860670484836833
15.72704,2.4074803785403716,0.07811031818187349
15.729428,2.428712090818039,0.0776338852104275
15.731808,2.447010536789511,0.07723015054031337
15.734204000000002,2.4627478035071255,0.07693373805354331
15.736592000000002,2.4794162357845178,0.07662762904076613
15.738988,2.49608466806191,0.07632541555410181
15.741384,2.509680064406248,0.07609275655876804
15.743772,2.518619632951694,0.07592026263665172
15.746152,2.5244861655640842,0.07581815967935648
15.748552,2.535427834855947,0.07560681773532986
15.75094,2.54636950414781,0.0753973084130726
15.75332,2.5534467415736986,0.07524994367055632
15.755716,2.5553090726932552,0.07522832708286382
15.758104,2.5570316341859516,0.0752251243643718
15.760484000000002,2.561827231611703,0.07515729300737943
15.762884,2.5675539945972328,0.07508355968759438
15.765268,2.582499865381929,0.07482282289578279
15.767652000000002,2.5973059665397655,0.07459057931381793
15.770048,2.609830427697464,0.07442527555013972
15.772436,2.6224946584820232,0.07424416534354929
15.774816,2.6331567885201657,0.07409986849670619
15.777212,2.6428877529985297,0.07396632335135121
15.7796,2.6514080126633948,0.07387464692069289
15.781996,2.6624894515821174,0.07367999965182918
15.784392,2.674781595314339,0.07344884129104029
15.78678,2.6892156094198376,0.07317556825276043
15.789164,2.7056517242717533,0.07286569620376802
15.79156,2.7239501702432247,0.07253909876496965
15.793948,2.7463925873343906,0.07213563820997601
15.796328,2.768974774052417,0.0717326633988478
15.798728,2.7932795222631395,0.07133534194604427
15.801116,2.8213089327129754,0.070907206530036
15.8035,2.8534823142825054,0.07039344814582058
15.805896,2.8845847606653967,0.06990409847715902
15.808284,2.9098206744358968,0.06950110326652842
15.810668,2.928770746713427,0.06922016228342656
15.813064,2.9414349774979858,0.06906593734521708
15.815452,2.9511659419763494,0.06895096759318689
15.817836,2.9653204168281286,0.06873530509675323
15.820232,2.9831995539190195,0.0684986445363902
15.822624,3.0009389213830513,0.06827578680299617
15.825004,3.0173278144067237,0.06810220600233118
15.827404,3.0337167074303957,0.06792681481506915
15.829792,3.053178636387124,0.06770863417165254
15.832172,3.069427759783936,0.06755591853566342
15.834572,3.082464077620833,0.06746864135761511
15.83696,3.095500395457729,0.06738136417956676
15.839344,3.104672281428652,0.06733236079072395
15.84174,3.1099797355336007,0.06732435002658257
15.844128,3.1092808873993,0.06739619190429613
15.846512,3.1067197081454423,0.06747958950365751
15.848908000000002,3.1033671329586667,0.06755366093304437
15.851296,3.099874788145031,0.06764100266092266
15.85368,3.0975931481448935,0.06769434986825712
15.856076000000002,3.0991759400107304,0.067710959333467
15.858464,3.1043908463170626,0.0676257181781158
15.860848,3.1112357663174746,0.06746393108666456
15.863248,3.118499995198467,0.0672609899077492
15.865636,3.1217600225866255,0.067110691072402
15.868016,3.116360020683059,0.06703652258000026
15.870416,3.113101889152769,0.06692411987740005
15.872804,3.1121253976226173,0.06675928681805696
15.875188,3.109566114226628,0.06657636498126843
15.877580000000002,3.103654255643864,0.06646606365337249
15.879968000000002,3.099884267434377,0.06631754206026587
15.882348,3.0953228832919724,0.06616016178365512
15.884752,3.0896905639629284,0.0660218945525006
15.88714,3.0912752516866333,0.065777217842779
15.88952,3.093651335343257,0.06554063104724255
15.891915999999998,3.099100454932936,0.06525759890502766
15.894304000000002,3.103897948216557,0.06495152681065473
15.896684,3.106972880007482,0.06464282784984314
15.89908,3.109256415865488,0.06432649617531747
15.901464,3.1107485557905767,0.06400290779107129
15.903848,3.1102385949692484,0.06370491166122261
15.906244,3.1131737571333127,0.06341984923863987
15.908632,3.1176917111632134,0.06315576852758173
15.911012,3.1237924570589497,0.0629129477049336
15.913408,3.1328264692608823,0.06264675217184346
15.915796,3.1508000500082596,0.062291675714972045
15.918176,3.1661199037031627,0.061938878466911616
15.920572,3.1817192966517864,0.06156531614963252
15.92296,3.199041251093106,0.06119587812397818
15.925344,3.217713679974785,0.06078551292118533
15.92774,3.237596813669963,0.06035349482996592
15.930124,3.258690652178639,0.05989257271327326
15.932524,3.284068231433869,0.05937169697693521
15.934916,3.304230904382767,0.05892735276787765
15.937304,3.3225312462121086,0.058486351514308255
15.939684,3.3429734584147264,0.058020402414075106
15.94208,3.3680714984162363,0.057548804779071726
15.944468,3.3946125606567223,0.05711056788078313
15.946848,3.4200826877105692,0.05668741149834625
15.949252,3.4454130451375566,0.056280199790797195
15.95164,3.4700917762584864,0.055851280723238236
15.95402,3.4841083773412738,0.05548345243657388
15.956416,3.495331481744726,0.055125409207973305
15.958804,3.5046922550286217,0.05477526735213228
15.961184,3.513121862752739,0.054432249259901935
15.96358,3.5186182041706613,0.05411405901611126
15.965968,3.527839207827697,0.05379192042340993
15.968348,3.5369204418578724,0.05348567804426919
