Time,Force,Position
18.110356,0.12370470837266966,0.0
18.112752,0.11530780669920984,0.0
18.11514,0.10383786909269468,0.0
18.11752,0.093438866672818,0.0
18.119916,0.08411079943957989,0.0
18.122308,0.0718494659001466,0.0
18.124688,0.06037952829363139,0.0
18.127088,0.05091169143353305,0.0
18.129476,0.04237502013321304,0.0
18.131856,0.035840449579309874,0.0
18.134256,0.027164008652129652,0.0
18.136644,0.01955850291158796,0.0
18.139024,0.01195299717104626,0.0
18.14142,0.007420527363559946,0.0
18.143808,0.0038192231158519535,0.0
18.146192,0.0014286236816427017,0.0
18.148596,0.0014286236816427017,0.0
18.15098,0.0014286236816427017,0.0
18.153364,0.0014286236816427017,0.0
18.15576,0.0013196642475707214,0.0
18.158148,0.0,0.0
18.160528,0.0,0.0
18.162932,0.0,0.0
18.16532,0.0,0.0
18.1677,0.0,0.0
18.170096,0.0,0.0
18.172484,0.0,0.0
18.174864,0.0,0.0
18.17726,0.0,0.0
18.179648,0.0,0.0
18.182028,0.0,0.0
18.184424,0.0,0.0
18.186812,0.0,0.0
18.189192,0.0,0.0
18.191588,0.0,0.0
18.193976,0.0,0.0
18.19636,0.0,0.0
18.198756,0.0,0.0
18.201144,0.0,0.0
18.203524,0.0,0.0
18.20592,0.0,0.0
18.208308,0.0,0.0
18.210692,0.0,0.0
18.213088,0.0006208161132696698,0.0
18.215476,0.0013814018533995498,0.0
18.217872,0.0050752538997246004,0.0
18.220268,0.006627235572772591,0.0
18.222656,0.00662723557277259,0.0
18.225036,0.006627235572772591,0.0
18.227432,0.006627235572772592,0.0
18.229816,0.010880166126538485,0.0
18.2322,0.014201931120526055,0.0
18.234596,0.015381825741236563,0.0
18.236984,0.016421950735086868,0.0
18.239364,0.01946417647535402,0.0
18.241768,0.02036453184234411,0.0
18.244156,0.02419815351552937,0.0
18.246536,0.02602967444229778,0.0
18.248932,0.030794461675261363,0.0
18.251316,0.032346443348309356,0.0
18.2537,0.03234644334830936,0.0
18.256096,0.03338656834215966,0.0
18.258484,0.03338656834215967,0.0
18.26088,0.032765752228889986,0.0
18.263284,0.032533434803412725,0.0
18.265668,0.028839582757087666,0.0
18.268052,0.027287601084039676,0.0
18.270448,0.02874703495847061,0.0
18.272836,0.034210670325735236,0.0
18.27522,0.03874314013322155,0.0
18.277616,0.04195594569313714,0.0
18.280004,0.04782247830552748,0.0
18.282388,0.05783298203761173,0.0
18.284784,0.07012512576983326,0.0
18.287172,0.08041516875563794,0.0
18.289556,0.09084498136830282,0.0
18.291952,0.09633942692835568,0.0
18.29434,0.1047671387946037,0.0
18.29672,0.1073283180484614,0.0
18.29912,0.11510440360865151,0.0
18.301508,0.12336153565525113,0.0
18.303888,0.12736573714808486,0.0
18.306284,0.1301284236346316,0.0
18.308672,0.1301284236346316,0.0
18.311052,0.12960015531997898,0.0
18.313456,0.12960015531997898,0.0
18.315844,0.12960015531997898,0.0
18.318228,0.12814072144554806,0.0
18.320624,0.12267708607828343,0.0
18.323012,0.11814461627079711,0.0
18.325392,0.11067888015711563,0.0
18.327796,0.10149058255073773,0.0
18.330184,0.09030018419794295,0.0
18.332564,0.07696791547187111,0.0
18.33496,0.06363564674579927,0.0
18.337348,0.0523054787661443,0.0
18.339728,0.042977411532906185,0.0
18.342124,0.03271817873988973,0.0
18.344512,0.025392212253068456,0.0
18.346896,0.01606414501983033,0.0
18.349292,0.007807012973230736,0.0
18.35168,0.0027626864865467316,0.0
18.35406,0.0,0.0
18.356456,0.0,0.0
18.358844,0.0,0.0
18.361228,0.0,0.0
18.363624,0.0,0.0
18.366012,0.0,0.0
18.368392,0.0,0.0
18.370796,0.0,0.0
18.373184,0.0,0.0
18.375564,0.0,0.0
18.377964,0.0,0.0
18.380352,0.0,0.0
18.382732,0.0,0.0
18.38514,0.0,0.0
18.387524,0.0,0.0
18.389908,0.0,0.0
18.392304,0.0,0.0
18.394688,0.0,0.0
18.397072,0.0,0.0
18.399468,0.0,0.0
18.401856,0.0,0.0
18.404236,0.0,0.0
18.40664,0.0,0.0
18.409028,0.0,0.0
18.411408,0.0,0.0
18.413804,0.0,0.0
18.416196,0.0,0.0
18.418576,0.0,0.0
18.420972,0.0,0.0
18.42336,0.0016917512999082003,0.0
18.42574,0.0035232722266766107,0.0
18.42814,0.009358994646278724,0.0
18.430528,0.017057048185437476,0.0
18.432908,0.02475510172459623,0.0
18.435304,0.03445525601017183,0.0
18.437692,0.0462972806690245,0.0
18.440072,0.05720813976809885,0.0
18.442468,0.06364826666551572,0.0
18.444856,0.07218304210796649,0.0
18.44724,0.08313922717741475,0.0
18.44964,0.08981167150030886,0.0
18.452028,0.0998366910099788,0.0
18.454412,0.10571773939995484,0.0
18.456808,0.11560298928276456,0.0
18.459196,0.12041310248610207,0.0
18.46158,0.12694577718213598,0.0
18.463976,0.13161612075861326,0.0
18.466364,0.1395918176936232,0.0
18.468748,0.14491378757615836,0.0
18.471144,0.14691399246470596,0.0
18.473532,0.146400239927639,0.0
18.475912,0.14056451750803692,0.0
18.478308,0.13286646396887816,0.0
18.480696,0.12913990587189567,0.0
18.48308,0.12415542113317121,0.0
18.485476,0.12149790236495797,0.0
18.487864,0.12349621139563635,0.0
18.490248,0.12978015703073809,0.0
18.492644,0.136810172628384,0.0
18.495032,0.13112873561322777,0.0
18.497416,0.13974154307670997,0.0
18.499812,0.13620197643483076,0.0
18.502204,0.14388361833853458,0.0
18.504584,0.14034405169665543,0.0
18.506984,0.14518497509278117,0.0
18.509368,0.14481099218257443,0.0
18.511752,0.14746282337717995,0.0
18.514156,0.13948712644217,0.0
18.516544,0.13416515655963485,0.0
18.518928,0.13188162070162832,0.0
18.521324,0.13844320973258123,0.0
18.523712,0.14660210640695603,0.0
18.526092,0.15541262938738876,0.0
18.528492,0.15545605949989347,0.0
18.53088,0.15638532920180254,0.0
18.53326,0.15051879658941222,0.0
18.53566,0.13934480987207237,0.0
18.538048,0.1296591713640824,0.0
18.540428,0.11409438032398568,0.0
18.542828,0.11446457151845392,0.0
18.545212,0.09932981342078503,0.0
18.547592,0.10123557465284633,0.0
18.549996,0.09578455920529814,0.0
18.552384,0.10313754416916915,0.0
18.554764,0.10662609726706668,0.0
18.55716,0.11854236223121224,0.0
18.559548,0.12971445309068283,0.0
18.561928,0.15221292021406993,0.0
18.564332,0.17564255289723532,0.0
18.56672,0.1951498078243369,0.0
18.5691,0.20273890192942365,0.0
18.571496,0.20990868715392982,0.0
18.573884,0.21200333569896374,0.0
18.576264,0.2226182439088627,0.0
18.57866,0.23132359917096193,0.0
18.581048,0.24058613708263277,0.0
18.583428,0.25073261872583874,0.0
18.585824,0.2600877044361266,0.0
18.588212,0.2748554119696975,0.0
18.590592,0.28625982025464536,0.0
18.592992,0.3026468174204484,0.0
18.59538,0.3069286623091333,0.0
18.597776,0.31107073757095793,0.0
18.600172,0.3124193161534476,0.0
18.60256,0.316236526191178,0.0
18.604944,0.3138151165641805,0.0
18.60734,0.3094841539893833,0.0
18.609728,0.3023124729070078,0.0
18.612108,0.2987256844368855,0.0
18.614504,0.30151728525835125,0.0
18.616888,0.31161844093118335,0.0
18.619268,0.3233023884698516,0.0
18.621672,0.34364636530024517,0.0
18.62406,0.36026567989152547,0.0
18.626444,0.3765129074304683,0.0
18.62884,0.39266758717079414,0.0
18.631228,0.41245438135161616,0.0
18.633608,0.432800254039879,0.0
18.636012,0.45012031262332963,0.0
18.6384,0.4662296663932815,0.0
18.64078,0.48443366870826726,0.0
18.64318,0.5079451251282026,0.0
18.645564,0.5348091567349136,0.0
18.647948,0.5579485261025113,0.0
18.650344,0.5775483288282299,0.0
18.652732,0.5978923056586235,0.0
18.655112,0.6253135199149062,0.006309225202570261
18.657508,0.6518507904396538,0.012494690620979201
18.659896,0.6733601461131722,0.01857875815623338
18.66228,0.6891427388011606,0.01857875815623338
18.664676,0.7037146266756501,0.01857875815623338
18.667064,0.719916528244219,0.024503976688540763
18.669448,0.7323012197750576,0.03025477526331606
18.671844,0.7417526449997011,0.030254775263316058
18.674232,0.7522277835827398,0.03646345479398386
18.676612,0.7670792107109498,0.042546132330412885
18.679008,0.7789973715329646,0.04862880986684191
18.681396,0.7947799642209529,0.054252463542213816
18.68378,0.8130765143345556,0.05975689078854173
18.686176,0.8329558563139948,0.06514442839968869
18.688564,0.8549770686667109,0.07033580144261965
18.690948,0.8766261939670895,0.07544010841680056
18.693344,0.8964129881479115,0.08046051519229055
18.695732,0.9140579119554566,0.08569847563396894
18.698112,0.9353349502034976,0.09080278260814986
18.700512,0.9611752684518133,0.09566574613805712
18.7029,0.9786350966621242,0.09433610406206719
18.70528,0.9975379471114109,0.09309067771788668
18.70768,1.014531244612898,0.09219226745659184
18.710068,1.034969665099778,0.09737251088485313
18.712464,1.0563392511464362,0.10254761908358688
18.714868,1.0714229957001233,0.10205572886523359
18.717256,1.0870185969330084,0.10169053999392291
18.719636,1.107921652270843,0.1070605436624542
18.722032,1.130454721302757,0.10609618681994196
18.72442,1.1516845377225549,0.10514159978901104
18.7268,1.171843418955714,0.10426494102434504
18.729196,1.1858562283227627,0.10396703755949775
18.731584,1.1961443754506982,0.10387822579220306
18.733968,1.2029873995932407,0.10391205187498456
18.736364,1.202381099257557,0.1043425685802294
18.738752,1.2014952596681525,0.1048512404946053
18.741132,1.1993987152652492,0.10548770128237756
18.743528,1.2039600994076545,0.10574700972006948
18.745916,1.209312879482978,0.10600295393157393
18.7483,1.2074486525055523,0.10676116659231537
18.750696,1.2108918796330759,0.10733850620176845
18.753084,1.2147544156411803,0.10778745316126005
18.755464,1.223180231649559,0.10783361926609306
18.75786,1.2329565220982965,0.10773662803494155
18.760248,1.2392876895616414,0.10771848326368542
18.762628,1.2489714322117622,0.10740638110185331
18.765024,1.2535800381824105,0.10741481922243179
18.767412,1.2579563267275817,0.1072796513178356
18.769796,1.2604702841531963,0.1072332559265791
18.772192,1.2634960982580086,0.1072621288485586
18.77458,1.2722486753483508,0.10703589603320884
18.77696,1.2789991516922767,0.10689814710213708
18.77936,1.2891947510215949,0.10666590243050275
18.781744,1.2997624374032506,0.10653152456576437
18.784144,1.3165687434496345,0.10615310661037747
18.78654,1.3356566894961555,0.10561483885268919
18.788928,1.3506006644229824,0.10530642586728711
18.791308,1.3613081204314985,0.10512715886823167
18.793712,1.3662888134544844,0.1052405399787234
18.7961,1.3754134775971643,0.105051549664215
18.798484,1.3807209317021136,0.10486454756289092
18.800884,1.3814651058067886,0.10508061731557025
18.803272,1.3837920717772996,0.1052809798129182
18.805652,1.3801127355085603,0.10583304440798966
18.808052,1.3815085359192931,0.10607262229591126
18.81044,1.3855580633825006,0.10623165124799716
18.812824,1.4004094905107105,0.10584802071756111
18.81522,1.4149813783852005,0.10556320517871072
18.817608,1.4294134966328298,0.10531529810689635
18.819988,1.4429144493206807,0.10510865315864466
18.822384,1.4468242071570285,0.10529754210445869
18.824772,1.45515747536679,0.10518233440035223
18.827156,1.460837016524077,0.1051358787941537
18.829552,1.469077736935222,0.10485931025857065
18.83194,1.4729421688011952,0.10468958094252535
18.83432,1.472383090293754,0.10481772627666201
18.836716,1.482114054772118,0.10439012869190079
18.839104,1.4923568759296795,0.1040224452908119
18.841488,1.5044620282067978,0.10355864385786188
18.843884,1.5153564756704174,0.10319651750662433
18.846272,1.5268553276118515,0.10304908591708506
18.848656,1.5389132580607265,0.10273445067010756
18.851052,1.5435218640313748,0.102738846757527
18.85344,1.5530658370546355,0.10246523021252943
18.855824,1.557115364517843,0.10260632104143497
18.85822,1.5565090641821588,0.10294555907482794
18.860612,1.5483136697413882,0.10359718738439024
18.862992,1.5371850089944221,0.10438900470472699
18.865388,1.525776808993736,0.10525346040511267
18.867776,1.5147879178736303,0.10600072319482934
18.870156,1.5135299912318885,0.10629187672804946
18.87256,1.5127839212693444,0.10663689105898728
18.874948,1.5121776209336604,0.10695481097365617
18.877328,1.5083585150380605,0.10747025153377032
18.879724,1.509335006568213,0.10777817604811331
18.882112,1.5107308069789458,0.10799312748939234
18.884496,1.5062600747772885,0.10845805816422044
18.886892,1.503931212948908,0.10879195551576676
18.889276,1.5037442214938046,0.1090022241227185
18.89166,1.505978639665699,0.10902904169709512
18.894056,1.5119849419049494,0.10875827938780773
18.896444,1.5226470719430911,0.10833860715681577
18.898824,1.539547821645961,0.10774928211858747
18.90122,1.5496508731766625,0.10742364545671539
18.903608,1.5621753343343612,0.10689396203126249
18.905992,1.58042655847759,0.10614715743055006
18.908388,1.6006798833672358,0.10530607373578572
18.910776,1.6218643738166598,0.1044114931156957
18.913156,1.642257468333166,0.10349639600174435
18.915556,1.6595775269166166,0.10275132540661061
18.917944,1.6711708225145372,0.10227142911104906
18.920324,1.6790394558733444,0.10191867222741773
18.92272,1.6886306507248479,0.10152810744896487
18.925108,1.6982218455763516,0.10112452535896566
18.927492,1.7047400044947998,0.10089388878351459
18.929888,1.7121893289730263,0.10062711129286585
18.932276,1.716286078264477,0.1005769997940028
18.934672,1.718380726809511,0.10062846013229457
18.937068,1.7232688720338796,0.10058638593275958
18.939456,1.7260151468849716,0.10066753410412406
18.941836,1.7266195513627862,0.10086369900612734
18.944232,1.723639063228348,0.10114239713203155
18.94662,1.7184241569220156,0.10138770963305778
18.949,1.723079984720907,0.10125173713327934
18.9514,1.7295981436393553,0.10106748826076208
18.953788,1.7302497699454134,0.10109489080940676
18.956168,1.7318325618112493,0.10109762874733637
18.958564,1.7356969936772226,0.10097580783805415
18.960952,1.7429140007299722,0.10068360707803803
18.963332,1.7489203029692226,0.10045437620198734
18.965728,1.7538556700218346,0.10027079681574005
18.968116,1.7620038426343623,0.09992683263155518
18.970512,1.7704315545006106,0.09953541912457567
18.972908,1.781932302299914,0.09901724119424342
18.975296,1.789568618233244,0.09861082063109061
18.977676,1.797204934166574,0.09820440006793783
18.980072,1.8088454515927375,0.097615348014174
18.98246,1.8214171345786794,0.09700295164286815
18.98484,1.8251890186460358,0.09672358020616677
18.98724,1.828681363459672,0.09649831757138438
18.989628,1.8292404419671127,0.09638598256112725
18.992012,1.8305909164074714,0.096272092754422
18.994408,1.8285888156610544,0.0963612943750111
18.996796,1.8225825134218039,0.09661223370511343
18.999176,1.815645045622775,0.09688110328513647
19.001576,1.811501074503081,0.09707255415237658
19.003964,1.804284067450332,0.09739830074037607
19.006344,1.792923089277889,0.09791318293971468
19.008744,1.7800718670382265,0.09854387407359722
19.011132,1.774158112597593,0.09891013686993506
19.013512,1.773319494836432,0.0990672762972525
19.015908,1.7731325033813286,0.09924834439848003
19.018296,1.7757390086055602,0.09935626711795145
19.02068,1.776343413083375,0.09953294883447
19.023076,1.7841648246139392,0.09943094502678076
19.025464,1.7961302072641971,0.09918043759858393
19.027848,1.8105169995414525,0.09880782730481773
19.030244,1.8250435614455682,0.0984201164956829
19.032632,1.850372023014686,0.09772155547076285
19.035012,1.8730467575313292,0.09703483596186865
19.037408,1.8977235927943894,0.09626532246120705
19.039796,1.9230520543635075,0.09552148631602778
19.04218,1.954386818171876,0.09456520351204169
19.044576,1.9849301860473265,0.09361964395431688
19.046964,2.0110500435493623,0.09286019943834559
19.04936,2.034376404372064,0.09215582374825196
19.051756,2.0546297292617095,0.09152996718179404
19.054144,2.0799581908308276,0.09071530759084918
19.056528,2.1054264220268055,0.0898858342799567
19.058924,2.1262388254238918,0.08920051641381155
19.061312,2.14598029363434,0.08859644369888353
19.063696,2.1658615314716485,0.08799085219448459
19.066092,2.178805301509928,0.08759723890725594
19.06848,2.1905383667347085,0.08726360720263689
19.070864,2.1987790871458537,0.08711129427691186
19.07326,2.2005941964371667,0.08721062029649428
19.075648,2.197054629795288,0.08751488292093668
19.078028,2.188300156847076,0.08801425603503618
19.080428,2.1707458849802785,0.08874433928568562
19.082816,2.158126980166094,0.08933627026791116
19.085196,2.1473704064714654,0.08988256452893882
19.087596,2.140245947217333,0.09022626241891216
19.089984,2.131119387216784,0.09061646353871108
19.092364,2.117848856096541,0.09115432298694147
19.094764,2.1090018353497126,0.09152015592943623
19.097152,2.1064406560958546,0.09166334416377793
19.099536,2.1141695198278017,0.09148194181164526
19.101936,2.1176146428131943,0.09145604370259347
19.104324,2.1222704706120865,0.0913739590939815
19.106708,2.1285090902768142,0.09130055591734354
19.109104,2.130463969194988,0.09137563025177547
19.111492,2.129206042553246,0.09156231785855751
19.113876,2.132092087031198,0.09162034990650562
19.116272,2.1392618722557044,0.09152851764088128
19.118664,2.148713297480348,0.09134278298827878
19.12104,2.162448463451545,0.0910048570385461
19.123436,2.17846526942288,0.09056282527272289
19.12582,2.2015593128201036,0.0899034506711378
19.1282,2.232382219949274,0.08906585217292974
19.130604,2.262273961518667,0.08827040727418027
19.132992,2.289511976035585,0.0875149055793064
19.135372,2.310464149059532,0.08697903061169762
19.137776,2.3316958613371987,0.0864144123720344
19.140164,2.3610757462273937,0.08562303687474845
19.142544,2.3912470270505075,0.08485424857036208
19.144948,2.4179259630599836,0.08426028511072374
19.147332,2.433523460150738,0.08394524763717588
19.149712,2.4543358635478247,0.08349267304801516
19.152116,2.472075231011856,0.08312449516821666
19.154504,2.4891629721698294,0.08273465890092165
19.156884,2.507601187768162,0.0822621199093168
19.15928,2.528600582620352,0.0816686271993656
19.161664,2.549599977472542,0.08108588951480951
19.164044,2.567805875645397,0.08055939248716684
19.16644,2.582287111579139,0.08008684088461888
19.168828,2.595697412326242,0.0796532970126175
19.171212,2.612972144939318,0.0791674973277259
19.173608,2.626382445686421,0.07875163732895729
19.175992,2.632995048261355,0.0784543766550075
19.178376,2.6394678812094297,0.07817751851876602
19.180772,2.6487342108368392,0.07787112782090658
19.18316,2.6600026412106654,0.07752202941135398
19.18554,2.670060366770993,0.07722140328351924
19.187944,2.673692481211489,0.0770883694280073
19.190332,2.6757418037861487,0.07694387095371437
19.192712,2.6751373993083343,0.07681257765835467
19.195116,2.6833327937491056,0.07653587261142061
19.197504,2.6836595548310687,0.07639378442721344
19.199884,2.6849174814728105,0.07624074878315418
19.20228,2.6888291351670275,0.07607592102369011
19.204668,2.6948826592345214,0.07585811597913802
19.207048,2.6991663999810753,0.07575149313784076
19.209444,2.7042415366605477,0.07565353964960707
19.211832,2.7078264292728007,0.07563106213400983
19.214212,2.716858545616864,0.07556819087515224
19.216608,2.723097165281591,0.07553372155315258
19.218996,2.724400417893707,0.07558012821255106
19.221392,2.728636936812018,0.07558271714373285
19.223796,2.7362260309171047,0.07549336075281018
19.226184,2.7431634987161337,0.07538224940142452
19.228564,2.751171901701801,0.07525107976868489
19.23096,2.762253340620524,0.0750669220676068
19.233344,2.7742659450990246,0.07487545868521232
19.235724,2.7907020599509407,0.0745719930922387
19.238124,2.8045769955489983,0.0743601337357871
19.240512,2.8212454278263905,0.07412153384809453
19.242892,2.8320473274913933,0.07396726525750871
19.245288,2.847644824582147,0.07375083723180213
19.247676,2.8651046527924575,0.07351967452951225
19.250056,2.8780484228307373,0.07331732872270866
19.252452,2.8896417184286576,0.07317184867472235
19.25484,2.903935962907296,0.0729187478402367
19.25722,2.914645314773681,0.072683645472941
19.259616,2.9276363066402036,0.07238504226385002
19.262004,2.935040305148057,0.07213757143442207
19.2644,2.9453775699621048,0.07185002069934483
19.266796,2.9566460003359314,0.0715531076097421
19.269184,2.9660520995902004,0.07127605793350797
19.271564,2.9708949188441953,0.071121091813048
19.27396,2.9793226307104432,0.07095426991756586
19.276348,2.981744040337441,0.07087870142051102
19.278732,2.978159147725188,0.07089355149617596
19.281128,2.9737828591800164,0.07090042099943608
19.283516,2.9701979665677634,0.07091372580750605
19.285896,2.9722472891424236,0.0707893275558337
19.288292,2.973365446157305,0.07067224316758093
19.29068,2.9807694446651576,0.07044372803988909
19.29306,2.9884529824267303,0.07018905671750303
19.295456,2.991340922762552,0.06998034661882374
19.297844,2.9978137557106264,0.06976015670932967
19.300228,3.0065682286588373,0.0694861290454951
