Time,Force,Position
17.253836,0.2432615329186647,0.0
17.256224,0.2594181085168597,0.0
17.258604000000002,0.2746435185552764,0.0
17.261,0.2857249574739992,0.0
17.263384,0.2955956915792232,0.0
17.265764,0.298249418631698,0.0
17.268164,0.3049073471770065,0.0
17.270548,0.3126362109089535,0.0
17.272928,0.3152899379614283,0.0
17.275324,0.318735060946821,0.0
17.277712,0.3204576224395175,0.0
17.280108,0.3260446157981874,0.0
17.282504,0.3216211054247731,0.0
17.284892,0.3103998968791902,0.0
17.287272,0.3014603283337444,0.0
17.289676,0.29238099016143854,0.0
17.292064,0.28437258717577113,0.0
17.294444,0.26742461564465797,0.0
17.29684,0.25462061523323876,0.0
17.299228,0.2410252188889014,0.0
17.301608,0.2303630888507592,0.0
17.304004,0.2194214195588966,0.0
17.306388,0.21099370769264858,0.0
17.308772,0.20670996694609445,0.0
17.311176,0.19455759284073315,0.0
17.31356,0.18668895948192596,0.0
17.315944000000002,0.17452607242177962,0.0
17.31834,0.16130276312977979,0.0
17.320728,0.1491398760696335,0.0
17.323108,0.13497488826307033,0.0
17.325508,0.12067013082964696,0.0
17.327896,0.10543420783644525,0.0
17.330276,0.0960648174556339,0.0
17.33268,0.08855775819437918,0.0
17.335068,0.07890882855984743,0.0
17.337448,0.06832873336553734,0.0
17.339844,0.05681747261144893,0.0
17.342232,0.04931041335019421,0.0
17.344612,0.040732418902300976,0.0
17.347016,0.03308559001418606,0.0
17.349404,0.02450759556629282,0.0
17.351784,0.01914240667831517,0.0
17.35418,0.012194425924501298,0.0
17.356568,0.004175509984048897,0.0
17.358948,0.002162896282847051,0.0
17.361344,0.003233831469485581,0.0
17.363732,0.006457149984186167,0.0
17.366108,0.008599020357463226,0.0
17.368504,0.008599020357463228,0.0
17.370892,0.008599020357463228,0.0
17.373288,0.008599020357463228,0.0
17.375684,0.008599020357463228,0.0
17.378072,0.012613734805081924,0.0
17.380452000000002,0.015557514066062091,0.0
17.382856,0.02129479000637722,0.0
17.385244,0.026100900386914025,0.0
17.387624,0.03076724114059062,0.0
17.39002,0.03529381226740701,0.0
17.392408,0.04075154895400172,0.0
17.394788,0.044207184894179574,0.0
17.397192,0.04794236008807785,0.0
17.39958,0.047942360088077854,0.0
17.40196,0.047942360088077854,0.0
17.404356,0.04874426897578096,0.0
17.406744,0.048744268975780956,0.0
17.409124,0.04552095046108038,0.0
17.41152,0.04230814490116478,0.0
17.413908,0.040166274527887715,0.0
17.416288,0.04311005378886788,0.0
17.418684,0.047916164169404696,0.0
17.421072,0.05486414492321857,0.0
17.423468,0.06381422642344929,0.0
17.425864,0.06209166493075284,0.0
17.428252,0.05943793787827809,0.0
17.430632,0.055341188586827336,0.0
17.433032,0.053106770414933224,0.0
17.435416,0.04887025149662225,0.0
17.4378,0.04434368036980586,0.0
17.440196,0.038885943683211154,0.0
17.442584,0.035430307743033296,0.0
17.444964,0.03169513254913502,0.0
17.44736,0.03169513254913502,0.0
17.449748,0.03169513254913502,0.0
17.452128,0.03089322366143191,0.0
17.454528,0.03089322366143191,0.0
17.456916,0.03089322366143191,0.0
17.459296,0.03088271070664692,0.0
17.461692,0.030872197751861927,0.0
17.46408,0.02792841849088176,0.0
17.46646,0.023122308110344957,0.0
17.46886,0.01617432735653108,0.0
17.471248,0.00722424585630036,0.0
17.473644,0.0049320929013780945,0.0
17.47604,0.004642040692872679,0.0
17.478428,0.003001514044008313,0.0
17.480804,0.00042982183536562535,0.0
17.483212,0.0,0.0
17.485596,0.0,0.0
17.487976,0.0,0.0
17.490380000000002,0.006296354447755968,0.0
17.492768,0.011521773708873405,0.0
17.495144,0.021542790395742653,0.0
17.497548,0.032634742269250436,0.0
17.499936,0.04479762932939675,0.0
17.502316,0.0516058404563504,0.0
17.504712,0.05748288602352574,0.0
17.5071,0.06443086677733961,0.0
17.50948,0.06937674678473663,0.0
17.511876,0.07339146123235532,0.0
17.514264,0.07339146123235532,0.0
17.516644,0.07368151344086073,0.0
17.519048,0.07690483195556133,0.0
17.521436,0.08012815047026192,0.0
17.523816,0.08521380010451915,0.0
17.52622,0.08564362193988477,0.0
17.528608,0.08700460933502871,0.0
17.530988,0.09129886303636783,0.0
17.533384,0.09759521748412381,0.0
17.535772,0.10268086711838102,0.0
17.538156,0.09653479525227027,0.0
17.540552,0.09130937599115282,0.0
17.542936,0.08128835930428358,0.0
17.545316,0.07019640743077579,0.0
17.54772,0.058033520370629484,0.0
17.550108,0.057801202945152216,0.0
17.552488,0.060641921452730334,0.0
17.554888000000002,0.06348263996030845,0.0
17.557272,0.06846522884116361,0.0
17.559656,0.07330804809515858,0.0
17.562052,0.08710094884938425,0.0
17.564436,0.10046402776824431,0.0
17.566816,0.10502730776851885,0.0
17.56922,0.1055863862759597,0.0
17.571608,0.10335196810406558,0.0
17.573988,0.10842710478353781,0.0
17.576392,0.11136037108973298,0.0
17.578776,0.10921850071645595,0.0
17.58116,0.10414336403698371,0.0
17.58356,0.10041870179787041,0.0
17.585948,0.10242080254428727,0.0
17.588328,0.10443341624548912,0.0
17.590724,0.10443341624548912,0.0
17.593112,0.10569995998414676,0.0
17.595496,0.10569995998414676,0.0
17.597892,0.09912406628267038,0.0
17.60028,0.09040630220791691,0.0
17.60266,0.08061760294652495,0.0
17.60506,0.07068913405827275,0.0
17.607448,0.061831600356659085,0.0
17.609828,0.048038699602433406,0.0
17.612224,0.03438556847506792,0.0
17.614612,0.026598969960092797,0.0
17.616992,0.02281657293795137,0.0
17.619396000000002,0.02095234596052548,0.0
17.621784,0.017505327117263374,0.0
17.624164,0.016619487527858964,0.0
17.626564,0.01987761905814846,0.0
17.628952,0.02602179506638998,0.0
17.631332,0.033469223686747304,0.0
17.633728,0.03826292525462987,0.0
17.636116,0.044127562009150974,0.0
17.6385,0.05684763171886888,0.0
17.640896,0.06299370358497965,0.0
17.643284,0.07250096773478196,0.0
17.645664,0.08601243337741799,0.0
17.64806,0.09831319420655528,0.0
17.650448,0.11075372466255275,0.0
17.652844,0.12333402474541044,0.0
17.655248,0.1336326848281309,0.0
17.657632,0.14323249677655028,0.0
17.660012000000002,0.15813976282991915,0.0
17.662416,0.17383842481620612,0.0
17.664804,0.18767475568293646,0.0
17.667184,0.20103593874392733,0.0
17.669576,0.2136982736706171,0.0
17.671964,0.22738432195570224,0.0
17.67434,0.23906826949437054,0.0
17.676744,0.2476338551296095,0.0
17.679132,0.25103175628675917,0.0
17.681512,0.2589457156159403,0.0
17.683904,0.26378663901206606,0.0
17.686292,0.2635052039004764,0.0
17.688672,0.2725354243866699,0.0
17.691076,0.27867960039491146,0.0
17.69346,0.2791895612162399,0.0
17.69584,0.28221347946318287,0.0
17.698244,0.2865406503222417,0.0
17.700628000000002,0.28830664192744276,0.0
17.703008,0.2970101013316727,0.0
17.705412,0.3054812433104254,0.0
17.7078,0.30613097375861403,0.0
17.710176,0.3030560419676895,0.0
17.712584,0.30356600278901785,0.0
17.714968,0.3035641069311486,0.0
17.717348,0.30412128958072027,0.0
17.719744,0.29937101812534234,0.0
17.722132,0.29434120741624403,0.0
17.724512,0.2901953404386809,0.0
17.726916,0.2932192586856239,0.0
17.7293,0.29703457286548496,0.0
17.731684,0.3097894555907918,0.0
17.734076,0.320682007196542,0.0
17.736464,0.3271510484288778,0.0
17.73886,0.3352028815270499,0.0
17.741252,0.34330193645346513,0.0
17.74364,0.3495858820885669,0.0
17.74602,0.35349563992491434,0.0
17.748416,0.36355146962737245,0.0
17.7508,0.37016217634443777,0.0
17.75318,0.3789147534347801,0.0
17.755576,0.39111245351051527,0.0
17.757964,0.4086176076912,0.0
17.76036,0.4239808914986077,0.0
17.762756,0.44106673679871167,0.0
17.76514,0.45722141653903753,0.0
17.76752,0.4821758951979488,0.0
17.769916,0.5061992082970816,0.0
17.772304,0.5312934565828533,0.0
17.7747,0.5530823515100921,0.0
17.777092,0.5677014612128248,0.0
17.77948,0.5744519375567504,0.0
17.78186,0.586137780953288,0.0
17.78426,0.598103163603546,0.0
17.786644,0.6111394814404424,0.0
17.789028,0.6284123181956498,0.0
17.791424,0.6485711994288093,0.0054433633007446745
17.793812,0.6723149732742217,0.010750810732468325
17.796192,0.6881901137608272,0.010750810732468325
17.798596,0.7024352405533532,0.010750810732468325
17.80098,0.71519012327866,0.010750810732468325
17.80336,0.729527797869803,0.016704797712900815
17.805764,0.7436331550354688,0.022394190675958985
17.808152,0.757366425148797,0.028096494294920178
17.810532,0.7676545722767325,0.03388623500400939
17.812928,0.7818071512706414,0.03934360910440043
17.815312,0.790884593585078,0.04479284848130453
17.817708,0.8051769422058472,0.04991844285557978
17.820104,0.8214713915730333,0.05490074514414992
17.822492,0.8405593376195543,0.05971151505949503
17.824872,0.8643031114649669,0.06448289663442798
17.827276,0.8886985116164373,0.06938015127037214
17.82966,0.9123025158349896,0.07415718388340665
17.83204,0.9348355848669034,0.07905558847651753
17.834444,0.9512225820327065,0.08430949096032858
17.836832,0.9597409458397025,0.09004487356344353
17.839208,0.9640227907283875,0.09047186150816511
17.841616,0.9637885774450408,0.0911811108937032
17.844,0.9714229975205015,0.09691649349681816
17.84638,0.9804078920363213,0.10258825144781267
17.848784,0.9896723258058612,0.10826000939880717
17.851172000000002,0.9925583702838133,0.10830449043503584
17.853552,0.9940939403214063,0.1085959670685515
17.855956,0.9982832374114742,0.10873445124315476
17.858344,1.0048467223002964,0.10882369710817806
17.860724,1.0054039049498678,0.10949548295727146
17.86312,0.9999547853601888,0.11085057916456113
17.865508,0.990361694650816,0.10572498479028587
17.867888,0.9789062728218864,0.1075124233485008
17.870284,0.963306879873263,0.10270165343315568
17.872672,0.9467763213648612,0.09793027185822273
17.875052,0.9288027406174836,0.09303301722227857
17.877456,0.9085475198699685,0.08825598460924407
17.879844,0.8927158094958677,0.09019117361920247
17.882224,0.8846601846819572,0.09120043436042573
17.88462,0.8861032069209333,0.0912270943165028
17.887008,0.8907118128915816,0.09119362850515123
17.889384,0.8986257722207628,0.09103626052757884
17.89178,0.9060278748707461,0.09084831244277153
17.894168,0.9124988119609513,0.09072398901008467
17.896548,0.9236255768500481,0.09035515854454297
17.898944,0.944203766963788,0.08941205285905622
17.901332,0.9629196259579715,0.08856237157232084
17.903712,0.981635484952155,0.08777605525615712
17.906116,1.0004911135731986,0.08695067030729149
17.908504,1.020557447007741,0.08591246018188775
17.910884,1.047980557121893,0.08405488148559688
17.91328,1.0744725016762666,0.08907258722565255
17.915668,1.0950979136182497,0.08759350182974297
17.918048,1.114931929627315,0.09301400392741345
17.920444,1.1322047663825225,0.09874534505118965
17.922832,1.1539936613097612,0.10436413798690236
17.925224,1.1780641962371374,0.10984691829677307
17.92762,1.1987821559777379,0.10853583481655549
17.930008,1.2191733546363746,0.10776897999928675
17.932388,1.239517331466768,0.10740289687647858
17.934792,1.2597687604985446,0.10685313700715889
17.93718,1.274852505052232,0.10644110155146684
17.93956,1.283510638486088,0.10658994881703021
17.941964,1.2928203982260018,0.10676879358634049
17.944348,1.2948206031145495,0.10730168794632734
17.946732,1.2884403179650923,0.10824443203887396
17.949128,1.2820600328156349,0.10921287786587117
17.951516,1.274469042852679,0.11028655984513552
17.953896,1.2660866569568048,0.11136111167655371
17.956292,1.2586354366207089,0.11239831530913807
17.95868,1.2489025762844757,0.11362347434232103
17.96106,1.2419632126275777,0.11470382222939336
17.963456,1.2467569141954604,0.11507570721658587
17.965844,1.2532731772560393,0.11539253564391072
17.968224,1.2677052955036687,0.11500939421313189
17.97062,1.2785525211390452,0.1147773394247865
17.973008,1.2823225093485324,0.11500301330142912
17.975388,1.2850215623713812,0.1153135146886662
17.977784,1.2809701390503043,0.11581745382398283
17.980172,1.2690973041986635,0.11660971343955212
17.982564,1.2552223686006052,0.11752756249400534
17.984968,1.2498676926674128,0.1179569186110484
17.987356,1.2494483837868322,0.11807516107800775
17.989736,1.2453044126671382,0.11840459008018199
17.99214,1.2453969604657553,0.11859705971276363
17.994524,1.2490744008766255,0.11861405417156025
17.996904,1.2576872083401076,0.11828938062264581
17.9993,1.2625753535644766,0.11816346549000917
18.001688,1.269325829908402,0.117935085856383
18.004068,1.2750053710656888,0.11779662411563062
18.006468,1.2797537466631974,0.11770735718774443
18.008856,1.2818483952082316,0.11774690573377379
18.011236,1.2751432448346798,0.1183796783601475
18.013632,1.2699283385283473,0.11879480304502436
18.016016,1.2590792170351017,0.11968277708868692
18.018412,1.249952657034553,0.12051622688272418
18.020808,1.2519075359527267,0.1206011995384581
18.023196,1.2581461556174545,0.12035775402511188
18.025576,1.2716943301335486,0.11978848801435733
18.027968,1.2893392539410935,0.11909192581512502
18.030356,1.3074960344278361,0.11844447402938584
18.032736,1.3217883830486052,0.11808669917901683
18.035132,1.3312851342436227,0.11797829510481428
18.03752,1.345857022118112,0.1175132266339485
18.039916,1.3560526214474307,0.11719900066404224
18.042312,1.3642461200303322,0.11701200875295995
18.044696,1.3673644819337614,0.11718315477452149
18.047076,1.378491246822858,0.11683816166968239
18.049484,1.3878954502192586,0.11656226822979333
18.051868,1.400372689548714,0.11608591343042249
18.054248,1.4157831951843647,0.1154429534573551
18.056652,1.4347785934322685,0.11467101585360218
18.05904,1.4547051572399508,0.11380635084737026
18.06142,1.4742124121670523,0.11308015546896219
18.063824,1.4939992063478742,0.1122702415637664
18.066208,1.514856935715335,0.11140837766413766
18.068592,1.5284976580300462,0.11106705965506646
18.070988,1.5390653444117022,0.11092960249149988
18.073372,1.5469793037408832,0.11088660049766241
18.075752,1.5555921112043654,0.11069125627383757
18.078152,1.5656951627350668,0.11034098148104629
18.080536,1.575937983892628,0.10997085506085175
18.082916,1.5923268769163004,0.10927326622050305
18.08532,1.609786705126611,0.10856025628088771
18.087708,1.6297604907625365,0.10777565637582975
18.090088,1.6541577867718762,0.10672755885112661
18.092484,1.6808367227813534,0.10551385675924875
18.094868,1.7025802917382182,0.10458901605766434
18.097252,1.7260464221877796,0.10365334993686298
18.099656,1.7503039485702594,0.10276499230312633
18.10204,1.7757721797662376,0.10184542131587476
18.10442,1.795653417603546,0.10108148944373549
18.106816,1.8193990873068275,0.10019344142976977
18.109204,1.8431447570101094,0.09931308674173442
18.111584,1.8679613619000295,0.09839173724498373
18.11398,1.8869114341775592,0.09766115326996905
18.116368,1.9070722112685878,0.09683678450355418
18.118764,1.9249513483594793,0.09612496457861193
18.121168,1.9377553487708985,0.09561802432733993
18.123552,1.9502798099285972,0.09517881846262279
18.125932,1.9605226310861588,0.09487763586340751
18.128332,1.9676924163106648,0.09471048821304205
18.130716,1.972720331161894,0.09465809105586186
18.1331,1.9745354404532078,0.09476205400042528
18.135496,1.9786321897446584,0.09473926680994363
18.137884,1.9755119319833598,0.09501901171486393
18.140264,1.9711809694085622,0.09537257082635583
18.14266,1.9649876757142086,0.09578155136645038
18.145048,1.954790180527021,0.09634771366524236
18.147428,1.942870123847137,0.09691993729344867
18.149832,1.9268060960475595,0.09765419582170846
18.15222,1.9186107016067886,0.09811154736836537
18.1546,1.9066906449269045,0.09865491095321813
18.156996,1.8962608323142398,0.09906513998888826
18.159384,1.886622415634493,0.09946690806675024
18.161764,1.8862031067539125,0.09953649966860448
18.16416,1.8848526323135533,0.09962737110579577
18.166548,1.8889966034332473,0.09947482785669035
18.168928,1.9020801430983867,0.09904458447778267
18.171328,1.912230416457331,0.09869591488474502
18.173712,1.9231720857491934,0.09834221739554776
18.176096,1.936907251720391,0.09791614465219356
18.178492,1.9498510217586702,0.09749370206533092
18.18088,1.9629345614238096,0.09704580083369273
18.18326,1.979091137022005,0.09652194677697949
18.185656,2.003116345979007,0.09576152577175857
18.188044,2.0304941301227855,0.09487252326011988
18.19044,2.061456806878817,0.0939194019845685
18.192844,2.0947011236349846,0.09283439602829253
18.195228,2.1247326348312376,0.09187263947245441
18.197608,2.1536932108408524,0.09092220134941201
18.200004,2.1757163190514373,0.09021794768738857
18.202392,2.1998812976353,0.08943131940472336
18.204772,2.2236269673385816,0.08874456737168417
18.207176,2.245510305922307,0.08810727110516847
18.20956,2.2631099037594775,0.08766469613257132
18.21194,2.2836427679028444,0.08715328518357764
18.21434,2.300823056859435,0.08679172059881357
18.216724,2.311065878016996,0.08661503708746353
18.219108,2.325452670294251,0.08631380047128108
18.221504,2.344262972944921,0.08585985497797202
18.223888,2.360559318169976,0.08540991267611038
18.226284,2.3776470593279493,0.0849690353101831
18.22868,2.3956659660457014,0.08451557626035602
18.231068,2.406607635337563,0.08425683052548995
18.233448,2.4156869735098696,0.08403772772146754
18.235844,2.4226244413088986,0.08389060076727838
18.238232,2.4299812179885083,0.08369289277986433
18.240612,2.4371982250412576,0.08351407796973387
18.243008,2.445765706534366,0.083263058542387
18.245396,2.458616928774028,0.08288596221033488
18.247776,2.4736100213869676,0.08244062550088666
18.250172,2.4872526395595482,0.08206813226050103
18.252556,2.497170595493015,0.08174781279096191
18.254952,2.504295054747147,0.08146206230789231
18.257352,2.5114195140012794,0.08117924432559032
18.259736,2.517473038068773,0.08093246073301533
18.26212,2.5218040006435705,0.08068991132164119
18.264524,2.5312100998978395,0.08032965132151382
18.266908,2.5374033935921934,0.08006510206447444
18.269292,2.5403838817266324,0.07989811795861884
18.271688,2.547089032100184,0.07968471528872637
18.274076,2.552863016913957,0.0794840839274203
18.276456,2.5609186417278678,0.07921413709895402
18.27886,2.5679033313551396,0.0789649674419693
18.281248,2.571023589116438,0.07878103958201042
18.283628,2.57214174613132,0.07863844213152282
18.286024,2.5680449968398693,0.07862518247808047
18.288408,2.565670809041115,0.07860656539706266
18.290788,2.566090117921696,0.07855357682237674
18.293192,2.5665094268022766,0.07850164368034213
18.29558,2.5686512971755535,0.07844626552988533
18.29796,2.570932937175691,0.07837353914583298
18.300356,2.5749371386685245,0.07829560063459344
18.302744,2.5855992687066665,0.07812620663674594
18.305124,2.5945388372521125,0.07796167817219797
18.30752,2.6014763050511416,0.07783516107205793
18.309908,2.615211471022339,0.07760508061130203
18.312288,2.6229403347542863,0.07748899864354462
18.314692,2.6336024647924283,0.07732522840556492
18.317076,2.6422624940841537,0.07719839718297486
18.319456,2.6507827537490183,0.07709194805126666
18.321852,2.6602341789736617,0.07697625088972104
18.32424,2.663399762705334,0.07700336371344717
18.326636,2.6739221231166157,0.07686409405137301
18.329032,2.6883089153938715,0.07667039380342622
18.331416,2.703347333977185,0.07649697242883739
18.3338,2.7237404284936906,0.07619015850878053
18.336192,2.742690500771221,0.07585810340876654
18.33858,2.757636371555917,0.07559818042627948
18.34096,2.7692296671538377,0.07543443023270739
18.343356,2.776027365326006,0.07533386571294802
18.345744,2.7838959986848137,0.0752083584650915
18.34814,2.7919044016704806,0.0750658427739475
18.350536,2.7960483727901755,0.07498021358294196
18.352924,2.799912804656149,0.0749263545360079
18.355304,2.8060588765222594,0.07480516767453177
18.3577,2.807409350962618,0.07474846564296195
18.360088,2.8144865883885077,0.07462221058453973
18.362468,2.8229143002547556,0.07444502888130781
18.364864,2.8317613210015837,0.0742194602022393
18.367252,2.838885780255716,0.07399762648243115
18.369632,2.8462897787635693,0.07374766317623431
18.372028,2.858768913950894,0.07340793154972243
18.374416,2.864962207645248,0.07319881464504575
18.376812,2.869153400593185,0.07302273260780272
18.379208,2.8717618016752855,0.07282990696994246
18.381596,2.8730197283170273,0.07269313472421371
18.383976,2.8760002164514655,0.07255782719208002
18.386372,2.8831246757055977,0.07234793326941641
18.38876,2.892530774959867,0.07207737436008403
18.39114,2.90580130608011,0.07175805060319806
18.393536,2.917861132386854,0.0714780498237365
18.39592,2.9309918938802375,0.07117737380662768
18.398304,2.941329158694285,0.07089581647415368
