Time,Force,Position
19.164868,0.047288714677822405,0.0
19.167256,0.05174768084331978,0.0
19.169636,0.05806897812837379,0.0
19.172032,0.06466981466714823,0.0
19.17442,0.07019971601928413,0.0
19.176804,0.0786628836776152,0.0
19.1792,0.08419278502975112,0.0
19.181588,0.08972268638188703,0.0
19.183968,0.09497304848030252,0.0
19.186364,0.09711491885357958,0.0
19.188752,0.09200432638202428,0.0
19.191136,0.0881398945160508,0.0
19.193532,0.08441523227693751,0.0
19.19592,0.07775730373162906,0.0
19.1983,0.07296170630587726,0.0
19.200696,0.07002843999968208,0.0
19.203084,0.07254239742529661,0.0
19.20548,0.0802712611572436,0.0
19.207876,0.08459045769588076,0.0
19.210264,0.09012035904801667,0.0
19.212644,0.09254176867501415,0.0
19.215044,0.08867733680904066,0.0
19.217432,0.08235603952398665,0.0
19.219812,0.07575520298521221,0.0
19.222216,0.0702253016330763,0.0
19.224604,0.06176213397474524,0.0
19.226984,0.05668699729527299,0.0
19.22938,0.05115709594313708,0.0
19.231772,0.0459067338447216,0.0
19.234152,0.04251870286586276,0.0
19.236548,0.04251870286586276,0.0
19.238936,0.03913067188700392,0.0
19.24132,0.03574264090814507,0.0
19.243716,0.03435671067570308,0.0
19.2461,0.03203961488348277,0.0
19.248484,0.029722519091262462,0.0
19.25088,0.023680761059928866,0.0
19.253268,0.015636902282178417,0.0
19.255652,0.011317705743541254,0.0
19.258048,0.005787804391405349,0.0
19.260436,0.0010492989721875537,0.0
19.262816,0.0004547646726636718,0.0
19.265212,0.0004547646726636718,0.0
19.2676,0.0004547646726636718,0.0
19.269984,0.0004547646726636718,0.0
19.27238,0.0004547646726636718,0.0
19.274768,0.0,0.0
19.277164,0.0,0.0
19.27956,0.0,0.0
19.281948,0.0,0.0
19.284328,0.0012461606055817823,0.0
19.286724,0.0024923212111635645,0.0
19.289116,0.004809417003383878,0.0
19.291496,0.00698674316874398,0.0
19.2939,0.007953364520605341,0.0
19.296288,0.009059755499326912,0.0
19.298668,0.009059755499326912,0.0
19.301064,0.009059755499326912,0.0
19.303452,0.009059755499326912,0.0
19.305836,0.009059755499326912,0.0
19.308232,0.009059755499326912,0.0
19.31062,0.009059755499326912,0.0
19.313,0.009059755499326912,0.0
19.3154,0.009059755499326912,0.0
19.317788,0.009059755499326912,0.0
19.320168,0.009059755499326912,0.0
19.322564,0.009059755499326912,0.0
19.324952,0.009059755499326912,0.0
19.327336,0.009059755499326912,0.0
19.329732,0.009059755499326914,0.0
19.33212,0.007896272514071323,0.0
19.3345,0.006650111908489542,0.0
19.3369,0.004333016116269228,0.0
19.339288,0.002155689950909125,0.0
19.341668,0.0011890685990477638,0.0
19.344068,8.267762032619175e-05,0.0
19.346456,0.005240491920124617,0.0
19.348836,0.010398306219923041,0.0
19.351236,0.015556120519721467,0.0
19.353624,0.020853704446380104,0.0
19.356004,0.027222223559677267,0.0
19.358404,0.032659577113196114,0.0
19.360792,0.03795716103985475,0.0
19.363172,0.041112874593236315,0.0
19.365572,0.04519975370639622,0.0
19.36796,0.052219899125751285,0.0
19.370344,0.057237943798689496,0.0
19.37274,0.05918295253857232,0.0
19.375132,0.06219889646509369,0.0
19.377512,0.06828787632467044,0.0
19.379912,0.07122114263086562,0.0
19.3823,0.07731012249044235,0.0
19.384684,0.08554097272329617,0.0
19.38708,0.09363205332928975,0.0
19.389468,0.10172313393528337,0.0
19.391848,0.10874327935463843,0.0
19.394244,0.10967444491441676,0.0
19.396632,0.11353887678039026,0.0
19.399012,0.1163323734597252,0.0
19.401408,0.12084843163175663,0.0
19.403796,0.12229145387073263,0.0
19.40618,0.1225237712962099,0.0
19.408576,0.12517749834868463,0.0
19.410964,0.12997309577443644,0.0
19.413348,0.13369775801354972,0.0
19.415744,0.13355798838668953,0.0
19.418132,0.137422420252663,0.0
19.420516,0.14515128398460997,0.0
19.422912,0.14845663734314263,0.0
19.4253,0.1486889547686199,0.0
19.427684,0.15385663924670917,0.0
19.43008,0.1530180214855479,0.0
19.432468,0.14789566297783252,0.0
19.434848,0.14291307409697734,0.0
19.437252,0.1357886148428451,0.0
19.439636,0.12876846942349007,0.0
19.44202,0.12267948956391332,0.0
19.444416,0.11365724339814139,0.0
19.446804,0.10570593241900801,0.0
19.449184,0.095892290320318,0.0
19.45158,0.08808074896804484,0.0
19.453968,0.08416909527382817,0.0
19.456364,0.07621778429469478,0.0
19.45876,0.0682664733155614,0.0
19.461148,0.06045493196328824,0.0
19.463528,0.05357455617079338,0.0
19.465924,0.044692079631881675,0.0
19.468312,0.03501820716005185,0.0
19.470692,0.028696909874997834,0.0
19.473088,0.02237561258994382,0.0
19.475476,0.014191984185333165,0.0
19.477856,0.00894162208691768,0.0
19.480252,0.0058331303617792565,0.0
19.48264,0.0035987121898851354,0.0
19.485036,0.0026320908380237738,0.0
19.487432,0.006718969951183668,0.0
19.48982,0.006718969951183668,0.0
19.4922,0.006718969951183668,0.0
19.494596,0.006718969951183668,0.0
19.496984,0.006718969951183668,0.0
19.499368,0.006718969951183668,0.0
19.501764,0.004960952666404197,0.0
19.504152,0.007557587712344931,0.0
19.506536,0.010014453131425453,0.0
19.508932,0.014473419296922828,0.0
19.51132,0.017861450275781673,0.0
19.513696,0.01910761088136345,0.0
19.5161,0.019143066673446493,0.0
19.518488,0.019143066673446497,0.0
19.520868,0.019143066673446497,0.0
19.523272,0.019143066673446497,0.0
19.52566,0.019143066673446497,0.0
19.52804,0.019143066673446497,0.0
19.530444,0.018268993120202193,0.0
19.532832,0.018268993120202193,0.0
19.535212,0.014182114007042296,0.0
19.537612,0.014182114007042296,0.0
19.539996,0.015008965732043448,0.0
19.54238,0.019048623016960194,0.0
19.544776,0.02122594918232029,0.0
19.547164,0.02122594918232029,0.0
19.549544,0.02122594918232029,0.0
19.551944,0.01862931413637956,0.0
19.554332,0.01617244871729904,0.0
19.556712,0.011713482551801664,0.0
19.559108,0.00832545157294282,0.0
19.5615,0.007079290967361038,0.0
19.56388,0.007043835175277997,0.0
19.566276,0.007043835175277997,0.0
19.568664,0.007043835175277997,0.0
19.571048,0.007043835175277997,0.0
19.573444,0.007043835175277997,0.0
19.575832,0.007043835175277997,0.0
19.578216,0.007043835175277998,0.0
19.580612,0.007043835175277998,0.0
19.583,0.007043835175277998,0.0
19.585384,0.007043835175277998,0.0
19.58778,0.006216983450276847,0.0
19.590172,0.0021773261653601026,0.0
19.592552,0.0,0.0
19.594948,0.0,0.0
19.597332,0.0,0.0
19.599712,0.0,0.0
19.602116,0.0,0.0
19.604504,0.0,0.0
19.606884,0.0008268517250011509,0.0
19.609284,0.0028644082635010427,0.0
19.611672,0.005041734428861145,0.0
19.614052,0.008150226153999568,0.0
19.616456,0.011258717879137991,0.0
19.61884,0.015717684044635364,0.0
19.621224,0.018174549463715887,0.0
19.62362,0.024775386002490324,0.0
19.626008,0.032447157727903284,0.0
19.628392,0.03639426721420297,0.0
19.630788,0.04020160707364245,0.0
19.633176,0.04610359547811583,0.0
19.635556,0.057732346868119344,0.0
19.637952,0.0664278319519277,0.0
19.64034,0.07698564815529267,0.0
19.64272,0.08689183805259976,0.0
19.645116,0.09358522238999127,0.0
19.647504,0.10069791560796337,0.0
19.6499,0.10953317031863195,0.0
19.652296,0.1182286554024403,0.0
19.654684,0.12609728876124748,0.0
19.657064,0.1316842821199174,0.0
19.659464,0.13806267141150544,0.0
19.661852,0.14057662883712,0.0
19.664232,0.1410884855163177,0.0
19.666628,0.13861985406107707,0.0
19.669016,0.1395963455912293,0.0
19.6714,0.13479885230760824,0.0
19.673792,0.12712708058219527,0.0
19.67618,0.12391237916441043,0.0
19.67856,0.12512118812003992,0.0
19.68096,0.12186116073188116,0.0
19.683344,0.11023240934187765,0.0
19.685724,0.10153692425806932,0.0
19.68812,0.09097910805470431,0.0
19.690508,0.08107291815739723,0.0
19.692904,0.07437953382000574,0.0
19.6953,0.06726684060203361,0.0
19.697688,0.05843158589136506,0.0
19.700072,0.04973610080755671,0.0
19.702468,0.04104061572374837,0.0
19.704852,0.03341606582657855,0.0
19.707236,0.024860350369630416,0.0
19.709632,0.019237901218877453,0.0
19.712016,0.015617552814541337,0.0
19.7144,0.013627218104284597,0.0
19.716796,0.010193861155051845,0.0
19.719184,0.008390517899898465,0.0
19.721564,0.008390517899898465,0.0
19.723964,0.0076581098313836145,0.0
19.726352,0.002641961016314642,0.0
19.728748,0.0,0.0
19.731144,0.0,0.0
19.733532,0.0022207562778647685,0.0
19.735916,0.006955469981344078,0.0
19.738312,0.01806857297641142,0.0
19.740704,0.030904237464175192,0.0
19.743084,0.04667316825813414,0.0
19.745484,0.06165070311917497,0.0
19.747872,0.0766282379802158,0.0
19.750252,0.09747230545364696,0.0
19.752652,0.12045824330035522,0.0
19.75504,0.1435839507739237,0.0
19.75742,0.16363662231443676,0.0
19.75982,0.18354952422808962,0.0
19.762208,0.20411405244780037,0.0
19.764588,0.22533020697356904,0.0
19.766984,0.24999148448473055,0.0
19.769376,0.27022925162247774,0.0
19.771756,0.28990794025278405,0.0
19.774156,0.30809638481587126,0.0
19.77654,0.3281471604985151,0.0
19.778924,0.35020003692757584,0.0
19.78132,0.37003215707877174,0.0
19.783708,0.38534821905793626,0.0
19.786088,0.39428589174551276,0.0
19.788488,0.40150100294039287,0.0
19.790876,0.4037807470826609,0.0
19.79326,0.406851887157847,0.0
19.795656,0.4095037183524525,0.0
19.798044,0.40694064324072554,0.0
19.800424,0.40381848962155775,0.0
19.80282,0.4013479623084479,0.0
19.805208,0.40502350686144883,0.0
19.807592,0.4093506777205076,0.0
19.809988,0.4187529852590386,0.0
19.812376,0.42643273130487314,0.0
19.81476,0.42987595843239673,0.0
19.817156,0.44216620630674897,0.0
19.819544,0.4582283382484577,0.0
19.821928,0.47564094463052536,0.0
19.824324,0.49305355101259307,0.0
19.826712,0.5075328910884656,0.0
19.829096,0.5197305911642007,0.0
19.831492,0.5364443494119674,0.0
19.83388,0.5558118347122087,0.0
19.83626,0.5769018815051464,0.0055043149439032305
19.838656,0.5997144897907807,0.00550431494390323
19.84104,0.6210368540091957,0.00550431494390323
19.843424,0.6435699230411096,0.0055043149439032305
19.84582,0.6666620705804642,0.011238193309064635
19.848208,0.6853779295746478,0.011238193309064635
19.8506,0.7033023926359131,0.011238193309064635
19.852996,0.7178742805104027,0.011238193309064635
19.855384,0.7328654772654729,0.011238193309064635
19.857764,0.7393364143556781,0.011238193309064635
19.860164,0.7479492218191601,0.011238193309064635
19.862548,0.7573534252155605,0.011238193309064635
19.864932,0.7628459749177441,0.011238193309064635
19.867328,0.7640547838733736,0.011238193309064635
19.869716,0.76726569357542,0.011238193309064635
19.872096,0.7674035673444107,0.011238193309064637
19.874492,0.7700553985390163,0.011238193309064637
19.87688,0.7747093304800386,0.011238193309064637
19.879276,0.7771288442491668,0.011238193309064637
19.881672,0.7739613646596251,0.011238193309064639
19.88406,0.7707938850700834,0.005733878365161407
19.88644,0.7709789806673175,0.011942462116759416
19.888836,0.7760068955185467,0.017679173938311334
19.891224,0.7781015440635807,0.02368184685994977
19.893608,0.7774952437278967,0.017947968494788365
19.896004,0.7844780374972995,0.023823718594666657
19.898392,0.7902501264532035,0.02988656911770301
19.900772,0.792157783543134,0.029886569117703005
19.903176,0.7928547358195659,0.029886569117703005
19.905564,0.7937840055214749,0.02988656911770301
19.907944,0.7942939663428034,0.02988656911770301
19.91034,0.7983888197763849,0.036830159981377876
19.912732,0.8027632124636868,0.04373710868655235
19.915112,0.8057871307106298,0.04373710868655235
19.917508,0.8058777826513775,0.04373710868655235
19.919892,0.8071791394056241,0.04373710868655235
19.922276,0.8031730420549213,0.04373710868655235
19.924672,0.8043818510105509,0.04373710868655235
19.927056,0.8048918118318793,0.04373710868655235
19.92944,0.8080554997056825,0.04373710868655235
19.931836,0.808705230153871,0.04373710868655235
19.934224,0.804000284668867,0.03752852493495435
19.93662,0.7963148510494248,0.03179181311340243
19.939016,0.7957066548558714,0.03336574691777522
19.941404,0.7968682419832579,0.04081033415422872
19.943784,0.7920235268713935,0.034934584054350425
19.94618,0.7910432436255028,0.03628979119406725
19.948572,0.7962090322457228,0.04344129618509637
19.950952,0.8037962304929405,0.050292497737621844
19.953348,0.8170176439270711,0.05679238486479498
19.955736,0.8315895318015607,0.06309725274107537
19.95812,0.8428560663175175,0.06236055624967095
19.960516,0.8531914352736961,0.06170935882204947
19.9629,0.8696728760959855,0.0677105952261538
19.965284,0.886154316918275,0.07381840849750457
19.96768,0.9014250529270655,0.08008458723968541
19.970068,0.9230741782274442,0.08620609765276503
19.972452,0.9376460661019337,0.09254819659781367
19.974848,0.952777032483864,0.0988429605817854
19.977236,0.9672563725597365,0.10520505114560766
19.979616,0.9833185045014454,0.11154715009065631
19.982012,1.0025934420030695,0.11782321519551503
19.9844,1.0196339613327998,0.12423363575068083
19.986784,1.0308079480501398,0.1231381799468158
19.98918,1.039420755513622,0.12248039121032403
19.991572,1.0481733326039644,0.1294035128200725
19.993952,1.0534807867089138,0.12894015602149883
19.996348,1.0585087015601427,0.12862817207666566
19.998736,1.0621861419710128,0.12858775548672707
20.001132,1.0619991505159097,0.12892738940574988
20.003528,1.0598100583143892,0.12946204257566546
20.005916,1.0567823483517078,0.13030851635982876
20.008296,1.0531030120829685,0.13113957435883294
20.010692,1.045047387269058,0.13220381553104588
20.01308,1.0391336328284246,0.1330191238694436
20.01546,1.0405766550674005,0.13302901023212146
20.01786,1.04029711581368,0.1331197058358461
20.020248,1.0412282813734584,0.13305367199565615
20.022628,1.043882008425933,0.132909323998414
20.025024,1.0506797065981017,0.13239798209617618
20.027412,1.056406469583632,0.131990272928206
20.029792,1.0652062685022174,0.13136531505364368
20.032196,1.076799564100138,0.13055964735422665
20.034584,1.0883928596980583,0.12972960366237687
20.036968,1.105061291975451,0.12845870260738265
20.039364,1.124662990559039,0.1269674145016635
20.041748,1.1489205169415186,0.1252557837271157
20.044132,1.1685222155251067,0.12380774151254352
20.046528,1.1871927485489162,0.12242367945020728
20.048916,1.2091686349312583,0.120962161710694
20.051296,1.2339380179929353,0.11938990303990805
20.053692,1.2564729828827184,0.11771453819015702
20.05608,1.2807305092651977,0.11596788082152983
20.058476,1.3054998923268748,0.11427610904596473
20.060872,1.3319918368812487,0.11261726407568222
20.06326,1.3461916377034007,0.1119748965268632
20.065644,1.3605312081524128,0.11131867226038653
20.06804,1.376872879347842,0.11052318635349323
20.070428,1.3932145505432711,0.10977558390455569
20.072808,1.4060638769250644,0.10939465521383232
20.075208,1.419332512187438,0.1088965186366054
20.077596,1.4273862411434795,0.10878882809036641
20.079976,1.4354399700995208,0.10868758981155728
20.082372,1.4452162605482588,0.1085344201463157
20.08476,1.4521990543176613,0.10851646026640305
20.087144,1.4582506825272858,0.10854414088193516
20.08954,1.4573648429378814,0.10894789425779058
20.091928,1.4654185718939226,0.10887469961636483
20.094312,1.471470200103547,0.1089024990640759
20.096708,1.4760788060741954,0.10890995143653055
20.099096,1.4780336849923692,0.10899623024826982
20.101476,1.4855755572692126,0.10886846188415963
20.103876,1.492977659919196,0.10877590179993989
20.10626,1.5033130288753749,0.10855446095731995
20.108644,1.5096441963387195,0.1085326424132686
20.11104,1.5230526012279535,0.10810957804026437
20.113428,1.536181466863467,0.10776206337189678
20.115812,1.5482393973123423,0.1074899512558913
20.118208,1.5575038310818825,0.10732710229872763
20.120596,1.5689101352246995,0.10703494244380364
20.122976,1.5803164393675166,0.10674776229591978
20.125372,1.5929334483238324,0.1063534186638301
20.12776,1.6072730187728446,0.10593906664803358
20.130144,1.6198900277291604,0.10555915798046381
20.13254,1.6326468063123363,0.10515137040017314
20.134928,1.6452638152686523,0.10478101884175477
20.137312,1.666960162397274,0.1039855339024445
20.139708,1.6795771713535899,0.1036468148093662
20.142096,1.6983402521760167,0.10301950272853291
20.14448,1.7151012322520265,0.10248538557557241
20.146876,1.728649406768121,0.10211140948554287
20.149264,1.7383331494182412,0.10189440432753696
20.151648,1.7470857265085833,0.10170700530783636
20.154044,1.753044806919591,0.10161493315371382
20.156428,1.7624962321442341,0.10129962832109037
20.158824,1.769945556622461,0.10106856023517463
20.16122,1.7766034851677694,0.1008396582503344
20.163608,1.7819109392727188,0.10071843137307654
20.165988,1.789872120430143,0.100537277236058
20.168384,1.7950398049082326,0.10044592147004587
20.170772,1.8030009860656568,0.10027644186360622
20.173156,1.8118933327828592,0.10008138379984313
20.175552,1.8150589165145317,0.10007760602825931
20.177936,1.8228803280450958,0.0999391886849842
20.18032,1.8333554666281346,0.09975462788113987
20.182716,1.8411768781586986,0.09961992189580197
20.185104,1.8419210522633738,0.09977364391762715
20.1875,1.8486715286072994,0.09969966800142724
20.189896,1.8532801345779477,0.0997310127419521
20.192284,1.8596113020412925,0.09973919493064562
20.194664,1.873950872490305,0.09946454161254646
20.19706,1.8913634788723723,0.09907396678441756
20.199448,1.9099867900679388,0.09861527943226504
20.201832,1.9306122020099221,0.09809795368221819
20.204228,1.9486764346980476,0.09775635356674242
20.206616,1.9716760344387851,0.09726999523363536
20.208996,1.9946756341795229,0.09678363690052831
20.211392,2.021027809107036,0.09613567164843517
20.21378,2.046868127355352,0.09546002111120579
20.216164,2.0753621726561424,0.09474527893382317
20.21856,2.1006434123970172,0.09417645546995446
20.220944,2.127135356951391,0.0935634946725825
20.223328,2.1580508118791792,0.09274729166670942
20.225724,2.188314640500909,0.09195809302864623
20.228112,2.213782871696887,0.09128874841316212
20.230508,2.243115534758839,0.09052470475350367
20.232904,2.2704460970743736,0.08978882598918789
20.235292,2.293772457897075,0.08918594004888526
20.237672,2.3125827605477447,0.08865558045982617
20.240068,2.3326037680119134,0.08807506058338871
20.242456,2.3455475380501927,0.0877179585804953
20.24484,2.355558041782277,0.08743862745667684
20.247244,2.3654287758875006,0.08718493178094687
20.249628,2.374228574806086,0.08697460346703567
20.252012,2.383587452232112,0.08668274870639821
20.254408,2.3860088618591098,0.08656862869951427
20.256796,2.3904323722325245,0.08640361735409569
20.259176,2.396066587419438,0.0861908739838065
20.261572,2.3984879970464354,0.08608206053993944
20.26396,2.401188945927153,0.08593702994971684
20.26634,2.4043092036884515,0.08573385821300047
20.26874,2.4042166558898344,0.08563347946687531
20.271128,2.4047757343972753,0.08555812751293214
20.273512,2.3993285106654656,0.08562275442384347
20.275908,2.398816653986268,0.08558033968815082
20.278296,2.3973736317472913,0.085551622220234
20.280676,2.4010057461877876,0.0853996982016362
20.283072,2.4066399613747014,0.0852015861307718
20.28546,2.4158590691738673,0.08496550056866974
20.287844,2.420282579547282,0.0848166135292884
20.29024,2.430060765853889,0.08450734997527265
20.292628,2.444914088839968,0.08408452969485947
20.295008,2.4599071814529077,0.08364942551457494
20.297408,2.4699649070132343,0.083308328704664
20.299796,2.481465654812538,0.08300070879223072
20.302176,2.501114575224369,0.08250315726134307
20.304576,2.518621625262923,0.08207309853328738
20.306964,2.5309137689951444,0.08178248156385252
20.309344,2.546139179033561,0.08143340544685441
20.311744,2.5565689916462264,0.08116452842872499
20.314128,2.5657880994453928,0.08094300865802662
20.316512,2.575938372804337,0.08070577058299393
20.318908,2.5848779413497827,0.08052126740773738
20.321296,2.59875287694784,0.08023602736526819
20.323692,2.6099740854934232,0.07997811214841004
20.326088,2.6181222581059513,0.07979125870786083
20.328476,2.6253392651587,0.07962070923910892
20.330856,2.630693941091893,0.07947377263354645
20.333252,2.634046516278669,0.079367741251299
20.33564,2.640052818517919,0.07924106482192222
20.338024,2.6397732792641992,0.07927673475250156
20.34042,2.63120579777109,0.07951650055376805
20.342808,2.6206362155315652,0.07979762478766843
20.345192,2.616212705158151,0.07993629665657936
20.347588,2.6094150069859827,0.08005644340884846
20.349976,2.5974024025074813,0.08029958170940465
20.35236,2.583807006163144,0.08053374370406689
20.354756,2.57407604168478,0.08070405431769573
