Time,Force,Position
20.549864,0.01837884273138218,0.0
20.552252,0.01837884273138218,0.0
20.554632,0.01837884273138218,0.0
20.557036,0.01837884273138218,0.0
20.559424,0.019651285150709748,0.0
20.561804,0.019651285150709748,0.0
20.5642,0.01781976422394134,0.0
20.566588,0.016919408856951253,0.0
20.568972,0.016872187028708102,0.0
20.571364,0.01617333889440705,0.0
20.573752,0.013131113154139897,0.0
20.576132,0.010430164273421996,0.0
20.578532,0.008800150579342622,0.0
20.580916,0.006828860025714,0.0
20.583296,0.00903246800481989,0.0
20.585696,0.01098734692299359,0.0
20.58808,0.010288498788692538,0.0
20.590476,0.01663607788749234,0.0
20.59288,0.023914822546070462,0.0
20.595268,0.027732032583800807,0.0
20.597652,0.03501077724237893,0.0
20.600048,0.044431392274234115,0.0
20.602436,0.054131546559809715,0.0
20.604816,0.06075866491232995,0.0
20.607212,0.06718427603216114,0.0
20.6096,0.07395116401154157,0.0
20.611984,0.08244061348361845,0.0
20.61438,0.09186122851547363,0.0
20.616768,0.10014917075486145,0.0
20.619152,0.10736617780761074,0.0
20.621548,0.11706633209318634,0.0
20.623936,0.12563381358629458,0.0
20.626316,0.13699479175873777,0.0
20.62872,0.14590355011139527,0.0
20.631112,0.1526087004849469,0.0
20.633492,0.15638058455230333,0.0
20.635888,0.15880199417930083,0.0
20.638276,0.1573589719403248,0.0
20.64066,0.15298268339515364,0.0
20.643056,0.15382130115631493,0.0
20.645444,0.15130734373070037,0.0
20.647824,0.1475826814915871,0.0
20.650224,0.14357847999875342,0.0
20.652612,0.1477224511184473,0.0
20.654996,0.14786222074530753,0.0
20.657392,0.14986432149172438,0.0
20.659776,0.1501438607454448,0.0
20.66216,0.14735036406610985,0.0
20.664556,0.1464191985063315,0.0
20.66694,0.14814175999902793,0.0
20.669324,0.14572035037203043,0.0
20.67172,0.13915496962533902,0.0
20.674108,0.12858538738581393,0.0
20.676488,0.11967662903315643,0.0
20.678884,0.11162100421924587,0.0
20.681272,0.10471434661300522,0.0
20.683652,0.09994955938004164,0.0
20.686048,0.09504500252021784,0.0
20.688436,0.09214254640681091,0.0
20.69082,0.08723798954698711,0.0
20.693216,0.08247320231402354,0.0
20.695604,0.07677724952128163,0.0
20.697988,0.07108129672853973,0.0
20.700384,0.06031020725632559,0.0
20.702772,0.052472384090306634,0.0
20.705156,0.04370339536450935,0.0
20.707552,0.034934406638712064,0.0
20.70994,0.028307288286191834,0.0
20.71232,0.02074900437389329,0.0
20.714716,0.011468158968898315,0.0
20.717108,0.0041894143103201895,0.0
20.719504,0.006656149907691579,0.0
20.7219,0.01233569106497856,0.0
20.724288,0.024223041694205135,0.0
20.726668,0.03432609322490645,0.0
20.729068,0.04635321348099323,0.0
20.731456,0.05931149929685834,0.0
20.733836,0.07362025955308239,0.0
20.736232,0.0857871494360294,0.0
20.738624,0.0942293770798631,0.0
20.741004,0.10160066953705829,0.0
20.7434,0.10892474016601032,0.0
20.745792,0.11876276822057691,0.0
20.748172,0.13246522814111697,0.0
20.750572,0.14137209063590522,0.0
20.75296,0.1558659464893634,0.0
20.75534,0.17063934159654198,0.0
20.75774,0.1872750678232772,0.0
20.760124,0.20535381628898847,0.0
20.7625,0.22738954441929027,0.0
20.764904,0.2519392299752066,0.0
20.767292,0.2718185719546457,0.0
20.769668,0.2863432380008921,0.0
20.77206,0.29579276736766624,0.0
20.774448,0.30496275748072,0.0
20.776844,0.31413274759377374,0.0
20.77924,0.3224641199456662,0.0
20.781628,0.32990965270815426,0.0
20.784008,0.3402884517768375,0.0
20.786404,0.3586756538311881,0.0
20.788788,0.382137992565011,0.0
20.791184,0.4051356964478794,0.0
20.793576,0.42454850771849467,0.0
20.795964,0.43660454230950047,0.0
20.798344,0.4610452684313448,0.0
20.80074,0.4704475759698759,0.0
20.803124,0.47994243130702396,0.0
20.805516,0.48673633776345415,0.0
20.807912,0.49394955310046496,0.0
20.8103,0.49352834836201503,0.0
20.81268,0.4862168976527794,0.0
20.815084,0.47648403731654637,0.0
20.817468,0.4700565303388459,0.0
20.819848,0.4663752982122373,0.0
20.822252,0.4645563972051853,0.0
20.82464,0.4615267913846346,0.0
20.82702,0.4558906803398523,0.0
20.829416,0.4510006392576142,0.0
20.8318,0.4495557211607689,0.0
20.83418,0.445642171608683,0.0
20.836584,0.43465138463070807,0.0
20.838972,0.42244989283923445,0.0
20.841352,0.4086656091819245,0.0
20.843744,0.4002360014578072,0.0
20.846128,0.38221519888218625,0.0
20.848528,0.37629954858368353,0.0
20.85092,0.37280530791217825,0.0
20.853308,0.37215178574825114,0.0
20.855688,0.3674940620914903,0.0
20.858092,0.3678170314577154,0.0
20.860476,0.37409908123494784,0.0
20.862856,0.3845251021318743,0.0
20.86526,0.3929962441106269,0.0
20.867648,0.3996522767980661,0.0
20.870024,0.40858994948564253,0.0
20.87242,0.417527622173219,0.0
20.874804,0.4280480867266317,0.0
20.877188,0.43735784646654563,0.0
20.879588,0.44243108728814873,0.0
20.881976,0.4406140821389659,0.0
20.884356,0.44159057366911825,0.0
20.886752,0.44480148337116465,0.0
20.88914,0.4505263504988255,0.0
20.891536,0.45504051281298774,0.0
20.893932,0.4650018988589596,0.0
20.896316,0.47375258009143273,0.0
20.8987,0.47742812464443357,0.0
20.901096,0.47803063326437906,0.0
20.90348,0.4806352426307415,0.0
20.905864,0.4802140378922916,0.0
20.90826,0.4749972357280898,0.0
20.910648,0.46884926800410986,0.0
20.913028,0.46856783289252013,0.0
20.915428,0.4677745411017328,0.0
20.917816,0.46469960931080817,0.0
20.920196,0.46534933975899684,0.0
20.922592,0.4695839628194386,0.0
20.92498,0.4754013777457166,0.0
20.927376,0.48028762711221623,0.0
20.929772,0.4931822794643833,0.0
20.932156,0.5052855358836322,0.0
20.934536,0.5195306626761582,0.0
20.93694,0.5379197605883781,0.0
20.939328,0.5530035051420654,0.0
20.941708,0.562779795590803,0.0
20.944104,0.569902358987066,0.0
20.946488,0.579166792756606,0.0
20.94888,0.590433327272563,0.0
20.951276,0.6039815017886572,0.0
20.95366,0.6199038641035056,0.0
20.95604,0.6435550901503011,0.007443906728516125
20.958444,0.6650644458238195,0.007443906728516124
20.960832,0.684431931124061,0.014971382352392966
20.963212,0.7032403379168615,0.022564084215882442
20.965608,0.7213971184036042,0.030156786079371917
20.967992,0.7355496973975131,0.037947777168191976
20.970372,0.7454185356448677,0.037947777168191976
20.972776,0.7561259916533838,0.045686680902391724
20.975164,0.7677646132216781,0.05342558463659148
20.977544,0.7744678677373604,0.053425584636591486
20.979948,0.7859667196787947,0.061003393446451934
20.982332,0.7949516141946144,0.06851908876056013
20.984712,0.7957883360979063,0.06851908876056012
20.987108,0.8000701809865913,0.07664952920590024
20.989492,0.8050036521813341,0.07664952920590024
20.991888,0.8139413248689106,0.0846634645166015
20.994292,0.8255327246089617,0.09245600591699621
20.996676,0.8352617932294564,0.10036174737695178
20.99906,0.8388447899838403,0.10036174737695178
21.001456,0.842427786738224,0.10891691349024107
21.00384,0.8421463516266345,0.11002998748597148
21.00622,0.8490819235677941,0.11774095450220119
21.008616,0.854155164389397,0.11792444589455403
21.011004,0.8553639733450263,0.11862526296400547
21.013384,0.8572244086067139,0.11933164989967339
21.015788,0.8602955486819,0.11978136036052128
21.018172,0.8690009039439992,0.1274609894966793
21.020552,0.8742139143924624,0.12756242883102256
21.022956,0.8780764504005666,0.12795340653204107
21.025344,0.8864550445807022,0.13587296210888802
21.027724,0.8945540995071174,0.13593035312059587
21.030128,0.904235946299369,0.1359212249007883
21.032512,0.9212745697712299,0.1430354158449834
21.034896,0.9373820276833125,0.14206632679667489
21.037292,0.9572141478345084,0.1490958551917465
21.039676,0.9750441672392877,0.14808470108734925
21.04206,0.9907795380990327,0.1471628579331031
21.044456,1.010239571197891,0.14593208394825247
21.04684,1.0354263672822799,0.15252584898247099
21.04922,1.061684098553307,0.1504874035329715
21.051616,1.0883611387049148,0.14835270778078474
21.054004,1.106238379937937,0.14727571417624408
21.0564,1.124907017103877,0.14617895854901028
21.058796,1.150373352441986,0.14432896257420577
21.061184,1.1761192270338154,0.1424195308985501
21.063564,1.2038672023720618,0.1404151651164562
21.06596,1.2286819114041128,0.13888847553553854
21.068348,1.2514945196897471,0.13742202331688008
21.070728,1.27551783278888,0.1357028619654679
21.073132,1.298098123649037,0.1341055311773205
21.07552,1.3132290900309673,0.13308524671713626
21.0779,1.326637494920201,0.13219359498421965
21.080296,1.3354826198091605,0.13187269393437903
21.082684,1.3463298454445367,0.13138454743903977
21.085068,1.3553147399603562,0.131047143617059
21.08746,1.3645791737298962,0.13064143838436615
21.089848,1.3760780256713305,0.13024237858967133
21.092228,1.3854350072394876,0.1300586325416912
21.094632,1.3958629239942832,0.12980560790709914
21.09702,1.4048478185101028,0.12956157616688194
21.0994,1.4106199074660069,0.12957909199694645
21.101804,1.4201166586610243,0.12936950506629424
21.104192,1.4277510787364849,0.12926575246017802
21.106572,1.4325920021326106,0.12933268828492134
21.108976,1.4323577888492642,0.129785967863702
21.111364,1.4242549422071105,0.1308365239160041
21.113744,1.4158725563112364,0.13194257546206536
21.11614,1.4122857678411143,0.13273340097750153
21.118524,1.412842950490686,0.13316164763041632
21.120904,1.4180559609391492,0.1333209493525962
21.1233,1.4322085399330582,0.13289122778143836
21.125684,1.4471525148598852,0.13244996501157333
21.12808,1.464098590533129,0.13184987767852216
21.130484,1.4810446662063728,0.13128683126892324
21.132872,1.5005519211334744,0.13050041011848937
21.135252,1.5187087016202168,0.12986660382227053
21.137648,1.535934316547181,0.12931258897201584
21.140036,1.5527878444218082,0.12868266784294657
21.142416,1.5669876452439604,0.12817519702611868
21.144812,1.5806283675586714,0.1277919262710294
21.1472,1.5970625865527177,0.1272615608623547
21.14958,1.6124258703601253,0.12680276278208538
21.15198,1.6289998589810317,0.12622977249464346
21.154364,1.6460857042811359,0.12570429156351678
21.156748,1.6729025140596037,0.12463869663212482
21.159144,1.7087986620103777,0.12295386662200591
21.161528,1.7429722484684549,0.12132689519030654
21.163912,1.777145834926532,0.11975938666371713
21.166308,1.8062442847051376,0.11857219630752583
21.168696,1.8237494388858224,0.11798802115441075
21.171076,1.8332461900808399,0.11786273194311943
21.173472,1.8428827109027173,0.11771201417703663
21.175856,1.854009475791814,0.11741616297349766
21.178236,1.8592697080685203,0.11740364068397482
21.180632,1.8601064299718124,0.11769165881270698
21.183016,1.8621538566886031,0.11788287886227133
21.185396,1.8628980307932783,0.1180345963959907
21.187812,1.864154061577151,0.11823320067687011
21.190196,1.86699288422686,0.11841399890663896
21.192592,1.8731842820633444,0.11838047495230573
21.194984,1.877932657660853,0.11833420143016125
21.197372,1.884962673258499,0.11813947554055992
21.199748,1.8926443151622028,0.11796649483761447
21.202144,1.901955970759986,0.11763329336639099
21.204528,1.903958071506403,0.11754387234660325
21.206908,1.901955970759986,0.1176297312879487
21.209324,1.9027473666929042,0.1176245961021243
21.211708,1.9042376107601233,0.11749869288339881
21.214088,1.9066590203871208,0.11734231409696136
21.216484,1.9183920856119014,0.11687831927861853
21.218872,1.9321272515830992,0.11630217775035845
21.221252,1.9429291512481013,0.11584280292914008
21.223656,1.9534515116593831,0.11545281098641309
21.22604,1.9727736709892505,0.11470796587496514
21.228424,1.990652808080142,0.11392119555584178
21.23082,2.0074610099843953,0.11319671105709535
21.233204,2.024361759687265,0.11260001276799897
21.2356,2.0395399478974388,0.11203963854701197
21.237992,2.0540665098015545,0.11147521389303718
21.24038,2.0633781653993375,0.11116975093405956
21.242764,2.0784165839826505,0.11067897690617584
21.24516,2.0905217362597686,0.11030581568331477
21.247548,2.1027666581637474,0.10991371573424395
21.249928,2.11151923525409,0.10972743787504269
21.252332,2.1239964745835453,0.10943127162362924
21.25472,2.1363339442861413,0.10915731729513305
21.2571,2.145738147682541,0.10899243642174804
21.259496,2.150439301451806,0.10910520191718676
21.261884,2.1555597641016524,0.10914768521981437
21.264264,2.1555125422734096,0.10928393390584328
21.266668,2.162402788244195,0.10916701935127328
21.269056,2.1732972357078144,0.10890019608947381
21.271436,2.1784649201859043,0.10880991859867994
21.273836,2.1799079424248804,0.10882672595435121
21.276224,2.186798188395666,0.10871651146450378
21.278604,2.193036808060394,0.10858545383182643
21.281008,2.198763571045924,0.10841175858153726
21.283392,2.207283830710789,0.10816419784167214
21.285776,2.215804090375654,0.107922583275127
21.288172,2.2275371556004346,0.10753704302703655
21.290556,2.2332639185859646,0.10737268377566257
21.292936,2.2407132430641914,0.10718147143024095
21.295332,2.246812093102059,0.1070783439190737
21.29772,2.255611892020645,0.10679713329821398
21.3001,2.261478424633035,0.10661186774140816
21.302504,2.2696265972455625,0.1063194929565949
21.304888,2.2799166402313675,0.1059377681213392
21.307268,2.2954215895235044,0.10535339991137849
21.309664,2.3135802658681155,0.10473839745216978
21.312048,2.3334615037054243,0.10409167066423043
21.314448,2.344542942624147,0.10372452407360946
21.316844,2.353482511169593,0.10344708355035373
21.319228,2.372292813820262,0.10287955370719941
21.321612,2.3889612460976553,0.1023960422485942
21.324016,2.4039071168823516,0.101948857587265
21.326404,2.423508815465939,0.10141269347938957
21.328784,2.444321218863026,0.1008246384470668
21.33118,2.4603380248343614,0.10035094293058679
21.333568,2.47328179487264,0.0999739682234346
21.335948,2.4828729897241444,0.09973231657877218
21.338344,2.494606054948925,0.09941037497491341
21.340732,2.5035456234943707,0.09914581655501851
21.343112,2.5167689327863707,0.09872690860128928
21.345516,2.527570832451373,0.09842928980853163
21.347904,2.5382329624895146,0.09814639667326809
21.350284,2.54540274771402,0.09802402959934997
21.35268,2.551361828125028,0.0979620770218213
21.355068,2.5525253111102835,0.09802000048055876
21.357448,2.5475427222294282,0.09827608124736066
21.359844,2.5444224644681293,0.09848999505330758
21.362232,2.546377343386304,0.09854743118736387
21.364612,2.548611761558198,0.09856596449268464
21.367008,2.5426980071175644,0.09883346925813719
21.369396,2.539065892677068,0.09900500763416975
21.37178,2.5351542389828516,0.09921259359262075
21.37418,2.5253760526762443,0.09956686695150499
21.376568,2.5143871615561384,0.09997303123483656
21.378948,2.5083336374886454,0.10025189517277397
21.381352,2.505073610100487,0.10047749813641157
21.38374,2.5043747619661856,0.1005725849716004
21.38612,2.5036759138318843,0.10066666636788017
21.388516,2.508983367936834,0.10059486505420152
21.390904,2.507772663123335,0.10064980087633574
21.393284,2.509774763869752,0.1005959990284007
21.395688,2.514849900549224,0.10045309333339347
21.398076,2.5226259861094147,0.10016476133272845
21.40046,2.5305418412964653,0.09985732769833008
21.402856,2.54097165390913,0.09952976750125432
21.405244,2.5587582432014044,0.09896702826030629
21.407624,2.572680400627705,0.09849387989542786
21.410028,2.5851123139867864,0.09811939261030035
21.412416,2.5994065584654247,0.09771673862525077
21.414796,2.6139803421977836,0.09726514991632589
21.4172,2.6301369177959795,0.09682785530907337
21.419588,2.6465730326478947,0.09635976202224004
21.421968,2.667153118619504,0.09577057844225674
21.424368,2.685451564590976,0.09525920328111623
21.426752,2.7056123416820044,0.09473487701665255
21.429132,2.7251214924669753,0.09419490771680732
21.431524,2.7471446006775606,0.09365329511059535
21.433908,2.769027939261286,0.09313684877862066
21.436304,2.784113579672842,0.09276991272621801
21.438708,2.8049259830699294,0.09229709260041133
21.441092,2.8225255809071,0.09192518676255612
21.443472,2.838262847624714,0.09158973558733666
21.445868,2.85129916546161,0.09138460703140794
21.448256,2.8664773536717845,0.09112179488548888
21.450632,2.8814232244564804,0.09079306065807922
21.453028,2.8900832537482057,0.09063501184320508
21.455416,2.90582052046582,0.0903207574551558
21.457796,2.922396404944596,0.08991551159656677
21.4602,2.936178792744036,0.0895541075159525
21.462584,2.956898648342506,0.08906351175175328
21.464964,2.9731024457689443,0.0886245492235415
21.467368,2.9854418113294092,0.08824927648631016
21.469756,2.9956393065165967,0.08793517523522729
21.472136,3.007327045771004,0.08753929735191066
21.47454,3.0132880220398803,0.0872386218513291
21.476924,3.019109228681897,0.08695407057713636
21.479304,3.024418578644715,0.08664222692033706
21.481708,3.0278655974879767,0.08635416762913589
21.484096,3.0361082137569912,0.08599035807153714
21.486476,3.0383445277867547,0.08574447825359052
21.488868,3.0425829425629347,0.08545917959296243
21.491256,3.046821357339116,0.0851745790469089
21.493636,3.051898389876457,0.08479506335414243
21.496032,3.053902386480743,0.08448387918872477
21.49842,3.055626843831308,0.08420432650990119
21.500816,3.059632941182011,0.08385284354261502
21.503212,3.0557704051739067,0.08364225873168146
21.505596,3.049067150658224,0.08356125784290493
21.50798,3.0450176231950166,0.08346143250801002
21.510376,3.031888757559503,0.08353767277161676
21.51276,3.0214136189764647,0.08359560319203882
21.515144,3.0168050130058166,0.08355577730048801
21.517548,3.0131275725949465,0.08350493150304696
21.519932,3.0143854992366887,0.0833708629984602
21.522316,3.0184369225577656,0.08320439211009888
21.524712,3.0235592810654808,0.08301340377570603
21.5271,3.0274709347596978,0.08286549822379714
21.52948,3.0344556243869696,0.08265940748057607
21.531884,3.0414403140142414,0.08245744266195318
21.534272,3.0524292051343473,0.08218554940168603
21.536652,3.063418096254453,0.08191594000140266
21.539048,3.0739876784939777,0.08168899498748751
21.541436,3.089724945211592,0.08145383162377529
21.543816,3.1071847734219027,0.081213135046114
21.546216,3.12622739349805,0.08098440477792425
21.5486,3.1500656109999485,0.08070533707425895
21.550984,3.1785596563007394,0.08037912091629552
21.553388,3.2094751112285276,0.07997533288359221
21.555776,3.2383884654098978,0.07960657722928963
21.558156,3.2743790570171583,0.0791142098964142
21.560552,3.30929871343778,0.07864600108009459
21.56294,3.3408657946716254,0.07826789113777659
21.56532,3.3713619407188324,0.0779132030100844
21.567716,3.397574346019486,0.07765812692726734
21.570104,3.422855585760361,0.07741312075581448
21.572484,3.445994955127959,0.07721252320129719
21.574884,3.467923619682058,0.07704863944634405
21.577272,3.488641579422658,0.07692462671735291
21.579652,3.5074972080437017,0.07682030753598322
21.582056,3.5290065637172203,0.07670966310732419
21.584444,3.5509352282713196,0.0765643352146996
21.586824,3.574214367265778,0.07637257556684639
21.589224,3.592046282528426,0.07621814327075745
21.591612,3.612299607418071,0.07600335344051468
21.593992,3.6306906011881606,0.07580349693981751
21.596396,3.639210860853025,0.0757260945952141
21.598784,3.6460085590251943,0.07565158304779553
21.601164,3.651455782757004,0.07562134484757418
21.60356,3.6573223153693943,0.07555423135216677
21.605944,3.6590448768620907,0.07555259055017868
21.608328,3.6609072079816474,0.07553860521948007
21.610724,3.662117912795146,0.07550683041059553
21.613108,3.6646790920490036,0.07543129904963478
21.615492,3.6664488753699427,0.07535016806233268
21.617896,3.6682186586908823,0.07526903707503056
21.62028,3.673061477944878,0.0751423366253118
21.622664,3.6772526708928153,0.07499763932965066
21.62506,3.6775794319747788,0.07489308722603512
21.627444,3.6748331571236865,0.0748346967252407
21.629824,3.664358018540648,0.07486067919299488
21.63224,3.6533238014501688,0.07493521062577305
21.634628,3.642289584359689,0.0750081047243095
21.637008,3.6339090943216843,0.07507139420392088
21.639404,3.621384633163985,0.07519733003470741
21.641792,3.609419250513727,0.07527344761809272
21.644172,3.604391335662499,0.07526574413462056
21.646568,3.5993634208112693,0.07525770541222083
21.648956,3.5939634189077028,0.07520730043728723
21.651336,3.5902859784968326,0.07515526030411002
21.65374,3.589821343645878,0.07504665181423213
21.656128,3.592709283981699,0.07487145214132644
21.658508,3.597459555437077,0.07468338978053721
21.660904,3.600207726146038,0.07452070111240755
