Time,Force,Position
19.573856,0.04446569823833002,0.0
19.576252,0.03337374636482223,0.0
19.578644,0.02535483042436983,0.0
19.581024,0.019348528185119274,0.0
19.583424,0.013342225945868723,0.0
19.585812,0.01120035557259166,0.0
19.588192,0.012411060386090403,0.0
19.590588,0.01655503150578431,0.0
19.592976,0.02350301225959818,0.0
19.59536,0.02858866189385541,0.0
19.597756,0.03035844521479499,0.0
19.600144,0.03627219965542848,0.0
19.602528,0.04657275559601816,0.0
19.604924,0.05394004523041265,0.0
19.607312,0.059165464491530095,0.0
19.609696,0.063319948566009,0.0
19.612096,0.07040769894668308,0.0
19.614484,0.07735567970049695,0.0
19.616864,0.08295318601395187,0.0
19.61926,0.08827115307368637,0.0
19.621648,0.09358912013342087,0.0
19.624044,0.09490288570032165,0.0
19.626448,0.09490288570032167,0.0
19.628832,0.09382143755889814,0.0
19.631216,0.09484515091729352,0.0
19.633612,0.09204114128317356,0.0
19.635996,0.08947996202931587,0.0
19.63838,0.08412528609612323,0.0
19.640772,0.07984154534956911,0.0
19.64316,0.07634920053593308,0.0
19.64554,0.07672128758827056,0.0
19.647936,0.06935399795387606,0.0
19.650324,0.05905344201328639,0.0
19.652708,0.05168615237889189,0.0
19.655104,0.04646073311777446,0.0
19.657492,0.0449704890505553,0.0
19.659872,0.040826517930861374,0.0
19.662268,0.034028819758692715,0.0
19.664656,0.02886113528060342,0.0
19.667052,0.02354316822086892,0.0
19.669448,0.01822520116113442,0.0
19.671836,0.02027452373579442,0.0
19.674216,0.02349784225049501,0.0
19.676612,0.023927664085860636,0.0
19.679,0.022893437772680263,0.0
19.68138,0.022893437772680263,0.0
19.683776,0.021579672205779468,0.0
19.686164,0.02105730257179678,0.0
19.688548,0.018393062564537033,0.0
19.690944,0.016799757743915816,0.0
19.693332,0.013204352176877753,0.0
19.695712,0.013204352176877753,0.0
19.698116,0.013204352176877753,0.0
19.700504,0.013204352176877753,0.0
19.702888,0.013204352176877753,0.0
19.705284,0.010540112169618006,0.0
19.707672,0.0075963329086378385,0.0
19.710052,0.007446050326992634,0.0
19.712452,0.007016228491627008,0.0
19.714836,0.007016228491627008,0.0
19.717216,0.007016228491627008,0.0
19.719612,0.003653140350066212,0.0
19.721996,0.00042982183536562535,0.0
19.724392,0.0,0.0
19.726788,0.0,0.0
19.729172,0.0,0.0
19.731552,0.0,0.0
19.733956,0.0,0.0
19.736344,0.0,0.0
19.738724,0.0,0.0
19.74112,0.0,0.0
19.743504,0.0,0.0
19.745884,0.0,0.0
19.748292,0.0,0.0
19.750676,0.0,0.0
19.753056,0.0,0.0
19.755452,0.0,0.0
19.75784,0.0,0.0
19.760224,0.0,0.0
19.76262,0.0,0.0
19.765008,0.0,0.0
19.767404,0.0,0.0
19.7698,0.0,0.0
19.772184,0.0,0.0
19.774568,0.0,0.0
19.776964,0.0,0.0
19.779352,0.0,0.0
19.781732,0.0,0.0
19.784136,0.0,0.0
19.786524,0.0,0.0
19.788904,0.0,0.0
19.7913,0.0,0.0
19.793688,0.0,0.0
19.796068,0.0,0.0
19.798472,0.0013609873951439457,0.0
19.80086,0.0013609873951439455,0.0
19.80324,0.0013609873951439455,0.0
19.805648,0.0013609873951439457,0.0
19.808032,0.0013609873951439457,0.0
19.810416,0.0013609873951439457,0.0
19.812812,0.0013609873951439457,0.0
19.8152,0.0013609873951439457,0.0
19.81758,0.0013609873951439457,0.0
19.819984,0.0013609873951439457,0.0
19.822372,0.0013609873951439457,0.0
19.824752,0.0013609873951439457,0.0
19.827148,0.0013609873951439457,0.0
19.829536,0.0013609873951439457,0.0
19.83192,0.0013609873951439457,0.0
19.834316,0.001360987395143946,0.0
19.836704,0.001360987395143946,0.0
19.839084,0.001360987395143946,0.0
19.84148,0.001360987395143946,0.0
19.843868,0.001360987395143946,0.0
19.846248,0.0,0.0
19.848644,0.0,0.0
19.851032,0.0,0.0
19.853416,0.0,0.0
19.855812,0.0,0.0
19.8582,0.0,0.0
19.86058,0.0,0.0
19.862976,0.0,0.0
19.865364,0.0,0.0
19.867744,0.0,0.0
19.870144,0.0,0.0
19.872528,0.0,0.0
19.874912,0.0,0.0
19.877316,0.0,0.0
19.8797,0.0,0.0
19.882084,0.0,0.0
19.88448,0.003221422656831342,0.0
19.886864,0.009096572366137437,0.0
19.88926,0.015530800582884372,0.0
19.891656,0.023827359919187947,0.0
19.894044,0.03226368888235173,0.0
19.896424,0.040560248218655316,0.0
19.89882,0.04764610274146015,0.0
19.901208,0.05394056133134688,0.0
19.903588,0.062050129212547094,0.0
19.905984,0.07346505045227995,0.0
19.908372,0.08874440355798631,0.0
19.910752,0.11016982852980342,0.0
19.913148,0.13266618868825908,0.0
19.915536,0.15516254884671474,0.0
19.917932,0.18175565829662116,0.0
19.920328,0.20937248110492296,0.0
19.922716,0.24271606689875486,0.0
19.9251,0.27713058787922534,0.0
19.927496,0.31247627441947406,0.0
19.929884,0.34544777316096853,0.0
19.932264,0.3676087551405449,0.0
19.934664,0.38669670118706584,0.0
19.937052,0.4069481302188424,0.0
19.939432,0.4183997603320334,0.0
19.941832,0.4270106719376463,0.0
19.944216,0.43627320984931717,0.0
19.946596,0.45056366261221703,0.0
19.949004,0.47095296541298454,0.0
19.951388,0.4888755326163806,0.0
19.953772,0.5029808897820464,0.0
19.956168,0.5080069087754062,0.0
19.958556,0.5068396340744121,0.0
19.960936,0.5044616545599193,0.0
19.96334,0.4980794735525928,0.0
19.965728,0.4873682258283382,0.0
19.968112,0.4711172065736569,0.0
19.970508,0.4456470795198095,0.0
19.972896,0.4201297306377189,0.0
19.975276,0.3944726121287681,0.0
19.977672,0.3749143436576849,0.0
19.98006,0.3670891404113824,0.0
19.982444,0.35740160604552323,0.0
19.98484,0.34808615873200155,0.0
19.987224,0.35222633813595694,0.0
19.989604,0.36013840160726873,0.0
19.992004,0.3714030402653564,0.0
19.994388,0.3760569722063787,0.0
19.996772,0.3716787878033383,0.0
19.999168,0.370885496012551,0.0
20.001556,0.3675310249679059,0.0
20.003936,0.3703226257893717,0.0
20.006332,0.3722302828793022,0.0
20.00872,0.3775830629546256,0.0
20.011104,0.3883830667617587,0.0
20.0135,0.3968542087405114,0.0
20.015888,0.4064888337045197,0.0
20.018284,0.42026742978822196,0.0
20.02068,0.4358158091928637,0.0
20.023072,0.450293253410867,0.0
20.025452,0.45997510020311844,0.0
20.027848,0.46122923512912184,0.0
20.030236,0.46569617561504084,0.0
20.032616,0.4680684675559259,0.0
20.035012,0.4649935357650013,0.0
20.0374,0.460707899160578,0.0
20.03978,0.45055572994376425,0.0
20.042176,0.4469217196453988,0.0
20.04456,0.44938655938490096,0.0
20.046944,0.44877836319134773,0.0
20.04934,0.4549678651699631,0.0
20.051724,0.46567342532060996,0.0
20.05412,0.4768908421504545,0.0
20.056516,0.4829405745022097,0.0
20.058904,0.4906203205480443,0.0
20.061284,0.5050052169674305,0.0
20.063684,0.526607120439566,0.007014864280595705
20.066068,0.5486283327922821,0.013869717892909176
20.068452,0.5678560484656632,0.020724571505222646
20.070848,0.5881546993256829,0.02754606792228979
20.073236,0.6081738109319821,0.034648339441692565
20.075616,0.6371324910837269,0.04129212157922714
20.078012,0.6659514016086118,0.04790880040001008
20.0804,0.6947703121334965,0.054525479220793024
20.082796,0.719165712284967,0.061635840049275636
20.085192,0.7450041346754135,0.06878993548151571
20.087576,0.7753586152378914,0.07578352978089598
20.089956,0.8002658720685596,0.08290126351207854
20.092356,0.8220075451675553,0.09005535894431861
20.09474,0.8434696790128305,0.0973857486102888
20.097124,0.8610673809921325,0.10477561797084103
20.099524,0.8701448233065692,0.11261856128255544
20.101912,0.8817834448748635,0.12011167408394914
20.104292,0.8922113616296592,0.12807548130454643
20.106688,0.8982157680110404,0.12807548130454643
20.109076,0.9004482903250653,0.13652140767647297
20.111456,0.901889416706172,0.13743768046978624
20.113852,0.9033305430872788,0.1383373139353727
20.116244,0.9034211950280265,0.13954234442768382
20.118624,0.9033720773419142,0.1407897010372818
20.12102,0.9083980963352741,0.14131752610944467
20.123408,0.907976891596824,0.14234812341901365
20.125792,0.9078352261120946,0.1432469118833553
20.128184,0.9106268269335603,0.14381359466526916
20.130572,0.9207752044346356,0.14346661203550864
20.132972,0.9316224300700119,0.1428878920937653
20.135368,0.9390245327199953,0.14253860663881074
20.137756,0.948800823168733,0.14208832104463337
20.140136,0.9578782654831698,0.1418631971675541
20.142532,0.9660245422378282,0.14168764089288371
20.14492,0.9726805749252676,0.14179423859946838
20.147304,0.9842719746653188,0.14127345170562416
20.1497,0.9914398640319555,0.14143525573058469
20.152088,1.0063366171305395,0.1406958116493678
20.154468,1.02309570134868,0.14798400713720652
20.156868,1.0404138640742613,0.1467481557249258
20.159256,1.0525171204935104,0.14628346646093077
20.161636,1.062338736912622,0.1461815363267705
20.164032,1.0755129285185094,0.14555354971796453
20.16642,1.0897580553110353,0.14480361846075177
20.168804,1.1032117861706432,0.14422491557406644
20.1712,1.1182483088960873,0.1435756615190557
20.173588,1.1300720260616157,0.14331768268014192
20.175972,1.1394743336001467,0.1434517928031387
20.178368,1.1452445266981814,0.14410968700337082
20.180756,1.1499437846095777,0.144880212348436
20.183136,1.1562258343868101,0.1455955757810429
20.185536,1.1618562578579847,0.14628779992107033
20.187924,1.172189730956294,0.14638368024194592
20.190308,1.1866671751742977,0.1460656077250184
20.192704,1.2059874386462957,0.14512239603078136
20.195092,1.2226539750658192,0.14437098963531403
20.197472,1.2428128562989786,0.14316049467099398
20.199872,1.2561740393599696,0.14256222487605208
20.20226,1.2710254664881795,0.14175458864624674
20.20464,1.2869478288030283,0.1408873914436744
20.20704,1.3078055581704884,0.13962071454342417
20.209428,1.3300137619783081,0.13813454629193572
20.211808,1.349148929853072,0.13694895420047093
20.214208,1.3674927017949179,0.1358298033406823
20.216596,1.3816925026170699,0.1350928406940151
20.218976,1.3960320730660822,0.13433461552037815
20.221376,1.415446780194567,0.1331759058357811
20.223764,1.4334184650840753,0.13200098427060608
20.226148,1.447153631055273,0.1309428561783686
20.228544,1.4600974010935526,0.12992545967112745
20.230932,1.4708067529599378,0.12892334844487716
20.233312,1.4824472703861014,0.12787164845247095
20.235716,1.48938473818513,0.12734694792769247
20.238104,1.4945996444914624,0.12692327169457618
20.240488,1.4975329107976576,0.12673316062839304
20.242884,1.499255472290354,0.12666256195724815
20.245272,1.4973459193425542,0.12697537020420635
20.247652,1.4993007982607283,0.12703077314210265
20.250048,1.4972514756860682,0.12738307622725434
20.252436,1.490127016431936,0.12813713928525106
20.254816,1.4792778949386904,0.12910044816663008
20.257216,1.4700115653112813,0.13000632651982041
20.259604,1.4638182716169272,0.13066912079252577
20.261984,1.45390031568346,0.13156629069793227
20.264384,1.4453328341903517,0.13230862802654614
20.266772,1.4386276838168002,0.13291263272780204
20.269152,1.4299204326968316,0.13362605677957318
20.271556,1.4242862175099187,0.13411043394007352
20.273944,1.4253099308683141,0.13421854515650034
20.276328,1.4239122345997122,0.13457086502205687
20.278724,1.4286133883689778,0.13467270956013702
20.281108,1.431032902138106,0.13497545667696403
20.283492,1.4372242999745906,0.1348868715097761
20.285888,1.4392717266913815,0.13510148480917247
20.288276,1.4411793837813116,0.13534905990390914
20.290656,1.4494654301628302,0.1352828107924884
20.293052,1.4632459221044016,0.13476368423392063
20.29544,1.4765145573667755,0.1342180217569808
20.297836,1.4916455237487058,0.1335510822529768
20.300232,1.5115720875563883,0.13256896260033196
20.30262,1.533081443229907,0.13153970608038548
20.305,1.553659633343647,0.13059094536650975
20.307396,1.5711647875243315,0.12987439810984444
20.309784,1.5910441295037705,0.12905881135088274
20.312164,1.6114353281624072,0.12830117083593173
20.314564,1.6278223253282103,0.1278313628262991
20.316952,1.643278156934235,0.12742025692299339
20.319332,1.6553814133534837,0.12729929367546097
20.321728,1.665622338653176,0.127289589455446
20.324116,1.6821491054458395,0.12684443707715107
20.326496,1.6933684181335533,0.12663182036558004
20.328892,1.707288679701985,0.12614296756359872
20.33128,1.7177165964567807,0.12594933662776195
20.333664,1.73228848433127,0.12547182484252298
20.33606,1.7449980410862032,0.12507904068930278
20.338448,1.7545420141094634,0.12476700504893769
20.340844,1.7588710808263914,0.12478700615313944
20.34324,1.7629206082895992,0.1248691075959777
20.345628,1.7711141068725007,0.12471377594533713
20.348008,1.7775850439627054,0.12460954597145218
20.350408,1.7834043547468525,0.12448631388889646
20.352796,1.7885720392249418,0.12434617485129888
20.355176,1.7954622851957276,0.1241555679841088
20.357572,1.8067760415399277,0.1236877329298515
20.359956,1.8194402723244865,0.12311355362307669
20.362336,1.8335947471762648,0.12238750773287436
20.364732,1.845607351654766,0.12177431231677356
20.36712,1.8588306609467657,0.12105624973726548
20.369516,1.8701916391192088,0.12041497834178813
20.371912,1.8752667757986812,0.12014600425876583
20.3743,1.8797828339707128,0.1199825918354016
20.37668,1.8838795832621635,0.11990789798767428
20.379076,1.8910493684866698,0.11966682090355751
20.381464,1.9020835855771494,0.11927938153385885
20.383844,1.9152596730409062,0.1187691815877912
20.386244,1.9273648253180242,0.11833066722162765
20.388632,1.9445451142746146,0.11764543843167058
20.391012,1.9629361080447039,0.11689944508873401
20.393408,1.9774626699488196,0.11633789511194857
20.395796,1.996133202972629,0.11560894342438195
20.398176,2.017737002302634,0.1147887377830374
20.400572,2.0382698664459995,0.1140185328723962
20.40296,2.061224140216364,0.11312108521228204
20.405344,2.081105378053672,0.11239073595960734
20.40774,2.0994038240251442,0.11168775351903253
20.410128,2.115280860369619,0.1111180419717151
20.412524,2.1359534941398453,0.11039231560724592
20.41492,2.1584884590296283,0.10962556976458518
20.417308,2.1830255246658283,0.10878667459448274
20.419688,2.2129172662352206,0.10770522567408827
20.422084,2.2464411222451095,0.10641441049900183
20.424472,2.277683338254861,0.10523410995195577
20.426856,2.3073427623987763,0.10408629697753799
20.429252,2.331135653930301,0.10317065008043229
20.43164,2.353857610275188,0.10231001466687564
20.43402,2.3741581569930768,0.101568968270162
20.436416,2.3945984733378256,0.10084403015040419
20.438804,2.4115464448689385,0.1002956568545384
20.441184,2.4283546467731916,0.09977018425221425
20.443576,2.43487280569164,0.09961180159451784
20.445964,2.436595367184336,0.09958812141646942
20.44836,2.443253295729645,0.09941606683652379
20.450756,2.4449758572223415,0.09939405679659409
20.453144,2.445767253155259,0.09939337490057751
20.455524,2.447861901700293,0.09943251495001534
20.45792,2.4582444924847144,0.09919475784889141
20.460308,2.465042190656883,0.0990184314280168
20.462688,2.4670442914033,0.09895909657198661
20.465084,2.471048492896134,0.09884458403913646
20.467472,2.4718398888290514,0.09884518393560555
20.469868,2.4703496447618325,0.09893847136539935
20.472264,2.4682077743885564,0.0990141501072614
20.474652,2.466437991067617,0.09914716534859107
20.477036,2.465459603679595,0.09928143667333159
20.479432,2.461408180358518,0.09951483232483098
20.48182,2.461640497783996,0.09959290287106184
20.484204,2.455866512970222,0.09984620734071098
20.486596,2.4495806714772512,0.10006635217954514
20.488984,2.4451571611038374,0.10024402578467491
20.491364,2.4499527585295886,0.10012162288969015
20.49376,2.4567504567017573,0.09993629318423311
20.496148,2.458053709313873,0.0999750340317728
20.498532,2.461219293045545,0.09997239482953396
20.500928,2.4665267471504944,0.0998906324143094
20.503316,2.470111639762748,0.09983025167828057
20.505696,2.466479525322252,0.10000261242441204
20.508092,2.4659204468148115,0.10007894169491856
20.51048,2.472950462412457,0.09998745746390457
20.512864,2.4726237013304937,0.10014021181013569
20.51526,2.4735076450620284,0.10023572129720745
20.517648,2.4721099487934266,0.10042782991924806
20.520044,2.477649720323853,0.10042946175910625
20.522436,2.481746469615304,0.1004113595997407
20.524824,2.4869141540933937,0.100355649871455
20.527204,2.502232111930427,0.10001007230764533
20.529604,2.519691940140738,0.09961227822655763
20.531992,2.541155969843883,0.09910241690089173
20.534372,2.5674155969727788,0.09849153503033195
20.536768,2.587808691489285,0.0980128751175094
20.539156,2.6049889804458752,0.09765134592269961
20.541536,2.6229606653353836,0.09729455421720919
20.543932,2.6465665654118053,0.09673389602023295
20.54632,2.6700326958613667,0.09618931343504394
20.548704,2.688144150377735,0.09581515135862428
20.5511,2.705044900080605,0.09548906105234246
20.553488,2.722876815343253,0.09514050293379045
20.555872,2.7377754642997068,0.09486807731426354
20.558268,2.74736665915121,0.09466890541742035
20.560652,2.7633834651225455,0.09425724491691874
20.563048,2.7783293359072414,0.09388385277164062
20.565444,2.796767551505574,0.0933665424835513
20.567832,2.8125520400514312,0.09290680147463688
20.570216,2.8299193204631257,0.09244997476892038
20.572612,2.847426370501679,0.09198233606400408
20.575,2.856645478300845,0.09175056373788096
20.57738,2.856505708673985,0.09176730618962578
20.57978,2.8560863997934045,0.09181716001001983
20.582168,2.852873594233489,0.09190891239051464
20.584552,2.8575294220323806,0.09183770266313193
20.586948,2.8675399257644645,0.09162095044205834
20.589336,2.8795525302429654,0.09136696804125109
20.591716,2.886489998041994,0.09123041083587481
20.594112,2.894638170654522,0.09105065785550187
20.5965,2.91028288957352,0.09067480300551367
20.598884,2.9292801836792934,0.09020057650553176
20.60128,2.9484172474119266,0.08970960013818853
20.603668,2.9724896781971717,0.08913747843284488
20.606048,2.997213735288475,0.08858394441968523
20.608448,3.0217980227529178,0.08806061727083257
20.610836,3.045171605403862,0.08757441899929408
20.613216,3.0691968143608643,0.08711631224762476
20.615612,3.0897296785042303,0.08677152442908781
20.618,3.111613017087956,0.086377479374981
20.62038,3.1334963556716806,0.0859897021339128
20.62278,3.1548678375762083,0.08556180444492907
20.625168,3.1815939954139285,0.08498411567428807
20.627564,3.206457822132092,0.08442751986657489
20.62996,3.2301109440367566,0.08391087590951601
20.632348,3.2509705692620865,0.08344414223673624
20.634732,3.2654045833675847,0.08314333748321667
20.637128,3.2770451007937482,0.08288067592696506
20.639516,3.290547949339469,0.08259640063719446
20.6419,3.304842193818107,0.08232040003553653
20.644296,3.314712927923331,0.08216277803584857
20.646684,3.32137085646864,0.08207859016104342
20.649064,3.329099720200587,0.08197126804121135
20.651464,3.3314739079993414,0.08198356155385272
20.653852,3.3367813621042908,0.08195385303877965
20.656232,3.341017881022602,0.08194790942120508
20.658632,3.3506090758741056,0.08182986632838804
20.66102,3.360200270725609,0.08171411299863122
20.6634,3.37207310557725,0.08154015960371484
20.6658,3.3816643004287528,0.0814255244903053
20.668188,3.3889738552801196,0.08136777618203747
20.670568,3.3987973675571004,0.08130935290823266
20.672968,3.412485311700055,0.08120616591523273
20.675356,3.4303172269627034,0.08103173483400018
20.677736,3.451082408531547,0.08081886196344101
20.68014,3.4717078204735303,0.08062183297988144
20.682528,3.4924730020423733,0.08040725510322973
20.684908,3.5128188747306366,0.08023080532962662
20.687304,3.530231481112704,0.08009179507518994
20.689692,3.544990360442297,0.07996720830209088
20.692076,3.5598890093987503,0.07982904750085347
20.694468,3.5786520902211767,0.07964431697152506
20.696856,3.598486106230242,0.07944344854618218
20.69924,3.6193910574259456,0.07921775179070425
20.701636,3.6370832030617337,0.07905812948304436
20.70402,3.6538441831377435,0.07890773403058089
20.706404,3.662596760228085,0.07887568882251335
20.7088,3.6696267758257313,0.07884824956571487
20.711188,3.6747944603038203,0.0788374747122658
20.713568,3.6811728495954084,0.07879376371946832
20.715964,3.690112418140854,0.07867169476540235
20.718352,3.701473396313297,0.07848730879549881
20.720748,3.7117634392991015,0.07832862940745423
20.723144,3.7191202159787116,0.07820649465855109
20.725532,3.724754431165625,0.07808782113110314
20.727912,3.7295972504196198,0.0779649423726608
20.730312,3.7356507744871137,0.07781083817398414
20.7327,3.744405247435325,0.0775734801841043
20.73508,3.758374626689869,0.07725614673317453
20.737476,3.7740665674371097,0.07693739915560448
20.739864,3.790969212997849,0.07659067407936875
20.742244,3.8025644044536384,0.07626208209915203
