Time,Force,Position
19.723168,0.04252195395773813,0.0
19.725564,0.04131124914423939,0.0
19.727948,0.03888983951724191,0.0
19.730328,0.041823105823437075,0.0
19.732732,0.046898242502909304,0.0
19.73512,0.05425501918251882,0.0
19.7375,0.06542213747705422,0.0
19.739896,0.07672902539844982,0.0
19.742284,0.08375217257329133,0.0
19.744664,0.08784205344193766,0.0
19.747068,0.0896502943104467,0.0
19.749452,0.0896502943104467,0.0
19.751832,0.0896502943104467,0.0
19.754228,0.08556041344180039,0.0
19.756616,0.08468333813306966,0.0
19.759,0.08468333813306966,0.0
19.761404,0.08468333813306966,0.0
19.763788,0.08366649319747872,0.0
19.766172,0.0795766123288324,0.0
19.768576,0.0764178970199644,0.0
19.77096,0.07218824652445786,0.0
19.773344,0.06581672565567427,0.0
19.77574,0.06051613997352921,0.0
19.778124,0.05222819773414139,0.0
19.780504,0.04608212586803063,0.0
19.7829,0.03900488844214154,0.0
19.785288,0.027837770147606133,0.0
19.787684,0.016530882226210516,0.0
19.79008,0.009593414427181642,0.0
19.792468,0.00666014812098647,0.0
19.794848,0.008150392188205631,0.0
19.797244,0.012659581937432583,0.0
19.799632,0.01903110280621617,0.0
19.802012,0.026194019607917875,0.0
19.804416,0.029073195663065456,0.0
19.806804,0.031672832464492616,0.0
19.809184,0.03427246926591977,0.0
19.81158,0.03873443718690357,0.0
19.813968,0.04198570029438863,0.0
19.816348,0.04337463228231705,0.0
19.818744,0.04369262908360694,0.0
19.821132,0.04369262908360694,0.0
19.823512,0.04369262908360694,0.0
19.825908,0.043606949707794315,0.0
19.828292,0.04137939995870464,0.0
19.830688,0.04008301576939328,0.0
19.833084,0.04008301576939328,0.0
19.835472,0.04412567480979645,0.0
19.837852,0.04822242410124721,0.0
19.840248,0.05432127413911483,0.0
19.842636,0.06028035455012223,0.0
19.845016,0.06889316201360438,0.0
19.847416,0.0757834079843901,0.0
19.8498,0.08281342358203603,0.0
19.852184,0.09934208623256852,0.0
19.85458,0.11736099295032018,0.0
19.856964,0.1375217700413489,0.0
19.85936,0.15395788489326434,0.0
19.86176,0.17267563974531705,0.0
19.864148,0.1900429201570108,0.0
19.866528,0.20661880463578647,0.0
19.868924,0.22137081554257493,0.0
19.871312,0.23719376163600192,0.0
19.873692,0.25129414623673246,0.0
19.876088,0.26446336527768477,0.0
19.878476,0.27870351950527555,0.0
19.88086,0.29201250817308805,0.0
19.883256,0.2992767370540805,0.0
19.885644,0.30146582925560067,0.0
19.888028,0.299510950337427,0.0
19.890432,0.2956937402996967,0.0
19.892816,0.2830767313433808,0.0
19.8952,0.26981496450381154,0.0
19.897596,0.2556220321044638,0.0
19.899984,0.23621419339878377,0.0
19.902364,0.21559564987960497,0.0
19.904768,0.19283523598714908,0.0
19.907156,0.17193715321424985,0.0
19.90954,0.14996813525471206,0.0
19.911944,0.1312119228550899,0.0
19.914328,0.11431804157502437,0.0
19.916708,0.10277196780534704,0.0
19.919108,0.08722169254283602,0.0
19.921496,0.07312130794210543,0.0
19.923876,0.061295694918707684,0.0
19.926272,0.0522635785746449,0.0
19.92866,0.04602495890991707,0.0
19.93104,0.0417884399916061,0.0
19.93344,0.04434961924546379,0.0
19.935828,0.0438377625662661,0.0
19.938208,0.038397407257260825,0.0
19.940604,0.04174998244403663,0.0
19.942992,0.048540812193400854,0.0
19.945372,0.05318977156948801,0.0
19.947768,0.05690756538579685,0.0
19.950156,0.05876302808254905,0.0
19.952536,0.06047872115244104,0.0
19.95494,0.06047872115244105,0.0
19.957328,0.06047872115244105,0.0
19.959708,0.06270437504366147,0.0
19.962112,0.06506979856174212,0.0
19.9645,0.06688301199518637,0.0
19.96688,0.07763579397407634,0.0
19.969276,0.08959241234366061,0.0
19.971664,0.102067755815247,0.0
19.974044,0.10653469630116602,0.0
19.97644,0.10541464342841508,0.0
19.978828,0.10108178499574856,0.0
19.981208,0.09502636507038562,0.0
19.983612,0.09418585145135512,0.0
19.986,0.10092756351460695,0.0
19.98838,0.10194938101513308,0.0
19.990776,0.10190026332902069,0.0
19.993164,0.10520372082968411,0.0
19.995548,0.11209207094260058,0.0
19.997944,0.1199115866152954,0.0
20.000332,0.13047737713908203,0.0
20.002724,0.15113935077076546,0.0
20.00512,0.16789156656610155,0.0
20.007508,0.17231507693951592,0.0
20.009892,0.17953208399226522,0.0
20.012288,0.17622673063373256,0.0
20.014672,0.1652012778239266,0.0
20.017052,0.15324465945434235,0.0
20.019448,0.13942570996520143,0.0
20.021832,0.12975073159575443,0.0
20.024228,0.1238004154654207,0.0
20.026628,0.12106290489500257,0.0
20.029012,0.11818562469772423,0.0
20.031396,0.11423740931380738,0.0
20.033792,0.10749569725055555,0.0
20.03618,0.10261631630686036,0.0
20.03856,0.09587460424360852,0.0
20.04096,0.08792218736685796,0.0
20.043348,0.08014420594879858,0.0
20.045728,0.07809298751626932,0.0
20.048124,0.06896642751572024,0.0
20.050516,0.04843356337235404,0.0
20.052896,0.03168134757701795,0.0
20.0553,0.03126014283856809,0.0
20.057688,0.02920892440603883,0.0
20.060068,0.03730797933245404,0.0
20.062464,0.04618966591111368,0.0
20.064852,0.06079811547530346,0.0
20.067232,0.07363678171855367,0.0
20.069628,0.09802152173148118,0.0
20.072016,0.12398905361024491,0.0
20.074396,0.15489195254162066,0.0
20.076796,0.18314112442052172,0.0
20.079184,0.2109709874188421,0.0
20.081564,0.24303736933547346,0.0
20.08396,0.2769660823716614,0.0
20.086348,0.31317643540798673,0.0
20.088728,0.34636097433949975,0.0
20.091124,0.36912825665476,0.0
20.093512,0.38425922303669047,0.0
20.095908,0.40623321356116343,0.0
20.098304,0.43109324856358844,0.0
20.100692,0.4587361201068054,0.0
20.103072,0.47679845693706174,0.0
20.105476,0.49392962820753983,0.0
20.107864,0.5136673047022494,0.0
20.110244,0.5357791689957133,0.0
20.11264,0.5489514647437316,0.0
20.115028,0.567106349372605,0.0
20.117408,0.570130267619548,0.0
20.119804,0.5698488325079583,0.0
20.122192,0.5638406344108384,0.0
20.124576,0.5610452418736341,0.0
20.126972,0.558948697470731,0.0
20.12936,0.5514049293360181,0.0
20.131744,0.5423709171340861,0.0
20.13414,0.5317068912380747,0.0
20.136528,0.5216472698198782,0.0
20.138908,0.5218304695592431,0.0
20.141304,0.5275081148586608,0.0
20.143692,0.5354674001582158,0.0
20.146072,0.5435664550846311,0.0
20.148472,0.5490117829585714,0.0
20.15086,0.5559473548997311,0.0
20.15324,0.562930148669134,0.0
20.155636,0.5665150412813871,0.0
20.158024,0.5660031846021893,0.0
20.160404,0.570566464602464,0.0
20.1628,0.5696352990426856,0.0
20.165192,0.5738718179609966,0.0
20.167588,0.5829964821036765,0.0
20.169984,0.5942157947913902,0.0
20.172372,0.6080416127033356,0.0
20.174756,0.6230309136005365,0.0
20.177152,0.6389513800575157,0.0
20.17954,0.6535685939023792,0.0
20.18192,0.6667427855082666,0.0
20.184316,0.6842007178607081,0.0
20.186704,0.7008672542802316,0.006827951727111088
20.189088,0.7173014732742777,0.01323460721473722
20.191484,0.7253552022303191,0.020004169889304785
20.193872,0.7351314926790569,0.026645740381730225
20.196252,0.749423841299826,0.0329259789288055
20.198648,0.7713052840256819,0.03874910049876218
20.201036,0.7934190441770151,0.04460674456794367
20.20342,0.8105502154474931,0.0509080529737568
20.205816,0.83256953194234,0.05719896172650428
20.208204,0.8521674388101893,0.06368916866554222
20.210588,0.876840482357511,0.069970526837727
20.212984,0.8991393381060783,0.07627096690709646
20.215372,0.9177607534437754,0.08249403459002029
20.217752,0.9369412472889134,0.08858827483957048
20.220148,0.9520249918426006,0.09474582549183594
20.222536,0.9648743182243937,0.10092076161903805
20.224932,0.9793536583002662,0.106891186955826
20.227328,0.9915513583760014,0.11320214831939963
20.229716,1.006123246250491,0.11947360002664287
20.232096,1.0213467604310384,0.12564381225209106
20.234492,1.035359569798087,0.12501493880570944
20.23688,1.0435983943513625,0.12520127156539107
20.23926,1.0567253641290069,0.1251230713437162
20.241656,1.068501859466292,0.12529324973599792
20.244044,1.074272052564327,0.12610232925661607
20.246428,1.0741757130499718,0.12741945061979432
20.248824,1.0731482079758377,0.12880470910153907
20.251212,1.0766839829019785,0.12961187788177664
20.253592,1.0791960444697237,0.13025147595142317
20.255988,1.0854799901048253,0.13033637471990453
20.258376,1.0871081079410356,0.1307681380702162
20.26076,1.0905985568968024,0.13106477352603382
20.263156,1.0969750503305211,0.13137461615984303
20.265544,1.1010699037641027,0.1319457244778476
20.26794,1.1096808153697157,0.13224305658231592
20.270336,1.1200142884680249,0.13246389112079837
20.27272,1.1247135463794213,0.13331359079322352
20.275104,1.1377932943288225,0.13356468354146456
20.2775,1.1518042078380017,0.1337604857275999
20.279888,1.16143883280201,0.13417332951217106
20.282268,1.1686992699672636,0.1346383677854368
20.284664,1.1793122823192936,0.1347094960921242
20.287052,1.1890413509397884,0.1345997429990983
20.289432,1.198677871761666,0.1342878139184108
20.291828,1.2060799744116493,0.1339506193641478
20.29422,1.2125509115018545,0.13367525372945757
20.2966,1.2213034885921965,0.13311853293989334
20.299,1.2335011886679321,0.1324337897127795
20.301388,1.2457914365422844,0.13197053678376408
20.303768,1.255520505162779,0.13188381896179144
20.306164,1.270836567141943,0.1314465405391052
20.308552,1.2855935506136669,0.13118274932360077
20.310948,1.2947635407267208,0.1312553057877205
20.313344,1.3063549404667723,0.13104795372877295
20.315732,1.310636785355457,0.13127590849633572
20.318116,1.317060500617419,0.13131762802026425
20.320512,1.332703323678547,0.1306158004973404
20.322896,1.3446687063288052,0.12999329797282905
20.32528,1.3542599011803087,0.12943257804306899
20.327676,1.367715527897786,0.12864111801000797
20.330064,1.3843367383469354,0.12778396565130778
20.332448,1.4025407406619212,0.12691084889732637
20.334848,1.4223275348427433,0.12604482232932235
20.337232,1.4406240849563463,0.12535873130764263
20.339612,1.468232290667732,0.1242038761920502
20.342008,1.4987737626853133,0.12287008444050278
20.344392,1.525311033210061,0.12180947143081454
20.346788,1.5403947777637481,0.12136307121946047
20.349184,1.5543150393321798,0.12084182821268852
20.351572,1.5677234442214139,0.12026823596841289
20.353952,1.5754050861251174,0.1200216619942354
20.356348,1.5817834754167055,0.11972820877759141
20.358736,1.5893725695217924,0.11928449246148339
20.361116,1.5958907284402408,0.11894302477744122
20.363512,1.610789377396694,0.11816598452951806
20.3659,1.6260601134054844,0.11754087019941588
20.36828,1.6342536119883857,0.11737155384748635
20.370684,1.6377440609441527,0.11759956459249742
20.373068,1.6377421650862833,0.11813127034172227
20.375448,1.6391832914673898,0.11865554082464307
20.377844,1.6405318700498794,0.11902461202319708
20.380232,1.6396460304604754,0.11938958353319087
20.382628,1.6364785508709334,0.11992557648079094
20.385024,1.6371755031473652,0.12026516203992843
20.387412,1.6316338357590692,0.12080134907716587
20.389792,1.6254405420647153,0.12130100843188166
20.392196,1.6220407450496965,0.12169636414215328
20.394584,1.6293030780728197,0.1215872149300481
20.396964,1.635214936655584,0.12160451713012921
20.39936,1.6414988822906855,0.1217021716948461
20.401748,1.6505763246051224,0.12167611991803728
20.404132,1.6613763284122556,0.12160194308789431
20.406528,1.6769719296451404,0.12129771181818369
20.408916,1.694429861997582,0.12093692948321633
20.411296,1.7044384698717971,0.12088865140187711
20.413692,1.705275191775089,0.1211866441313502
20.41608,1.708905410357716,0.12136719279041745
20.41846,1.7176107656198152,0.12125103537231677
20.420856,1.733021271255466,0.12064293324062587
20.423244,1.7409824524128903,0.12035913807936488
20.425624,1.7501071165555702,0.12015958698829554
20.42802,1.7637478388702814,0.11981245162979083
20.430408,1.7780874093192938,0.11931662237992575
20.432804,1.7896334830889709,0.11894556012947624
20.435204,1.8052763061500992,0.11851730546350378
20.437592,1.819428885144008,0.11824291566547177
20.439972,1.833069607458719,0.11792719197262938
20.442368,1.8448479986538735,0.11770269471493089
20.444756,1.862120835409081,0.11717160111345944
20.44714,1.8765076276863368,0.11660187716320006
20.449536,1.8910341895904523,0.11601385156173498
20.451924,1.9064919170543462,0.11540978753549772
20.454304,1.9194356870926257,0.11486708548323761
20.456704,1.9266526941453748,0.11452989631716484
20.459092,1.9385255289970158,0.11403686494554889
20.461472,1.9589186235135219,0.11321341459733239
20.463868,1.9810815013509677,0.11223194262954432
20.466252,2.0044550840019117,0.1112169665239134
20.468632,2.027921214451473,0.11038005301739941
20.471028,2.058744121580644,0.10919953540968935
20.473416,2.082537013112169,0.10815345148602921
20.475812,2.1032568687106385,0.10727536070558123
20.478208,2.126630451361583,0.10637030433395042
20.480592,2.1473503069600524,0.10549804324038826
20.482972,2.159969211774237,0.1048083082852173
20.485368,2.171656951028644,0.10413358705176312
20.487756,2.184927482148887,0.10346521069217923
20.490136,2.194473351030017,0.10290315728452697
20.492532,2.1993161702840114,0.10261899562494964
20.49492,2.209978300322154,0.10227653184203143
20.497316,2.219849034427378,0.10194014162176634
20.49972,2.225715567039768,0.10174615240771234
20.502104,2.2328853522642746,0.10159630116673161
20.504484,2.2420572382351978,0.10136584899291964
20.506884,2.247504461967007,0.10123692562244813
20.509268,2.251089354579261,0.10116164206238801
20.511648,2.2531840031242947,0.10120168938646214
20.514044,2.2523453853631334,0.10133153468718646
20.516432,2.2463390831238828,0.10152940690799751
20.518812,2.2388425368174127,0.10182235095669354
20.521216,2.240657646108726,0.10190576095838352
20.523604,2.237816927601148,0.10209679250512702
20.525984,2.2306924683470157,0.10245609345412106
20.528388,2.231296872824831,0.10260140510213428
20.530776,2.2382796665942335,0.10261974764069512
20.533156,2.248615035550412,0.102490815922926
20.535552,2.2578794693199518,0.1024068769356234
20.53794,2.2720792701421044,0.10218174646778178
20.54032,2.2866983798448373,0.1018901920444281
20.542716,2.3000142369354544,0.10157220637290124
20.545104,2.3130505547723508,0.1012945668360229
20.547484,2.3302308437289407,0.10087451932756884
20.549888,2.3439660097001385,0.10049183022705913
20.552272,2.358632341231114,0.10008600187862964
20.554652,2.3758126301877045,0.09965272102173577
20.557048,2.3919219839576566,0.0992621799643939
20.559436,2.409753899220305,0.09886121352195934
20.561816,2.4253041744828163,0.0985545370541302
20.564212,2.443647946424662,0.09818650606518733
20.5666,2.458918682433452,0.09792042396779287
20.568996,2.467251950643214,0.09786038048053096
20.571392,2.4842452481447013,0.09758198781514073
20.57378,2.5008664585938507,0.09723234400337295
20.57616,2.51162113643061,0.09705545700010364
20.578556,2.5229348927748094,0.0968087873548892
20.580944,2.5299649083724556,0.09671568284400947
20.583324,2.5321993265443496,0.09673573418656833
20.58572,2.534293975089384,0.09677598194611178
20.588108,2.5345262925148613,0.0968537261948801
20.590488,2.5312662651267024,0.09708355081242104
20.592884,2.53014810811182,0.09723615571575323
20.595272,2.5302406559104376,0.09733028812218067
20.597668,2.53326647001525,0.09735357718807543
20.600064,2.543089982292231,0.09722629212224615
20.602452,2.5553349041962092,0.09699964289494069
20.604832,2.5687905309136863,0.0967229224223741
20.607228,2.5778698690859927,0.09649211498611586
20.609616,2.5930952791244093,0.09609936565954655
20.611996,2.606039049162689,0.09578988699160902
20.614392,2.6181914232680508,0.0954702177851947
20.61678,2.634208229239385,0.0950632768807444
20.61916,2.644498272225189,0.09478102709260172
20.62156,2.6574420422634684,0.09446750582650579
20.623944,2.669966503421167,0.09420070942601372
20.626328,2.6802093245787284,0.09402518996045288
20.628724,2.6956670520426225,0.09370078606680075
20.631108,2.7189934128653235,0.0931926490174702
20.633504,2.737384406635413,0.09280352036645008
20.635904,2.757777501151919,0.09236070972522036
20.638288,2.7825941060418393,0.09176875095366638
20.640672,2.804617214252425,0.09123210441420226
20.643068,2.822356581716456,0.09083640632038065
20.645456,2.841027114740265,0.09043523242841611
20.647836,2.8519687840321275,0.09019736104704534
20.650236,2.8599771870177952,0.09002301439165708
20.652624,2.866774885189964,0.08989576159494164
20.655004,2.874224209668191,0.08978541815067764
20.657404,2.875807001534027,0.08979107207096515
20.659792,2.876738167093806,0.08977719763921657
20.662172,2.8828842389599165,0.08962942813139108
20.664568,2.8877270582139114,0.08944567372923146
20.666956,2.893501043027685,0.08924761105190365
20.669336,2.9004857326549573,0.08900770596183517
20.671732,2.910171371162947,0.08864459606109634
20.67412,2.9178549089245203,0.08832056521387284
20.676516,2.920603079633481,0.08809718807080631
20.678912,2.9196265881033288,0.08792830632842935
20.6813,2.9217231325062314,0.0876887676712169
20.68368,2.924331533588332,0.08748491905588715
20.68608,2.9210734020580422,0.08738894161778087
20.688464,2.9193980623935887,0.08729956712890684
20.690848,2.9186538882889144,0.08719728514516384
20.693244,2.9151162175049046,0.08713310249461122
20.695632,2.910647381161117,0.08708160769642109
20.698012,2.9060387751904684,0.08704594553895541
20.700416,2.897845276607567,0.08704733250995592
20.702808,2.8905829435844437,0.08703665503725395
20.705188,2.885834567986935,0.08701930725506468
20.707584,2.8870924946286767,0.0868724298761666
20.709972,2.8840666805238646,0.08684338932277567
20.712356,2.88155272309825,0.08684934475316909
20.714752,2.8783871393665774,0.08683561991166648
20.71714,2.873079685261628,0.08687804575807273
20.719516,2.8654905911565414,0.08699172246803168
20.721912,2.862836864104067,0.0870122862156715
20.7243,2.865909900037122,0.0869450721664265
20.72668,2.8680517704104,0.08688980804713439
20.729076,2.869262475223898,0.08684679243455523
20.731464,2.873034359291254,0.08670472681670273
20.73386,2.881462071157502,0.08650477751920632
20.736256,2.8892381567176924,0.08628630005646247
20.73864,2.8972937815316024,0.08603694241344627
20.741024,2.906140802278431,0.0857910812887821
20.74342,2.9188522548912332,0.08548471140217648
20.745808,2.930492772317397,0.08520317392709365
20.748188,2.946928887169312,0.08484392227129735
20.750584,2.9647154764615866,0.08442882920271523
20.752972,2.9830611442613018,0.0839554540524547
20.755352,2.9983337761279625,0.08356080443930675
20.757752,3.0157482783678997,0.08311377586328862
20.76014,3.0303692839285015,0.08269780350711144
20.76252,3.048295642847636,0.08228852508472026
20.764916,3.0671531673265484,0.08187034509087043
20.767304,3.0889439581116567,0.0814080147734188
20.769688,3.1076617129637096,0.08101353103627533
20.772084,3.1215838703900105,0.08069129584279223
20.774472,3.1413725604287017,0.08029012374284486
20.776868,3.1630235815869496,0.0798754211285885
20.779264,3.1805306316255035,0.07954807414978947
20.781652,3.1964548897982215,0.079215444007263
20.784036,3.213170543903857,0.0788901100706392
20.786432,3.2289550324497145,0.0785740856505685
20.78882,3.247672787301767,0.07822258464370385
20.7912,3.2643884414074025,0.0779061761675485
20.793596,3.286319001819371,0.07749838721611502
20.795984,3.310111893350896,0.0770830318433694
20.798368,3.3326940800689226,0.07670671485443933
20.800764,3.3563472019735876,0.07631928036226951
20.803152,3.379860554251392,0.07594932022160253
20.805532,3.40137180578278,0.0756087572336183
20.807928,3.426607719553281,0.07523787020338531
20.810316,3.4483985103383894,0.07487389385537256
20.8127,3.470189301123497,0.07451282796442639
20.815096,3.4918403222817447,0.07417127183450091
20.817484,3.513770882693713,0.07380398480477704
20.819864,3.538494939785016,0.07341656020802988
20.822268,3.5569331553833488,0.0731414381469735
20.824656,3.5701564646753483,0.07294955133686125
20.82704,3.584310939527126,0.07274985435566703
20.829436,3.6009793718045193,0.07255835185557162
20.831824,3.619789674455189,0.07233319764682387
20.834208,3.6420451000912517,0.0721082296812855
20.836604,3.66150702904798,0.07190720385800495
20.838992,3.6798980228180693,0.07172337071659426
20.841372,3.692934340654965,0.07163516390487029
20.843772,3.705039492932083,0.07155617075581905
20.84616,3.7230111778215913,0.07142161851618713
20.84854,3.7354884171510476,0.0713867428635931
20.85094,3.7468947212938644,0.0713693925698405
