Time,Force,Position
20.803948,0.09412473500780066,0.0
20.806344,0.09412473500780066,0.0
20.808732,0.09412473500780066,0.0
20.811112,0.09412473500780066,0.0
20.813508,0.09412473500780066,0.0
20.815896,0.09318604172410391,0.0
20.818276,0.09038501732085052,0.0
20.820672,0.08851515847737543,0.0
20.82306,0.08464319888748352,0.0
20.825444,0.0767670378047579,0.0
20.82784,0.06996181190867079,0.0
20.830224,0.06515868675900054,0.0
20.83262,0.061146957542248394,0.0
20.835016,0.0549933579522192,0.0
20.837404,0.042693686496079235,0.0
20.839784,0.03253588541321634,0.0
20.84218,0.023449019516991965,0.0
20.844568,0.014641692874488016,0.0
20.846952,0.005974135858844274,0.0
20.849348,0.0003796147762559151,0.0
20.851732,0.0,0.0
20.854112,0.0,0.0
20.856512,0.0,0.0
20.8589,0.0,0.0
20.861296,0.0,0.0
20.863692,0.0,0.0
20.86608,0.0,0.0
20.86846,0.0,0.0
20.870856,0.0,0.0
20.873244,0.0,0.0
20.875628,0.0,0.0
20.878024,0.0,0.0
20.880412,0.0,0.0
20.882792,0.0,0.0
20.885188,0.0,0.0
20.887576,0.0,0.0
20.88996,0.0,0.0
20.892356,0.0,0.0
20.894744,0.0,0.0
20.897124,0.0,0.0
20.89952,0.0,0.0
20.901908,0.0,0.0
20.904304,0.0,0.0
20.9067,0.0,0.0
20.909088,0.0,0.0
20.911468,0.0,0.0
20.913864,0.0,0.0
20.916252,0.0,0.0
20.918636,0.0,0.0
20.921032,0.0,0.0
20.923416,0.0,0.0
20.9258,0.0,0.0
20.928196,0.0,0.0
20.930584,0.0,0.0
20.932964,0.0,0.0
20.93536,0.0,0.0
20.937748,0.0,0.0
20.940132,0.0,0.0
20.942528,0.0,0.0
20.944916,0.0,0.0
20.947312,0.0,0.0
20.949708,0.0,0.0
20.9521,0.0,0.0
20.95448,0.0,0.0
20.956876,0.0,0.0
20.959264,0.0,0.0
20.961644,0.0,0.0
20.96404,0.0,0.0
20.966428,0.0,0.0
20.968812,0.0,0.0
20.971208,0.0,0.0
20.973596,0.0,0.0
20.975976,0.0005193844031161252,0.0
20.978376,0.0038322654855672115,0.0
20.98076,0.007145146568018297,0.0
20.983144,0.012599898023746446,0.0
20.98554,0.0141902176135011,0.0
20.987928,0.015780537203255757,0.0
20.990308,0.019325735711184112,0.0
20.992704,0.027759079443481337,0.0
20.995092,0.042990121347947226,0.0
20.997488,0.05966418549138913,0.0
20.999884,0.07633824963483103,0.0
21.002272,0.09073067377813566,0.0
21.004656,0.10256191866758259,0.0
21.007052,0.11713943840812134,0.0
21.00944,0.13343951964135653,0.0
21.01182,0.14680633456839653,0.0
21.01422,0.15803127912215947,0.0
21.016608,0.1731206555418959,0.0
21.018988,0.18220372972238177,0.0
21.021384,0.1931491350224243,0.0
21.023772,0.20208491185213154,0.0
21.026156,0.20873904868170154,0.0
21.028552,0.21804691256374625,0.0
21.03094,0.22120870457968025,0.0
21.033324,0.2267446843943685,0.0
21.03572,0.23451508238095095,0.0
21.038108,0.24177362368833563,0.0
21.040492,0.24242145827865505,0.0
21.042888,0.23426949395038899,0.0
21.045276,0.22560567294292522,0.0
21.047656,0.2174537086146591,0.0
21.050056,0.21595967283170142,0.0
21.05244,0.22317288816871225,0.0
21.054824,0.2270354241768165,0.0
21.05722,0.22600981496055184,0.0
21.059608,0.22749816316990176,0.0
21.061992,0.2340144262304808,0.0
21.064388,0.23689857485056354,0.0
21.066776,0.25216741500148493,0.0
21.06916,0.2632922840327124,0.0
21.071556,0.27562785787743854,0.0
21.073948,0.2870322661623864,0.0
21.076332,0.2993678400071126,0.0
21.078728,0.32115483907648223,0.0
21.081116,0.3462944133326276,0.0
21.0835,0.36454374161798736,0.0
21.085904,0.3797672557985348,0.0
21.088292,0.39592193553886057,0.0
21.090672,0.41179707602546595,0.0
21.093072,0.4259496550193749,0.0
21.09546,0.4403817732670042,0.0
21.09784,0.44736456703640687,0.0
21.100236,0.44657127524561957,0.0
21.102624,0.44554377017148566,0.0
21.105004,0.4452604392020268,0.0
21.107404,0.44511687785942805,0.0
21.109792,0.4408765672253786,0.0
21.112176,0.4341222991657147,0.0
21.114572,0.4197789370009638,0.0
21.11696,0.40664627964971184,0.0
21.11934,0.40021877267201145,0.0
21.12174,0.3947696530823326,0.0
21.124128,0.3837335401339837,0.0
21.126508,0.36603949864032637,0.0
21.128904,0.34848522677352917,0.0
21.131292,0.3362384090116816,0.0
21.133672,0.3271571749815064,0.0
21.136076,0.3212415246830036,0.0
21.138464,0.31933007587733464,0.0
21.140844,0.31658000931050434,0.0
21.14324,0.31154830274353673,0.0
21.145628,0.3105207976694029,0.0
21.148012,0.30846957923687357,0.0
21.150408,0.3073967481923658,0.0
21.152792,0.3086055571479953,0.0
21.155172,0.3110250709171236,0.0
21.157568,0.31693692949988783,0.0
21.159956,0.3271325288292062,0.0
21.162336,0.33839906334516306,0.0
21.164732,0.3515279289806766,0.0
21.16712,0.3566011698022795,0.0
21.16952,0.3624185847285575,0.0
21.171916,0.36888762596089336,0.0
21.1743,0.37242340088703396,0.0
21.176684,0.37367753581303736,0.0
21.17908,0.3760026059256793,0.0
21.181468,0.37902652417262234,0.0
21.183848,0.37995579387453143,0.0
21.186248,0.37930227171060427,0.0
21.188632,0.3842829647335902,0.0
21.191016,0.3948978729434892,0.0
21.193412,0.40537301152652805,0.0
21.195796,0.42436840977443196,0.0
21.19818,0.44322403839547564,0.0
21.200576,0.46259152369571704,0.0
21.202964,0.48461273604843313,0.0
21.205348,0.5060748698937084,0.00800925952504104
21.207744,0.5266058381792054,0.01582653041709111
21.210128,0.5499303031440372,0.023367178499602764
21.212524,0.5752568688552862,0.030604705530107024
21.21492,0.6011425130739757,0.03799824111787922
21.217304,0.6272151487477686,0.04506508266906353
21.219688,0.6567801292351976,0.051849911934357805
21.222092,0.6943535127082939,0.05828177273888357
21.224476,0.7377934287937807,0.06433426099028064
21.22686,0.7815128841329878,0.07023431843590533
21.229264,0.8208088290987807,0.0763299117443348
21.231648,0.8578231340644362,0.08259047379251931
21.234028,0.8970718572019859,0.08880008357733059
21.236428,0.9317573003392611,0.09518414620087452
21.238816,0.9638815642226787,0.10153159149666163
21.241196,1.00028956885265,0.1074808526358144
21.243592,1.027758004937176,0.11366949859991732
21.24598,1.056809232887538,0.11982838477035809
21.248364,1.0887011793454782,0.12571726439324601
21.25076,1.1170082331911653,0.13160614401613394
21.253148,1.1426615599843777,0.12953462368824084
21.255528,1.164170915657896,0.12789093328539342
21.257924,1.1820953787191617,0.12658009439041443
21.260312,1.1948049354740944,0.12586277623604364
21.262696,1.210447758535223,0.12486555970501018
21.265092,1.2223186975289941,0.12445062379832376
21.26748,1.2297661261493513,0.12459360522369783
21.26986,1.23600284995621,0.12492342731010168
21.27226,1.2342311707774012,0.12595780622422623
21.274648,1.2343218227181492,0.1268167457479708
21.277028,1.2384166761517308,0.12735197022908942
21.279424,1.2451652566377869,0.12774299659518365
21.281812,1.247537548578672,0.1283552678805443
21.284196,1.248466818280581,0.12897474220584632
21.286596,1.2448800298104585,0.12990333544584518
21.288984,1.2334246079815292,0.13148114994115756
21.291364,1.2276959491381296,0.1326164158496887
21.29376,1.2221070599215904,0.13367163121827472
21.296148,1.215027926637832,0.13489330826201054
21.298544,1.208740189286992,0.13608743040147073
21.300936,1.2013815167495132,0.13742575893467768
21.303324,1.198678672010926,0.13846844391232974
21.305704,1.1974188495113147,0.13951472965337172
21.308104,1.2045867388779519,0.13974392637671978
21.310488,1.209892297125032,0.14009701291946255
21.312872,1.2193418264918061,0.14007729410205258
21.315264,1.2320041614184962,0.13972539764644148
21.317652,1.2412213733597932,0.1395578535851098
21.320048,1.2523481382488897,0.139007187486981
21.322444,1.254535334592541,0.1392104427001099
21.324832,1.2567225309361918,0.13941220014708872
21.327216,1.2610515976531196,0.13941192310656977
21.329612,1.2723181321690766,0.13889910092654376
21.332,1.2882404944839252,0.13809485317470846
21.33438,1.306676814224388,0.1371204135759895
21.33678,1.3273475521367453,0.13603313053166624
21.339168,1.3422915270635722,0.13537867717046181
21.341548,1.3555129404977029,0.13483403414286474
21.343944,1.3659408572524987,0.13448640376011436
21.346332,1.374646212514598,0.13422449366491715
21.348712,1.386145064456032,0.1337489072939464
21.351108,1.3991341604646854,0.13309422642247165
21.353496,1.4110995431149433,0.1323250864341538
21.355876,1.4131941916599773,0.1323410142949704
21.358276,1.4159404665110689,0.1323746796611172
21.360664,1.4197576765487994,0.13232122786026596
21.363044,1.425437217706086,0.13216986083651489
21.36544,1.4296265147961535,0.13220879442813008
21.367828,1.436841625991034,0.13221933694876126
21.370212,1.4508544353580826,0.13173815777059034
21.372616,1.461142582486018,0.1314869236534414
21.375,1.4667749018150622,0.13152227012753265
21.377384,1.4633278829718,0.13224218016246292
21.37978,1.4553648059565065,0.13319874864156891
21.382168,1.4510338433817092,0.13375211563496592
21.384548,1.4483328945009917,0.13407293830596195
21.386944,1.4497759167399675,0.1340725005381849
21.389332,1.452150104538722,0.13401850311050906
21.391728,1.456526393083893,0.13381880493195697
21.394124,1.4638359479352594,0.13342642330462548
21.396512,1.472076668346404,0.13299256562269401
21.398892,1.4764529568915752,0.13281164547890797
21.401288,1.4821324980488622,0.13267131421610387
21.403676,1.4900464573780434,0.1324885519269166
21.406056,1.4971690207743062,0.13232213006222443
21.408452,1.501218548237514,0.13239424578328332
21.41084,1.5006122479018298,0.13272595808895304
21.413224,1.5061520194322566,0.13261008840252134
21.41562,1.5081068983504302,0.13266338041277317
21.418008,1.5123434172687413,0.13252709952775774
21.420388,1.5190938936126668,0.13230890652514193
21.422784,1.5295690321957056,0.1318979554336109
21.425172,1.5451193074582166,0.13110240305428755
21.427556,1.5654651801464796,0.13002942935021214
21.429956,1.5833896432077448,0.12924755797927773
21.432344,1.6021055022019284,0.12848479959419062
21.434728,1.619610656382613,0.1278416782217091
21.437124,1.635253479443741,0.1272896946461831
21.439512,1.6488942017584525,0.12685714701292192
21.441896,1.6583909529534695,0.12669850495616822
21.444292,1.6673758474692892,0.1265021059349801
21.44668,1.6775242249703644,0.12636838803006334
21.44906,1.6898144728447166,0.12610250682733792
21.45146,1.7038745040400085,0.12559263534523246
21.453848,1.7210075711683557,0.12491266939031072
21.456228,1.733205271244091,0.12446858503414644
21.458628,1.7463341368796044,0.12395927206384769
21.461016,1.7576006713955612,0.12358100709044668
21.463396,1.776596069643465,0.1228418578748005
21.465792,1.7887937697192002,0.12246071588662616
21.468184,1.800619382742598,0.12200736377566246
21.470564,1.8143073268855525,0.12150816904280827
21.472964,1.8301371414017837,0.12090829531066258
21.475352,1.8391692577458467,0.12060839332440537
21.477732,1.8472702085301311,0.12034417420506936
21.480128,1.8513669578215821,0.12027504181874193
21.482516,1.8576055774863103,0.12008398591251424
21.4849,1.8666376938303728,0.11979065398092192
21.487296,1.8783235372269105,0.11941768695767205
21.489684,1.8957361436089784,0.11880926570310309
21.492068,1.9120778148044075,0.11827670336367097
21.494464,1.9284667078280793,0.11759585028095422
21.496852,1.9435051264113925,0.11705247938427824
21.499248,1.9614768113009013,0.11641093807190611
21.501644,1.9727905676451012,0.11601240937708207
21.504032,1.9931836621616075,0.11519176425745183
21.506416,2.0191637500367836,0.11420916734294341
21.508812,2.044072902725321,0.11331140625934576
21.5112,2.0538038672036847,0.11293798170089488
21.51358,2.068982055413858,0.11240548994639077
21.51598,2.0848118699300895,0.11190123298457416
21.518368,2.091190259221678,0.11171460690269232
21.520748,2.0954267781399887,0.11164276388035382
21.523148,2.1123275278428584,0.11112413152673856
21.525536,2.130578751986088,0.11051414403555998
21.527916,2.154324421689369,0.10963646120199266
21.530316,2.1790012569524286,0.10877194976317861
21.5327,2.1996738907226554,0.10805238023565931
21.53508,2.2233270126273204,0.10714899053945777
21.537476,2.2428833852405345,0.10630224751325569
21.539864,2.2629516145329465,0.10549970446664703
21.542244,2.2856735708778326,0.10467784286099609
21.54464,2.302296677184851,0.10393430717908442
21.547028,2.313565107558677,0.10341354852081726
21.549424,2.3344247327840066,0.10263690356044691
21.551828,2.3504887605835845,0.10201091142543597
21.554216,2.358963694278076,0.10157980374855456
21.556596,2.366227923159069,0.10121081405889125
21.558992,2.386947778757538,0.10046758409302192
21.56138,2.4040827417437547,0.09979793520720877
21.56376,2.422009100662889,0.09913808798441741
21.566156,2.4487352585006095,0.09820777660905801
21.568544,2.471596984472357,0.09737328182019198
21.570928,2.4815149404058237,0.09696325594063199
21.573324,2.4883598604062356,0.09665609425721704
21.575712,2.4918522052198715,0.09649677886666103
21.578092,2.492411283727313,0.09641817310613177
21.580488,2.4971143333544474,0.09620271632723942
21.582876,2.496043398167809,0.09624069072028212
21.585256,2.4952047804066475,0.09635704662445467
21.587652,2.493714536339428,0.09645318696069803
21.59004,2.4870093859658766,0.09671905306613919
21.59242,2.4886847256303297,0.09681784983114901
21.59482,2.4969254460414745,0.09667299890533862
21.597204,2.4966459067877538,0.09671063527485495
21.599584,2.497157763466951,0.09674965199870121
21.601984,2.5015340520121225,0.09669796453181485
21.604372,2.5064694190647345,0.0965700094020049
21.606768,2.5024652175719004,0.09667929078709993
21.609164,2.500183577571763,0.0967721050488886
21.611552,2.49617937607893,0.09688073698030679
21.613932,2.489102138653041,0.09707548616669084
21.616328,2.488543060145601,0.097149676157957
21.618716,2.4922677223847143,0.0970781390895397
21.621096,2.501858917236217,0.09686580717291747
21.623492,2.513172673580417,0.09663936106158602
21.62588,2.5232757251111186,0.09646451959660485
21.62826,2.5296541144027063,0.09636121029840507
21.630656,2.5351013381345155,0.09627141094193935
21.633044,2.5417592666798248,0.096125357220418
21.63544,2.5486967344788534,0.09594265593206747
21.637836,2.5577760726511594,0.0956811162864335
21.640224,2.5627114397037714,0.09555368951022983
21.642604,2.562431900450051,0.09559063950685986
21.645004,2.569461916047697,0.09550994578376974
21.647392,2.5792854283246776,0.09538158644283279
21.649772,2.5880380054150196,0.09528820190852666
21.652168,2.5945089425052252,0.09528166585763834
21.654556,2.611921548887293,0.09500700478793507
21.65694,2.631615795269498,0.09465653276437572
21.659336,2.65345191202498,0.09424716965355488
21.66172,2.6750084895267414,0.09386978519008062
21.664104,2.6911178432966936,0.09357224192546121
21.6665,2.7078788233727034,0.09329591573246261
21.668888,2.718493731582602,0.09318335537515084
21.671272,2.728457013486443,0.09305449730342974
21.673668,2.7428438057636986,0.09278546134045289
21.676056,2.7628175913996245,0.09243535493428832
21.678436,2.7898686144614384,0.09192536574951676
21.680832,2.8151970760305565,0.09142915130375953
21.68322,2.840897624652012,0.09098795394235899
21.685604,2.8673895692063858,0.09055016702883395
21.688,2.8924384915217827,0.09008382791634284
21.690392,2.9162767090236814,0.08965402168349024
21.692772,2.934527933166911,0.08932040307130429
21.695168,2.9518479917503613,0.08901031562194152
21.697556,2.972660395147448,0.08858865845642737
21.699952,2.998547935224007,0.08805593859971625
21.702348,3.0136335756355637,0.08773997322913278
21.704736,3.0247150145542863,0.08751021569798607
21.707116,3.0344459790326503,0.08734293996665077
21.709512,3.0436650868318167,0.08714009487541896
21.7119,3.0548862953773996,0.08689546695605922
21.71428,3.068389143923119,0.08658621920675118
21.71668,3.086035963588533,0.08618134464433674
21.719068,3.098607646574475,0.08587829262454655
21.721448,3.1068955888138627,0.08568966759659413
21.723844,3.1083858328810825,0.08561650351060114
21.726232,3.1024267524700755,0.08563731262997434
21.728616,3.0963279024322077,0.085673633309307
21.731012,3.090788130901781,0.08564875194998545
21.733396,3.085807437878795,0.08556309946225034
21.735792,3.0885556085877557,0.08536058508930937
21.738188,3.094656354483493,0.08506532431029624
21.740576,3.100757100379229,0.08476784830081921
21.74296,3.103272953662713,0.08450006460016889
21.745356,3.100294361386144,0.08437668679900946
21.747744,3.091309466870324,0.08436235929267207
21.750124,3.087120169780256,0.08427911627095752
21.75252,3.086003908623244,0.08413328424386159
21.754908,3.083304855600396,0.08397945330082694
21.757292,3.0844702344435198,0.0837690535312651
21.759688,3.0887086492197002,0.0835014479859457
21.762076,3.0888030928761867,0.0833195537133717
21.764456,3.0859642702264782,0.08318248549592192
21.766852,3.0882005842562417,0.08295010237887891
21.76924,3.089505732726227,0.08272545652191766
21.771624,3.0977483489952404,0.08238515159939416
21.77402,3.1062232826897316,0.08210150820714956
21.776408,3.119354044183114,0.08176831856015065
21.778792,3.1304827049300807,0.08147310342042281
21.781188,3.1390501864231886,0.0812728628896221
21.783576,3.138538329743991,0.08123935803506963
21.785956,3.1396092649306295,0.081215275421913
21.788356,3.142402761609964,0.08118584406241391
21.790744,3.1467790501551356,0.08116506116811147
21.793124,3.1562304753797794,0.08105142893134512
21.79552,3.1694065628435357,0.08089487526023817
21.797908,3.1847245206805694,0.08069474300105839
21.800292,3.1948275722112704,0.08060057560351734
21.802688,3.203719918928473,0.08054366755745716
21.805076,3.2104703952723987,0.08053737674659583
21.807472,3.2127973612429095,0.0806408789971303
21.809868,3.2155436360940013,0.08070215913605826
21.812256,3.2192210765048714,0.08075386653249515
21.81464,3.2238296824755204,0.08079632080826342
21.817036,3.231511324379224,0.08078198622866341
21.819424,3.2350489951632344,0.0808478464445861
21.821804,3.2439413418804364,0.08079768263526674
21.8242,3.2484574000524677,0.0807666931230342
21.826588,3.257629286023391,0.08069306623290341
21.828972,3.2689430423675905,0.08057357934063725
21.831368,3.2866824098316214,0.08032031077917957
21.833756,3.3017680502431785,0.0800836912176663
21.83614,3.315410668415759,0.07982431308185145
21.838536,3.3324058617751158,0.07949073236103624
21.840924,3.3455366232684987,0.07920686287321897
21.843304,3.36001785920224,0.07887931054836626
21.845704,3.3712862895760667,0.07861883259053579
21.848092,3.38469659032317,0.07831070763845242
21.850476,3.4011799270033283,0.0779503041655076
21.852868,3.4158009325639305,0.07760630825362363
21.855256,3.429910081445335,0.07722585803048634
21.857636,3.444670856632797,0.07686392971401501
21.860032,3.4626444373801744,0.07644410419655012
21.86242,3.4787556870079954,0.07604504227461896
21.8648,3.497008807009094,0.07561358429725265
21.867196,3.517683336637189,0.07512034201641658
21.869584,3.532491333652894,0.07469924228606616
21.87198,3.551023992907713,0.07425512364627497
21.874376,3.56476105473678,0.07386416467523452
21.876764,3.5758443895133714,0.07348086658522011
21.879144,3.582504213916549,0.07319130841066206
21.881544,3.5882328727599484,0.07290827837335206
21.883932,3.591540121976351,0.07268617109667155
21.886312,3.5897722345132808,0.07253656970806793
21.888708,3.590006447796627,0.0723610808436163
21.891096,3.587307394773778,0.07221832973065817
21.893476,3.5840964850717323,0.07204407581646703
21.895872,3.5828876761161026,0.07184430852592939
21.89826,3.5828895719739724,0.07161517263480803
21.900644,3.5861042733917565,0.07133160783357716
21.90304,3.5942543418621535,0.07099541354059218
21.905428,3.6044065110789676,0.07063766650016481
21.907824,3.6104147091760876,0.07034264363260413
21.91022,3.6182852383927635,0.07003876434985076
21.912608,3.622011796489746,0.06979519595857707
21.914988,3.620383678653536,0.06963780893758423
21.917384,3.623411388616218,0.06945293394387711
21.919772,3.6235058322727043,0.06929766984759173
21.922152,3.6225293407425516,0.06915845672253301
21.924548,3.625277511451513,0.06899811354197102
21.926936,3.6278859125336136,0.06884843671758469
21.929316,3.634218975854828,0.06867854335647411
21.931716,3.6485604421617093,0.0684197053016879
21.934104,3.665695405147926,0.06814391102629477
21.936484,3.686974339253836,0.06782145720756416
21.93888,3.708113503732886,0.06750937557407635
21.941268,3.7337687263839676,0.06718968649490337
21.943652,3.7614260497814658,0.06685604382429979
21.946048,3.78465986280555,0.06659990866479341
21.948432,3.805332496575776,0.06641278032490386
21.950828,3.8225127855323673,0.06629852167607644
21.953224,3.8389016785560393,0.06618042499484518
