Time,Force,Position
22.236756,0.17169947193297358,0.0
22.239136,0.1859011686129949,0.0
22.241536,0.19446865010610317,0.0
22.243924,0.19852007342718,0.0
22.246304,0.2015005615616183,0.0
22.248704,0.20219940969591937,0.0
22.251092,0.19982522189716503,0.0
22.253476,0.20052407003146608,0.0
22.25588,0.2083001555916562,0.0
22.258268,0.2150053059652078,0.0
22.260648,0.2217104563387594,0.0
22.263044,0.229858628951287,0.0
22.265432,0.23428213932470138,0.0
22.267812,0.23842611044439527,0.0
22.270208,0.23549284413820015,0.0
22.272596,0.22641350596589419,0.0
22.274976,0.21319019667389436,0.0
22.277376,0.1990898120731638,0.0
22.27976,0.18191639153937786,0.0
22.282144,0.16734260780701907,0.0
22.28454,0.15570209038085547,0.0
22.286928,0.14434111220841225,0.0
22.289308,0.13754341403624357,0.0
22.291708,0.12730746130148646,0.0
22.294092,0.11836789275604075,0.0
22.296472,0.1119895034644527,0.0
22.298868,0.10882391973278027,0.0
22.301256,0.10286483932177286,0.0
22.30364,0.08983538990768082,0.0
22.306036,0.07773023763056264,0.0
22.308424,0.07070022203291673,0.0
22.310804,0.0599455441961575,0.0
22.313212,0.049989130715120844,0.0
22.315596,0.04017248686094438,0.0
22.31798,0.03235794375318477,0.0
22.320376,0.02761643657848056,0.0
22.322764,0.025808195709971515,0.0
22.325144,0.025808195709971515,0.0
22.32754,0.02631318396636476,0.0
22.329928,0.02571564791135445,0.0
22.332324,0.025483330485877184,0.0
22.33472,0.02153321924409108,0.0
22.337108,0.017303568748584547,0.0
22.339488,0.019251579243953806,0.0
22.341884,0.02204507592328877,0.0
22.344272,0.02535042928182142,0.0
22.346652,0.025442977080438474,0.0
22.349048,0.027258086371751963,0.0
22.351436,0.03185982391959598,0.0
22.35382,0.03567703395732631,0.0
22.356216,0.03842330880841813,0.0
22.358604,0.04517378515234363,0.0
22.360984,0.057923695312715254,0.0
22.36338,0.07067360547308689,0.0
22.365768,0.08803212160410696,0.0
22.368152,0.11256042295963317,0.0
22.370548,0.13964990356901708,0.0
22.372936,0.1676705497381793,0.0
22.37532,0.1874573439190013,0.0
22.377716,0.2106823926624117,0.0
22.380104,0.22767569016389874,0.0
22.382488,0.2488986381608923,0.0
22.384884,0.26839902466518945,0.0
22.387272,0.2870223358607559,0.0
22.389668,0.3067165822429608,0.0
22.392064,0.3211959223188333,0.0
22.394452,0.3387482983277612,0.0
22.396836,0.3532276384036337,0.0
22.399232,0.37105955366628196,0.0
22.40162,0.38460772818237615,0.0
22.404,0.39629357157891376,0.0
22.4064,0.40318381754969945,0.0
22.408788,0.40616240982626856,0.0
22.411172,0.4148205432601246,0.0
22.413568,0.4142614647526838,0.0
22.415956,0.39829188060959203,0.0
22.418336,0.3812041394516187,0.0
22.420732,0.35624776493483823,0.0
22.42312,0.34768028344172996,0.0
22.425504,0.3365988445230072,0.0
22.4279,0.3309646293360941,0.0
22.430288,0.32109389523087006,0.0
22.432672,0.31611130635001494,0.0
22.435068,0.3109417260140564,0.0
22.437456,0.3004174697449052,0.0
22.439836,0.29338555828939,0.0
22.442236,0.284351546087458,0.0
22.444624,0.2745261379526079,0.0
22.447008,0.25250113388415324,0.0
22.449404,0.241370577279318,0.0
22.451792,0.2352679355257119,0.0
22.454176,0.23410066082471787,0.0
22.456572,0.23353968645940773,0.0
22.45896,0.2178949675404104,0.0
22.461344,0.20508907127112197,0.0
22.46374,0.20448087507756874,0.0
22.466128,0.20242965664503954,0.0
22.468512,0.20945777638481622,0.0
22.470908,0.2048926005266724,0.0
22.473296,0.1957641446682541,0.0
22.475676,0.18579707104867452,0.0
22.478076,0.1820213952655796,0.0
22.480464,0.1765703798180314,0.0
22.482848,0.16828054172077433,0.0
22.485244,0.16436699216868844,0.0
22.487632,0.16455019190805334,0.0
22.490016,0.1621722123935605,0.0
22.492412,0.16594030474517846,0.0
22.494804,0.18605196415009478,0.0
22.497184,0.19624756347941313,0.0
22.499584,0.19526917609139163,0.0
22.501972,0.19331240131534871,0.0
22.504352,0.19265887915142157,0.0
22.506752,0.20713632336942484,0.0
22.50914,0.224314716468146,0.0
22.51152,0.23767589952913684,0.0
22.513912,0.24982637777662892,0.0
22.5163,0.2592759071434031,0.0
22.51868,0.27109962430893164,0.0
22.521084,0.2910242922587446,0.0
22.523468,0.3156992316639355,0.0
22.525848,0.33246021173994517,0.0
22.528252,0.34572884700231893,0.0
22.53064,0.36011374342170516,0.0
22.53302,0.37519748797539243,0.0
22.535416,0.38511354805099035,0.0
22.537804,0.3957284562608893,0.0
22.540184,0.4042940418961283,0.0
22.54258,0.4078770386505121,0.0
22.544964,0.41527724544262623,0.0
22.54736,0.4288235241008512,0.0
22.54976,0.4402751542140423,0.0
22.552144,0.44623233876718044,0.0
22.554528,0.4477660129469042,0.0
22.556924,0.4515813271267654,0.0
22.559312,0.45581595018720716,0.0
22.561692,0.46219244362092593,0.0
22.564096,0.4727129081743386,0.0
22.566484,0.4876568831011656,0.0
22.568864,0.499202956870843,0.0
22.57126,0.504323419520689,0.0
22.573648,0.514983653700962,0.0
22.576028,0.5289492412397676,0.0
22.578432,0.5446846120995128,0.0
22.58082,0.5579060255336433,0.0
22.5832,0.5709876693409137,0.0
22.585596,0.5895165368799938,0.0
22.587984,0.6096754181131534,0.006106174280616538
22.590364,0.6266687156146404,0.012234022242721496
22.592768,0.6451522571833465,0.018082570253061838
22.595156,0.663216489871472,0.02404872614683675
22.597536,0.6848656151718506,0.029852100496208647
22.59994,0.7132198908457807,0.03530581542057982
22.602328,0.7384085827880387,0.040880703258082754
22.604708,0.759033994730022,0.046684077607454647
22.607104,0.7785412496571235,0.052711171412791566
22.609492,0.7988399005171434,0.05864831827102123
22.611872,0.8155536587649099,0.0645854651292509
22.614276,0.8273320499600646,0.07065025659004813
22.616664,0.8392029889538362,0.07675168589348005
22.619044,0.8535878853732223,0.08288873729976035
22.62144,0.8645276588072158,0.08915744812537998
22.623828,0.8752351148157318,0.09529449953166028
22.626208,0.8862221100779684,0.10125289611335161
22.628604,0.8974414227656822,0.10737080205013885
22.630992,0.9117337713864513,0.11329812499388064
22.633376,0.9248626370219649,0.11890525918756334
22.635772,0.9325442789256687,0.11853678599002956
22.63816,0.941948482322069,0.11808506052783375
22.64054,0.9509333768378887,0.11784364671117611
22.642936,0.963270846540484,0.1172323592246451
22.645324,0.9718836540039663,0.1168799417233367
22.647704,0.9759331814671737,0.1170711224332192
22.6501,0.9823568967291356,0.1172248534645057
22.652488,0.9938557486705699,0.11693288706525237
22.654884,1.0052620528133869,0.11638073259833227
22.65728,1.0137350906500089,0.11605993829302336
22.659668,1.020997423673132,0.11588689378571655
22.662048,1.0313327926293105,0.11542947795840859
22.664444,1.039945600092793,0.11503513131467735
22.666832,1.0489777164368557,0.11450545554188632
22.669216,1.0560077320345014,0.11410749169439767
22.67162,1.062758208378427,0.11382808435729887
22.674008,1.0710914765881887,0.1135564397388437
22.676388,1.0799838233053913,0.1130811255406162
22.678784,1.0847321989029,0.11299872394135946
22.681168,1.0865000863659704,0.11342362641199011
22.683552,1.0894314568142962,0.11397683408165483
22.685948,1.0912918920759835,0.11464104588603767
22.688332,1.0906383699120563,0.11539511144540782
22.690712,1.0857011070015752,0.11657789465347144
22.693112,1.0815552400240118,0.11776932150009599
22.6955,1.0798307826734461,0.11863798811339431
22.69788,1.079084712710902,0.11915111491117614
22.700276,1.0730311886434083,0.11992054564106397
22.702664,1.0701432483075872,0.12062054242984925
22.70506,1.07153904871832,0.12090206233687241
22.707456,1.0782895250622453,0.1206963825686454
22.709844,1.080896030286477,0.1208325515654972
22.712224,1.084433701070487,0.12091193942376087
22.714624,1.0856897318543597,0.12123397709155793
22.717012,1.0949541656238997,0.1209468993878215
22.719392,1.1026358075276037,0.12068069154998443
22.721788,1.1064530175653338,0.12067588139535196
22.724176,1.1090595227895654,0.12080900610564622
22.726556,1.1178120998799077,0.1204615736127998
22.728956,1.1252614243581343,0.12002097317983086
22.731344,1.1374137984634956,0.11906797381675407
22.733728,1.1495661725688568,0.11810359951900318
22.736132,1.163021799286334,0.11718921471830633
22.738516,1.17782790044417,0.11606047434338096
22.7409,1.193193080109447,0.11475168016812336
22.743304,1.2073475549612251,0.11360928769648837
22.745688,1.2217343472384805,0.11269279783764957
22.748072,1.2384953273144905,0.11173319398167027
22.750468,1.2524628107111653,0.1109521155088113
22.752856,1.2624260926150066,0.11048998128612939
22.75524,1.2671744682125148,0.11044812182541797
22.757636,1.2748561101162186,0.11021474642359724
22.76002,1.286821492766477,0.10966843741755801
22.762404,1.301068515416872,0.1089080738189156
22.7648,1.3111715669475734,0.10849139330797827
22.767188,1.3228574103441109,0.10806492950910017
22.769568,1.3385474552334824,0.10741438083111651
22.771972,1.3563793704961307,0.10660699540653888
22.77436,1.3660631131462513,0.10630778112439625
22.77674,1.3833359499014588,0.10568492415594184
22.779136,1.3972562114698905,0.10534617886047408
22.781524,1.413318343411599,0.10487938598833732
22.783904,1.4262148916216355,0.10440102744015191
22.7863,1.4377609653913126,0.10405442789752853
22.788688,1.4526123925195227,0.10368965609308585
22.791068,1.4676035892745931,0.10328730403215661
22.793464,1.4770077926709935,0.10308758657460097
22.795852,1.4864119960673936,0.10289040552842793
22.798232,1.4953043427845962,0.10262208622426168
22.800628,1.5047085461809964,0.10240759826148099
22.803016,1.517325555137312,0.10198261009511789
22.8054,1.5300823337204879,0.10153230182184404
22.807796,1.5394865371168884,0.10135121672593962
22.810184,1.5466091005131513,0.10133416107917631
22.812568,1.5550821383497733,0.10119558525568004
22.814964,1.5636949458132554,0.1010290609179392
22.817352,1.5683035517839041,0.10105597505755091
22.819748,1.5794303166730006,0.10089404239457307
22.822144,1.5979138582417067,0.10035054090033085
22.824532,1.609320162384524,0.10013859129003225
22.826912,1.6217974017139798,0.09987193596122872
22.829308,1.6342746410434354,0.09962308537467575
22.831696,1.6512679385449225,0.09927055764186585
22.834076,1.6736159119796026,0.0986694948799589
22.836476,1.6925187624288893,0.09813841526927893
22.838864,1.714215109557511,0.09755147018932801
22.841244,1.7435005507912194,0.09673790981131296
22.84364,1.7699924953455932,0.09598248685069305
22.846028,1.7982070013926632,0.09520804465761643
22.848408,1.8276322122532318,0.0943426160522892
22.850812,1.8586402149796366,0.09354006282185733
22.8532,1.887785886586485,0.09278549254342852
22.85558,1.9139982918871379,0.09210874399438984
22.857976,1.9434235027477067,0.09128341561846422
22.860364,1.9664231024884444,0.09074001127949777
22.862748,1.9864894359229868,0.09028769006811678
22.865144,2.006415999730669,0.08984199863220882
22.867528,2.011955771261096,0.08985229168301169
22.869912,2.0149343635376646,0.09004080336554618
22.872308,2.019542969508313,0.09007709023451312
22.874696,2.026293445852239,0.09002045186529263
22.877092,2.027829015889832,0.09017819874357708
22.879488,2.0282936507407867,0.09038168274436671
22.881876,2.02233267447191,0.09086505086984523
22.884256,2.0131588926431174,0.09150426434623074
22.886652,2.0013313837618507,0.09217252237865543
22.88904,1.9856394430146103,0.09293749598718695
22.891424,1.9748828693199818,0.09353929817524961
22.89382,1.9659886267449096,0.094083587604887
22.896208,1.95658252749064,0.09457331517699236
22.898588,1.938376629317785,0.09533381980747446
22.900984,1.9280393645037377,0.09582751721188248
22.903372,1.920775135622745,0.0962215549202136
22.905752,1.9115088059953356,0.09667125481557175
22.908148,1.907597152301119,0.09691665498329144
22.910536,1.9086208656595143,0.09701452850848406
22.91292,1.9140680893913247,0.09692004379511776
22.915316,1.9300376735344162,0.0965495438093265
22.917704,1.9453556313714502,0.09615245047784844
22.9201,1.958252179581486,0.09588446752379093
22.922504,1.96579405185833,0.09583780338149943
22.924888,1.9776196648817275,0.09560728537062615
22.927272,1.992658083465041,0.09525899780883491
22.929668,2.011980242794908,0.09473040570631845
22.932052,2.037308704364026,0.09400044675057476
22.934436,2.0602157563061465,0.09339086339613507
22.936832,2.0863356138081826,0.09266522226688702
22.93922,2.1085910394442453,0.0920618860702511
22.9416,2.1272615724680546,0.09152935351267304
22.943996,2.1443020917977846,0.09112435158443545
22.946384,2.167348913366766,0.09049868965838659
22.948764,2.1803852312036622,0.09021653579833551
22.95116,2.194352714600337,0.08992202095031186
22.953548,2.2123243994898454,0.08952106721168653
22.955932,2.2321584154989105,0.08910055614859481
22.958328,2.250130100388419,0.08873258496712666
22.960712,2.266471771583848,0.08849959628744661
22.963096,2.280299485353663,0.08828698777790747
22.965492,2.2972002350565335,0.0879975764685345
22.96788,2.3182449558790967,0.0875861724374608
22.970276,2.343573417448215,0.08702857047653355
22.972672,2.3686223397636126,0.08651810188445098
22.97506,2.3878047294666196,0.08614818080058939
22.97744,2.4049850184232104,0.085833359868273
22.979836,2.4233760121933,0.08548895459662251
22.982224,2.4451195811501645,0.08502308812278814
22.984608,2.462579409360475,0.08469134153025772
22.987004,2.4839036694367596,0.08429400412760404
22.989392,2.5038774550726846,0.08395637448817717
22.991772,2.5261328807087473,0.08352985426291547
22.994168,2.5493194719045884,0.0830980802813253
22.996556,2.5727856023541498,0.08260646944988335
22.99894,2.593737775378097,0.08212720607589302
23.001336,2.6086836461627927,0.08179428003079883
23.003724,2.619904854708376,0.08152119821983832
23.006104,2.630706754373379,0.08130493193134744
23.0085,2.6375516743737903,0.0810626334216995
23.010888,2.6419751847472046,0.08091938089172727
23.013284,2.642394493627785,0.08086533050733642
23.01568,2.6398805362021704,0.08086711309046767
23.018068,2.6362956435899174,0.08089823853005383
23.020452,2.635271930231522,0.08081740069749849
23.022848,2.6381126487391007,0.08067284372104666
23.025236,2.642024302433317,0.08050047632529121
23.027616,2.6368566179552277,0.08051727639504563
23.030012,2.6336910342235553,0.08049308679941199
23.0324,2.630013593812685,0.08042886531715583
23.03478,2.6215405559760634,0.08043709452009279
23.037176,2.617491028512856,0.08031516294391648
23.039564,2.616002680303506,0.08008879469151368
23.041948,2.613862705788098,0.07984163689721505
23.044344,2.6183806598179986,0.07950916423742219
23.046732,2.6264835064601524,0.0791581455093345
23.049112,2.6398012594086384,0.07869719577624891
23.051508,2.652979242730264,0.07824956200568782
23.053896,2.663783038253136,0.07777903679623749
23.056292,2.6776126478808195,0.07734857885381513
23.058688,2.693723897508641,0.07684743059111715
23.061076,2.711837247882879,0.07631102140144011
23.063456,2.7330236341901717,0.07571730365979476
23.065852,2.7524874590047688,0.07512828903935635
23.06824,2.7656654423263944,0.07468278312733248
23.07062,2.7736285193416883,0.07434691664066886
23.07302,2.780380891543483,0.07405465056915982
23.075408,2.793930961917446,0.07365560502627476
23.077788,2.8054789315449926,0.073302041411657
23.080184,2.822613894531209,0.07289822514139688
23.082576,2.8436132893833994,0.07244255881983258
23.084956,2.8612601090488137,0.07208353552275816
23.087352,2.872201778340676,0.07190793191040346
23.08974,2.8817929731921796,0.07179035829885813
23.092124,2.8868681098716524,0.07170214056708804
23.09452,2.8890099802449294,0.07165510494004625
23.096908,2.886728340244792,0.07171696238670379
23.099292,2.889242297670406,0.07172441792735582
23.101688,2.897622787708411,0.07165821376409749
23.104072,2.9064225866269964,0.07154746857560708
23.106456,2.9142912199858038,0.07144546567758975
23.108856,2.9209491485311125,0.07138078593543722
23.111244,2.925465206703144,0.07136083235824099
23.113624,2.9298414952483145,0.07135556681077788
23.116024,2.941015481965655,0.07127235760344901
23.118412,2.957544144616187,0.07107845665479905
23.120792,2.9731416417069414,0.07088894820451597
23.123192,2.9890186780514156,0.07067557703441811
23.12558,3.001822678462835,0.07051167003364184
23.12796,3.0088999158887244,0.07040566917122362
23.13036,3.0138352829413364,0.07034309476225521
23.132748,3.02370601704656,0.07021963729280659
23.135128,3.0409335278313936,0.06996438449445888
23.137524,3.062584548989642,0.06961996648293302
23.139912,3.0858183620137263,0.0692934470906002
23.142296,3.108121009478032,0.06897185512309321
23.144692,3.1316343617558364,0.06861140264859038
23.14708,3.1502123469810295,0.06831581229534665
23.149476,3.1625044907132507,0.0681307520220167
23.151872,3.1737256992588336,0.06796708451383936
23.15426,3.183875972617778,0.06782327626341934
23.15664,3.194305785230442,0.06765159812490924
23.15904,3.207808633776162,0.06743788127342158
23.161428,3.2282489501209115,0.06715038549629
23.163812,3.243893669039909,0.06690831128994504
23.166208,3.2566051216527114,0.06669869317211867
23.168596,3.2746712501987068,0.06640171084585927
23.170976,3.291666443558063,0.06612853840085352
23.173372,3.3108035072906965,0.06581705883845074
23.17576,3.3310115062099683,0.06548463570899016
23.178144,3.352569979569599,0.06510977440022576
23.18054,3.371474725876755,0.06474602087866246
23.182928,3.389308536997272,0.0644122855448281
23.185308,3.398994175505262,0.06417775126384268
23.187704,3.406957252520556,0.06393941547295602
23.190092,3.417853595842044,0.06367736726574995
23.192476,3.4299606439770316,0.0633881785785415
23.194872,3.4431386272986573,0.06308088361048661
23.19726,3.456596149874004,0.06274294687482644
23.199644,3.4694020461432924,0.062383999334367925
23.20204,3.4872830790920535,0.0619722218712637
23.204428,3.508097378347009,0.06154257315108529
23.206812,3.5229053753627144,0.06117448456606087
23.209208,3.5277028686463354,0.06090843044576534
23.211596,3.5325003619299564,0.0606408394658952
23.21398,3.5380892511464954,0.06038143665404623
23.216376,3.539673938870201,0.06016503361152835
23.21876,3.538325360287711,0.059970656457095275
23.221144,3.536837012078361,0.05978853650197005
23.22354,3.5402840309216232,0.05956775024816917
23.225928,3.5426601145782466,0.05936330459062284
23.228324,3.5447566589811497,0.05918417667482872
23.23072,3.541778066704581,0.05905602769535126
23.233108,3.5457369422270406,0.058871335550641016
23.235488,3.5515581488690566,0.05868132554273482
23.237888,3.554446089204878,0.05851243581842558
23.240272,3.558265195100478,0.05834291730132463
23.242656,3.564505710623075,0.058123531465158904
23.245052,3.574890197265366,0.05786046461697615
23.24744,3.590861677266327,0.05758838380113462
23.249824,3.6037601213342323,0.057351426533715465
23.25222,3.6094415583493884,0.05718473889228758
23.254608,3.621269067230656,0.05696097819000731
23.256992,3.638311482418256,0.05667912826199692
23.259388,3.6574957679791322,0.056371581161186714
23.261776,3.676819823166869,0.056053347568862176
23.26416,3.691580598354331,0.05580770174842346
23.266556,3.7092746398479886,0.05554400690933521
23.268948,3.728970782088062,0.05526686569212892
23.271328,3.740378982088749,0.05507502469400607
23.273728,3.753789282835853,0.05487031005344886
23.276116,3.7637544605975624,0.05465015576487283
23.2785,3.773859407986133,0.05441560001197366
23.280896,3.77982038425501,0.054224753572442816
23.283284,3.784850194964109,0.05403676106571128
23.285668,3.790159544926927,0.05382530988036441
23.288064,3.7913249237700524,0.053655420873306055
23.290452,3.7871356266799845,0.05355089187104202
23.292836,3.7825270207093356,0.053480983347644444
23.295232,3.7691186158201018,0.05345837886389289
23.29762,3.752916714251533,0.053439308303965365
23.300004,3.7422092582430166,0.05334471041879118
23.3024,3.7281492270477243,0.05329934003627271
23.304788,3.714880591785351,0.053262824629308834
23.307172,3.7014721868961167,0.053236344829586904
23.309568,3.687924012380023,0.05322055152137929
23.311956,3.6821519234241187,0.05309668951194813
23.31434,3.6755884385352964,0.05296275869736263
23.316736,3.669304492900195,0.052807742493581035
23.319128,3.6694461583849236,0.052580831782586934
23.321508,3.664512687190181,0.05239082226522194
23.323908,3.6638157349137495,0.052228824981368174
23.326296,3.666191818570373,0.05204202677452607
23.32868,3.669778607040495,0.051831880524292044
23.331076,3.6741567914435356,0.051632610882116105
