Time,Force,Position
23.56616,0.0,0.0
23.568552,0.0,0.0
23.570932,0.0,0.0
23.573328,0.0,0.0
23.575716,0.0,0.0
23.5781,0.0,0.0
23.580496,0.0,0.0
23.582884,0.0,0.0
23.585264,0.0,0.0
23.58766,0.0,0.0
23.590044,0.0,0.0
23.592428,0.0,0.0
23.594824,0.0,0.0
23.597212,0.0,0.0
23.599592,0.0014389059339490447,0.0
23.601988,0.007813178920510111,0.0
23.604376,0.01432722153393139,0.0
23.60676,0.021632660080270774,0.0
23.609156,0.027867163439971632,0.0
23.611544,0.03410166679967249,0.0
23.613928,0.03940500459959503,0.0
23.616324,0.046710443145934415,0.0
23.618712,0.05229332019957737,0.0
23.621104000000003,0.05866759318613844,0.0
23.6235,0.06676442766539593,0.0
23.625888,0.07285916139823657,0.0
23.628272,0.08016459994457596,0.0
23.630668,0.08733026886405515,0.0
23.633056,0.09235406741025726,0.0
23.635436,0.094304830023404,0.0
23.637832,0.09430483002340401,0.0
23.64022,0.09746629745004948,0.0
23.642604,0.09746629745004948,0.0
23.645,0.09746629745004948,0.0
23.647388,0.09602739151610043,0.0
23.649772,0.08965311852953937,0.0
23.652168,0.08313907591611809,0.0
23.654556,0.0758336373697787,0.0
23.656936,0.06959913401007785,0.0
23.659332,0.063364630650377,0.0
23.661720000000003,0.058061292850454464,0.0
23.6641,0.050755854304115076,0.0
23.6665,0.04517297725047211,0.0
23.668888000000003,0.03879870426391104,0.0
23.671268,0.030701869784653547,0.0
23.673668,0.0246071360518129,0.0
23.676056,0.017301697505473508,0.0
23.678452,0.01013602858599433,0.0
23.680848,0.005112230039792212,0.0
23.683236,0.004740142987454732,0.0
23.685616,0.008181149667820627,0.0
23.688016,0.0075295233617627255,0.0
23.690404,0.011250069295849041,0.0
23.692784,0.015110384856795568,0.0
23.69518,0.022183505977657683,0.0
23.697568,0.029536166352240222,0.0
23.699952,0.03609743079390465,0.0
23.702352,0.04079636411601244,0.0
23.704736,0.04856833337117561,0.0
23.70712,0.05433820187992194,0.0
23.709516,0.06211017113508511,0.0
23.711904,0.0709530755768868,0.0
23.714288,0.07858527520518976,0.0
23.716688,0.08514653964685419,0.0
23.719076,0.09277873927515715,0.0
23.721456,0.099619542970542,0.0
23.723856,0.10739151222570517,0.0
23.726244,0.11730535185414541,0.0
23.728624,0.12400638592267005,0.0
23.731024,0.13019967961702394,0.0
23.733412,0.13560157737845974,0.0
23.735796,0.14165510144595345,0.0
23.738192,0.14514744625958947,0.0
23.74058,0.14649792069994844,0.0
23.742964,0.14156255364733641,0.0
23.74536,0.13513694252750522,0.0
23.747748,0.13029412327351025,0.0
23.750132,0.12824480069885025,0.0
23.752528,0.12047283144368708,0.0
23.754916,0.11470296293494077,0.0
23.7573,0.10693099367977758,0.0
23.759696,0.09808808923797588,0.0
23.762088,0.09072941670049714,0.0
23.764468,0.08644378009607379,0.0
23.766864,0.07881158046777081,0.0
23.769256,0.0738270957290464,0.0
23.77164,0.06605512647388326,0.0
23.774044,0.05706644024232513,0.0
23.776432,0.0504991636377645,0.0
23.778812,0.04523513964531967,0.0
23.781216,0.03890018046623629,0.0
23.783604,0.031261968675037125,0.0
23.785984,0.02911820244389082,0.0
23.788388,0.029395845839742,0.0
23.790776,0.03540025222112331,0.0
23.793156,0.04182396748308525,0.0
23.79556,0.04731651718526887,0.0
23.797948,0.0529488365143127,0.0
23.800328,0.06905217812136837,0.0
23.802724,0.08962435607221227,0.0
23.805112,0.10875351178408017,0.0
23.807492,0.12550847969719373,0.0
23.809888,0.13617060973533587,0.0
23.812276,0.1377534016011721,0.0
23.814656,0.15162232503633363,0.0
23.817056,0.1521814035437745,0.0
23.81944,0.15524842731393368,0.0
23.821824,0.1565516799260495,0.0
23.82422,0.16395378257603288,0.0
23.826608,0.1684698407480643,0.0
23.828988000000003,0.1680505318674837,0.0
23.831384,0.1686549363452984,0.0
23.833772,0.1635858118287224,0.0
23.836152,0.1606034278364148,0.0
23.838556,0.156038251978271,0.0
23.840944,0.15026237130662845,0.0
23.843324,0.14555742582162445,0.0
23.84572,0.1408052585083773,0.0
23.848108,0.1277198229853684,0.0
23.850492,0.1115632473871734,0.0
23.852888,0.09736155070715208,0.0
23.855276,0.09382198406527291,0.0
23.85766,0.0963340456330182,0.0
23.860056,0.11616616578421411,0.0
23.862444,0.11970194071035478,0.0
23.864828,0.14041800459308584,0.0
23.867224,0.16048244216975902,0.0
23.869612,0.1851101597467067,0.0
23.871992,0.2053615887784833,0.0
23.874392,0.2269162704223757,0.0
23.87678,0.2540579454249379,0.0
23.87916,0.2853435915471941,0.0
23.881556,0.3182985651710073,0.0
23.883944,0.34981842457661,0.0
23.886328,0.37933618323579577,0.0
23.888724,0.41537210081342985,0.0
23.891112,0.45005754395070496,0.0
23.893496,0.4826483385429462,0.0
23.895892,0.5137488890679682,0.0
23.89828,0.5388884633241137,0.0
23.900664,0.5672408431401746,0.0
23.90306,0.5852559581421879,0.0
23.905444,0.6007571157185865,0.0
23.907824,0.6035014947118091,0.0
23.91022,0.6157445207579182,0.0
23.912604,0.622772640497695,0.0
23.914988,0.6313835521033078,0.0
23.917384,0.6337558440441928,0.0
23.919772,0.6317518474399069,0.0
23.922152,0.6278855197160642,0.0
23.924548,0.6278836238581951,0.0
23.926936,0.6261591665076294,0.0
23.929332,0.6236433132241456,0.0
23.931724,0.6181941936344666,0.0
23.934116,0.6149794922166816,0.0
23.936496,0.6117647907988968,0.0
23.938888,0.6116231253141672,0.0
23.941276,0.6146942653893535,0.0
23.943652,0.6157633047181227,0.0
23.946048,0.6232579551667232,0.0
23.948436,0.6276795696822683,0.0
23.950816,0.6336386500932757,0.0
23.953228,0.644440549758278,0.0
23.955616,0.6505393997961456,0.0
23.957996,0.6504449561396592,0.0
23.9604,0.6537030876699487,0.0
23.962788,0.6584514632674575,0.0
23.965168,0.6666449618503592,0.0
23.967564,0.6805180015905475,0.0
23.969948,0.6947631283830735,0.0
23.972332,0.7046319666304284,0.0
23.974736,0.7107761426386697,0.0
23.97712,0.7182235712590271,0.0
23.9795,0.7284644965587196,0.0
23.981904,0.7347484421938212,0.0
23.984292,0.734653998537335,0.0
23.986672,0.734047698201651,0.0
23.989076,0.7331618586122467,0.0
23.99146,0.7422865227549265,0.0059019221973329065
23.99384,0.75541538839044,0.011312732753445565
23.996244,0.7688237932796739,0.01666865411663891
23.998632,0.7853977819005803,0.021916593405764927
24.001012,0.7996429086931063,0.027341533533707
24.003416,0.8248297047774948,0.03257115084442788
24.0058,0.8554183986233193,0.03755082784871124
24.00818,0.8833533654166689,0.04241293300580745
24.010584,0.9059336562768259,0.047474014282800125
24.012972,0.9273032423234839,0.05261728739654384
24.015352,0.9455072446384699,0.05780474029658239
24.017756,0.9646896343414771,0.06290847256067784
24.020144,0.983592484790764,0.06805396426704641
24.022524,1.0050092926656653,0.07323862709925263
24.02492,1.0285679709138436,0.0782966015937805
24.027308,1.0530578147218004,0.08327632855685041
24.029692,1.0797820767016513,0.08837076946969383
24.032096,1.1090202961071167,0.09350189160561993
24.034484,1.134766170698946,0.09879096000355943
24.036864,1.158789483798079,0.10404075375161202
24.03926,1.1726625235382677,0.10369710895795384
24.041648,1.1755938939865938,0.10426201506488951
24.044028,1.177454329248281,0.10492983594227946
24.046424,1.1755901022708553,0.1058198360898299
24.048812,1.1729817011887544,0.10645076579237252
24.051192,1.1677195730541787,0.10716338229615514
24.053588,1.1606876615986637,0.10815942195492012
24.055976,1.1528171323819871,0.10940100729414422
24.058356,1.1470884735385876,0.11049164241268992
24.060752,1.1428500587624073,0.11134184823604235
24.06314,1.1401944358520633,0.11217948178407368
24.06552,1.1389818351806955,0.11302698887719702
24.067924,1.1377692345093273,0.11387747361975602
24.070312,1.13697594271854,0.11458686561596108
24.072692,1.1324579886886392,0.11548013047865201
24.075088,1.1268690994721,0.11643833522357215
24.077476,1.124493015815477,0.11711841015569005
24.079856,1.119742744360099,0.11782596980506874
24.08226,1.1166224865988001,0.11829009776052617
24.084648,1.112943150330061,0.11892203409686787
24.087028,1.114338950740794,0.11919104185549359
24.089424,1.120670118204139,0.11908505871419396
24.091812,1.127141055294344,0.11893104999535939
24.094192,1.1334722227576886,0.11880522547653771
24.096588,1.1439001395124844,0.11858494252119003
24.098976,1.157121552946615,0.1182449210113641
24.101356,1.168480635261189,0.11799499599124233
24.10376,1.1774655297770082,0.11775647228952077
24.106148,1.188732064292965,0.11729171393309114
24.108528,1.1974374195550643,0.11715233635301116
24.110924,1.208564184444161,0.11675961144289457
24.113312,1.2209016541467563,0.1162742567642342
24.115692,1.2371035557153254,0.11558761284819163
24.118088,1.2539570835899523,0.11496312472241778
24.120476,1.271462237770637,0.1143471554368784
24.122856,1.2861738952719868,0.11385390225793833
24.12526,1.29902322165378,0.11348539457865704
24.127648,1.3162488365807443,0.11297459949580711
24.130028,1.3349174737466847,0.112510660698881
24.132428,1.3549365853529842,0.11188396637150383
24.134812,1.3757470928922013,0.11127592395864654
24.137196,1.4004220322973924,0.11050051083072383
24.1396,1.4280302380087784,0.10961076314391698
24.141988,1.4599221844667183,0.10844523624240225
24.144372,1.484364806446432,0.10758962886905986
24.146764,1.5046634573064517,0.107023334587904
24.149152,1.5271039785397484,0.10630519838335398
24.151536,1.5512670612657415,0.10550329408794029
24.153932,1.5731485039915973,0.10490753687110184
24.15632,1.5981029826505089,0.1041152161775252
24.1587,1.616771619816449,0.1037174549317171
24.161096,1.6302253506760571,0.10363853827466382
24.16348,1.636741613736636,0.10391407728650011
24.165864,1.6426062504911572,0.1041616607441944
24.16826,1.651823462432454,0.10418008685273204
24.170648,1.6658362717995028,0.1039935898317844
24.173028,1.679709311539691,0.10384324563173117
24.175428,1.6899974586676265,0.10380185496809288
24.177812,1.6965609435564488,0.10389193713098889
24.180212,1.7012620973257142,0.10404953929387839
24.182608,1.7043804592291434,0.10421341426939938
24.184992,1.7037741588934596,0.10450221160053749
24.187372,1.6980927218783033,0.10503415810834307
24.189768,1.6891984793032315,0.10573002268598308
24.192156,1.6818870285939957,0.1064610405398997
24.194536,1.6759260523251196,0.10706623728439148
24.196932,1.6741090471759368,0.10743421383372377
24.19932,1.676575782773308,0.10756688453934281
24.2017,1.6802532231841785,0.10761571856930105
24.204096,1.6864918428489062,0.10748305537473318
24.206488,1.6959432680735498,0.10717757255145961
24.208884,1.7070247069922726,0.10669372571169616
24.211284,1.723460821844188,0.10591344374907709
24.213672000000003,1.7392453103900454,0.10512677937347945
24.216056,1.750885827816209,0.104551231480737
24.218452,1.7583823741226785,0.1041706865816191
24.220839999999995,1.764296128563312,0.10379178379238183
24.22322,1.7710012789368634,0.10340774903166626
24.225616,1.7814310915495284,0.10290690672691981
24.228004,1.7926523000951113,0.10239803885025925
24.230384,1.8045251349467522,0.10191932926276119
24.23278,1.8174689049850317,0.10139160102819568
24.235168,1.83162337983681,0.10075901264229514
24.237552,1.8468487898752266,0.1000719495387137
24.239948,1.8664977102870577,0.09912149899495817
24.242336,1.88507569551225,0.09824093103890037
24.244716,1.8965764433115533,0.09769597317805066
24.247112,1.9002085577520498,0.09745413388008518
24.2495,1.9027697370059071,0.09726819293469526
24.251884,1.8971827436472375,0.09742732340728469
24.25428,1.8935978510349845,0.09750468650528224
24.256668,1.8915957502885674,0.09758158686422702
24.259052,1.8895936495421508,0.09765463389110927
24.261455999999995,1.8838196647283776,0.09798380310938273
24.263844,1.8783252191683248,0.0982660058890139
24.266224,1.8766026576756285,0.09829015932806692
24.268628,1.8756714921158502,0.09831518819971481
24.271016,1.8790240673026262,0.09814321270634789
24.273396,1.8812131595041461,0.09789739342826174
24.275796,1.8864752876387219,0.097540188919868
24.278184,1.8912255590940996,0.09713552503794362
24.280564,1.8947651257359788,0.09680325771955522
24.28296,1.9021691242438312,0.09636661656164436
24.285352,1.9086419571919055,0.09595392987018177
24.287732,1.9126933805129824,0.09568147757194881
24.290136,1.9156738686474208,0.0954511826936785
24.29252,1.918514587154999,0.09523779962828131
24.294904,1.9252197375285505,0.09490099678290466
24.2973,1.931924887902102,0.094564193937528
24.299684,1.9442170316343232,0.09407565147417886
24.302068,1.95357590906035,0.09368933131225461
24.304464,1.962795016859516,0.09333229456145323
24.306848,1.9706636502183237,0.09308042321719213
24.309232,1.983607420256603,0.09262921017616398
24.311628,1.9979942125338586,0.09220271234424333
24.314016,2.009819825557256,0.09195742369816978
24.316396,2.0227163737672926,0.09166968067941894
24.3188,2.028256145297719,0.09168328210753478
24.321188,2.0318863638803464,0.09188718115624465
24.323568,2.0316521505969996,0.09219998632432287
24.325964,2.0297879236195735,0.09265583451265991
24.328352,2.029134401455647,0.09304015844666602
24.330732,2.025407843358664,0.09352904106043441
24.333132,2.02275222044832,0.09397048085272863
24.335516,2.023588942351612,0.09423009220050936
24.3379,2.0264277650013205,0.09442659202815913
24.340296,2.0364835947037787,0.0943721096638703
24.342684,2.048541525152654,0.09426042192635024
24.345064,2.063532721907724,0.09407684542656583
24.34746,2.0768013571700976,0.09391085451013137
24.349848,2.087928122059194,0.09381729791123178
24.352228,2.096401159895816,0.09375712181851979
24.354628,2.1022204706799634,0.09373162308240016
24.357012,2.1064569895982745,0.09370162580983905
24.359408,2.1109730477703064,0.09362753892637102
24.361808,2.1146977100094193,0.09354948221382547
24.364196,2.119213768181451,0.09347684049615694
24.366576,2.1280135671000364,0.09323496032517879
24.368972,2.1412368763920364,0.09280782788292771
24.371356,2.1533892504973977,0.09241221710549709
24.37374,2.1679630342297567,0.09188266723759494
24.376136,2.1805347172156986,0.09141813774716244
24.378524,2.1924547738955824,0.09092563902931738
24.380908,2.201301794642411,0.09053676312313536
24.383312,2.2098692761355188,0.09021118256608752
24.3857,2.2185765272554874,0.08986932612222522
24.388084,2.2200667713227067,0.08976659123929878
24.39048,2.219554914643509,0.08972106172960358
24.392868,2.2138281516579785,0.08984711351964317
24.395248,2.2111744246055043,0.0898771588834656
24.397648,2.218531201285114,0.08964194033682936
24.400036,2.228961013897779,0.08931731441451327
24.402416,2.239251056883583,0.08900380701945941
24.404812,2.2515432006158047,0.08864437899382466
24.4072,2.2631837180419683,0.08826543064834601
24.40958,2.2745446962144116,0.0879202361875844
24.41198,2.2811100769611032,0.08767599955121098
24.414368,2.289537788827351,0.08740704273799588
24.416748,2.2928903640141267,0.0872796684873058
24.419148,2.300107371066876,0.08706849160861407
24.421536,2.3081157740525433,0.08686645344590273
24.423920000000003,2.3169155729711286,0.0866665874747248
24.426316,2.330371199688606,0.08639691132752007
24.428704,2.347970797525777,0.08600885552351044
24.431084,2.3598436323774177,0.0857324690392957
24.433484,2.372787402415698,0.08543119355418252
24.435872,2.388152582080975,0.08501865639700112
24.438252,2.4064510280524467,0.08455288335310683
24.440648,2.4282418188375545,0.08394128107179061
24.443036,2.4430951418236337,0.08348913394368201
24.44542,2.4510109970106844,0.08320936148166425
24.447816,2.4614408096233498,0.08293668490152326
24.450204,2.475874823728848,0.08257627805936726
24.452584,2.487887428207349,0.08231779939748018
24.454984,2.501622594178546,0.08205894272095161
24.457372,2.51885010496338,0.08167718633571583
24.459752,2.546088119480298,0.08110279725668162
24.462152,2.5685305365714637,0.08060975313664664
24.46454,2.592975054409046,0.08006788875296544
24.46692,2.6169077155674314,0.07949992745587695
24.46932,2.6380468800464816,0.07896898207987352
24.471708,2.6613279148988087,0.07838678999011076
24.474088,2.6796735826985243,0.07790200119217583
24.476488,2.6969483153116007,0.07745564886578042
24.478876,2.717807940536931,0.07697798280311728
24.481256,2.7355945298292053,0.07657065666308874
24.483652,2.7560348461739537,0.07615994589562453
24.48604,2.7716795650929513,0.07581838984801217
24.488424,2.7850426440118117,0.07554651946994248
24.490824,2.8038529466624813,0.0752253961411419
24.493212,2.8217320837533726,0.07491260112603035
24.495592,2.8338844578587343,0.07467853084778181
24.497988,2.844965896777457,0.07447495815259844
24.50038,2.8584687453231767,0.07418962867341747
24.50276,2.867967392376064,0.07397492146896757
24.505156,2.87704673054837,0.0738139170941374
24.507544,2.87690696092151,0.07382947285245622
24.509928,2.8792811487202643,0.07384993281411666
24.512324,2.8845886028252137,0.07382926486337964
24.514712,2.8893369784227225,0.07387094000300067
24.517096,2.9010228218192604,0.07381236458003772
24.519492,2.910846334096241,0.07377157826635485
24.52188,2.9226719471196385,0.07369967542657506
24.524264,2.934357790516176,0.07364427041660958
24.52666,2.9473941083530724,0.07353936337520378
24.529048,2.9642948580559425,0.07339226111348461
24.531432,2.9764000103330606,0.07329788456008371
24.533828,2.99330076003593,0.07315421523680377
24.53622,3.0144852504853548,0.07292821526109675
24.5386,3.0343664883226626,0.0726615133584204
24.541,3.056389596533248,0.07235447860400232
24.543384,3.083487841423306,0.07197271764691936
24.545768,3.1127279566866406,0.0715590037217309
24.548164,3.1399659712035586,0.07118029693079655
24.550548,3.172279122399948,0.07073060606365483
24.552944,3.203009481730502,0.07027311190273304
24.555348,3.235881711434333,0.06976777185587278
24.557736,3.2703839548322433,0.06919506433723922
24.56012,3.302092701550819,0.06865142178620878
24.562516,3.333149821963336,0.06808897642608892
24.564904,3.3534050427108513,0.06765120996154197
24.567288,3.3756623642047834,0.06719492307516772
24.569684,3.3972680593926574,0.06672159626827187
24.572072,3.415940488274336,0.06627577062707107
24.574456,3.430468946036321,0.06589293875688865
24.576852,3.4380599359992767,0.06558697057977611
24.57924,3.4464423218951508,0.06528524632193071
24.581624,3.4511000455519114,0.06500862488744136
24.58402,3.451613798088978,0.06479547837088577
24.586412,3.45492104730538,0.06456930420848744
24.588792,3.4570175917082833,0.06437513458414182
24.591188,3.4541787690585743,0.06423200226486454
24.59358,3.4474755145428917,0.06412101961981019
24.59596,3.4395615552137104,0.06404019145412918
24.598355999999995,3.4288540992051946,0.06397217054522256
24.60074,3.4167961687563198,0.06394633722103572
24.603124,3.4031554464416085,0.06390323205463405
24.60552,3.387512623380481,0.06387869562481371
24.607904,3.3698676995729357,0.06387507859562468
24.610284,3.352362545392251,0.06385680831143127
24.612684,3.3407239238239574,0.06378814580155028
24.615068,3.325081100762829,0.06376088924107456
24.617452,3.308367342515062,0.06374888372770345
24.619848,3.2956577857601284,0.06369496420759638
24.622232,3.2869524304980295,0.0635991909854198
24.624612,3.283322211915402,0.06344365614699704
24.627008,3.2787608277729974,0.06329142044775377
24.629396,3.2759220051232885,0.06314352710659606
24.631796,3.2741541176602187,0.06297787546301166
24.634192,3.269452963890953,0.06283871482867893
24.63658,3.265962514935186,0.0626699580222553
24.63896,3.2675472026588914,0.062443810506356674
24.641356,3.2700630559423756,0.062213508642445535
24.643744,3.2768626499724127,0.06191924385733903
24.646124,3.281240834375453,0.06168182994852535
24.648528,3.2876211195249105,0.06142377015754624
24.650916,3.2974465276597607,0.061177027813372524
24.653296,3.307132166167751,0.06094446253001536
24.655696,3.320961775795434,0.06066100129739934
24.65808,3.333301141355899,0.06043121312767519
24.660464,3.346851211729862,0.060177363562392255
24.66286,3.3644054835966597,0.05988634283539131
24.665248,3.3839618562098734,0.05957862935996969
24.667628,3.400864501770613,0.05927123785234261
24.670028,3.4161843554655156,0.05894979420591015
24.672416,3.4307128132275007,0.05862184766321548
24.674796,3.4505959469226783,0.05822205238598078
24.677192,3.4707586198715763,0.057802031857623094
24.67958,3.4938545591266696,0.05736882036762318
24.68196,3.517881663941541,0.056936408200888015
24.684356,3.542839934316191,0.05650951914057777
24.686744,3.56165213282473,0.05614520807768003
24.689124,3.5764601298404353,0.05580925868389866
