Time,Force,Position
24.279444,0.18641372922430802,0.0
24.281839999999995,0.18003533993271997,0.0
24.284224,0.17444834657405006,0.0
24.286604,0.1707236843349368,0.0
24.289007999999995,0.17142253246923783,0.0
24.291396,0.16331491191293332,0.0
24.293776,0.15520729135662883,0.0
24.296172,0.14709967080032432,0.0
24.298556,0.1377813454305211,0.0
24.300936,0.12953395524735636,0.0
24.30334,0.11942423394463501,0.0
24.305727999999995,0.1111768437614703,0.0
24.308104,0.10572295025764056,0.0
24.3105,0.09719602082075543,0.0
24.312884,0.08974002657050882,0.0
24.315264,0.07827983082742852,0.0
24.31768,0.06775080064412653,0.0
24.320068,0.05400896490090896,0.0
24.322448,0.04133806434432991,0.0
24.324852,0.029738098974389393,0.0
24.327236,0.020931630283783836,0.0
24.32962,0.015058427899373455,0.0
24.332024,0.009324995141823283,0.0
24.334408,0.005733432757550172,0.0
24.336788,0.0002370913396280655,0.0
24.339192,0.0016848874927548711,0.0
24.34158,0.005274554019158738,0.0
24.343956,0.010726551665119247,0.0
24.346352,0.016458088564800175,0.0
24.348735999999995,0.01939612878514614,0.0
24.35112,0.02261370825921253,0.0
24.353516,0.022898021427083744,0.0
24.355903999999995,0.02457813500568782,0.0
24.358284,0.033008724928217416,0.0
24.360688,0.04637468190335903,0.0
24.363076,0.060159947759081275,0.0
24.365456,0.07669338432376456,0.0
24.367852,0.0865688923431394,0.0
24.370239999999995,0.0998895233479071,0.0
24.37262,0.10976503136728195,0.0
24.375024,0.12187495755855092,0.0
24.377412,0.1361267541230969,0.0
24.379791999999995,0.14637434919480924,0.0
24.382196,0.15569077870674325,0.0
24.384584,0.16393149911788793,0.0
24.386964,0.17720013438026172,0.0
24.389356,0.19070108706811273,0.0
24.391744,0.20178063012896627,0.0
24.394124,0.2116022465480779,0.0
24.396528,0.22887318744541613,0.0
24.398916,0.24651621539509186,0.0
24.401295999999995,0.2717483374498543,0.0
24.403692,0.29390931942943066,0.0
24.406076,0.299775852041821,0.0
24.408456,0.29749421204168375,0.0
24.410864,0.300520026146496,0.0
24.413248,0.2962343895420726,0.0
24.415628,0.3012604085354324,0.0
24.418024,0.29920919010290314,0.0
24.420407999999995,0.3039084480142994,0.0
24.422792,0.3079560796196378,0.0
24.425188,0.30944253197111843,0.0
24.427575999999995,0.3154450424946305,0.0
24.429972,0.3258238415633138,0.0
24.432368,0.33331659615404496,0.0
24.434752,0.33219654328129405,0.0
24.437132,0.3269797411170924,0.0
24.439536,0.32260155671405194,0.0
24.441924,0.3206920037662522,0.0
24.444303999999995,0.3119847526462837,0.0
24.4467,0.3004840048469803,0.0
24.449084,0.2849790555548432,0.0
24.451468,0.27166130260635707,0.0
24.45386,0.2701219408530255,0.0
24.456247999999995,0.2749609683912819,0.0
24.458628,0.2736539240634277,0.0
24.461023999999995,0.27518759824315153,0.0
24.463412,0.27592987648995726,0.0
24.465808,0.28645034104336997,0.0
24.468212,0.29473638742488856,0.0
24.4706,0.2989256845149564,0.0
24.47298,0.3016719593660482,0.0
24.475376,0.30656010459041705,0.0
24.477764,0.30721173089647497,0.0
24.480144,0.31372988981492317,0.0
24.482548,0.3209922228380464,0.0
24.484936,0.3302094347793433,0.0
24.487316,0.3377966330265608,0.0
24.48972,0.34226357351247977,0.0
24.492104,0.3492444714240133,0.0
24.494484,0.3598102619477999,0.0
24.49688,0.37093513097902736,0.0
24.499268,0.380756747398139,0.0
24.501648,0.3912772119515517,0.0
24.504052,0.39891163202701235,0.0
24.50644,0.40417186430371865,0.0
24.50882,0.4090127876998444,0.0
24.511224,0.41064090553605453,0.0
24.513611999999995,0.4059831818792937,0.0
24.515992,0.4001147534090341,0.0
24.518396,0.39820330460336506,0.0
24.520784,0.4015993099026456,0.0
24.523164,0.4020620488957309,0.0
24.52556,0.40797201162062585,0.0
24.527947999999995,0.4122519606514415,0.0
24.530328,0.42230589449603045,0.0
24.532724,0.43240705016886255,0.0
24.535112,0.4481424210286077,0.0
24.537492,0.4687206111423478,0.0
24.539888,0.49106858457702746,0.0
24.542276,0.5143949453997286,0.0057066095378740505
24.544656,0.5373019973418491,0.01140017510847178
24.547056,0.5628627763364444,0.016960046255096214
24.549444,0.5852107497711241,0.022628881393137526
24.551824,0.6069996446983629,0.028408023938546002
24.55422,0.6340959937305513,0.03409497872320733
24.556608,0.6670588753751301,0.039544461507057
24.558988,0.7032345625796244,0.044887620019331644
24.561392,0.736197444224203,0.05059107804820569
24.56378,0.7711624266151986,0.05617605885851949
24.566164,0.8057553219538566,0.06165813469168418
24.56856,0.8350407631875653,0.06725246242291572
24.570948,0.8639541173689362,0.07280709883485588
24.573328,0.8843472118854423,0.07866703684913559
24.575724,0.9034370537898324,0.0845421485835605
24.578112,0.9151701190146132,0.09082299309687196
24.580492,0.9284859761052301,0.09694137148568348
24.582896,0.9360278483820736,0.10337868104396054
24.585284,0.9408687717781993,0.1099093549417046
24.587668,0.9426366592412697,0.11653036436901479
24.590072,0.9406326626369836,0.11773167838903574
24.592456,0.9364867956594206,0.11203811281843801
24.594836,0.9322011590549972,0.11354227858442673
24.59724,0.9300573928238509,0.11473763844299943
24.599628,0.9292641010330636,0.11566946271016929
24.602008,0.9253052255106038,0.11666437909141728
24.604403999999995,0.9186926229356692,0.11774930961408217
24.606792,0.9122197899875949,0.11872075930334594
24.609172,0.9120327985324915,0.11906076705044949
24.611568,0.9099834759578316,0.11951925201611328
24.613956,0.9067234485696727,0.12013194770050853
24.616336,0.9081192489804055,0.1204359220919883
24.618732,0.9128204027496711,0.12064837764911965
24.62112,0.9240397154373848,0.12043635533997323
24.623504,0.9377729855507132,0.12014951663277969
24.6259,0.9592351193959885,0.11926409272638791
24.628284,0.977344678054488,0.11874303238060949
24.630664,0.9958735455935682,0.11799191795565668
24.633068,1.0141700957071709,0.11706645532224196
24.635456,1.0321871065670534,0.11618215298510753
24.637836,1.0524857574270732,0.11496042456053683
24.640236,1.0781390842202854,0.12038340188878244
24.642624,1.1009989143341627,0.11882428068106857
24.645004,1.1189233773954281,0.11768704924610586
24.647408,1.136428531576113,0.11673396120071573
24.649795999999995,1.159101370234887,0.11561275685801199
24.652176,1.1802839648264418,0.11475174141783791
24.654572,1.2003956242313583,0.11406506897022409
24.65696,1.2183654132629975,0.11364199246907113
24.65934,1.235264267107998,0.11330116490510492
24.661736,1.2532340561396373,0.11286360486910196
24.664124,1.266408247745525,0.11275286980709515
24.666504,1.2749266115525208,0.11291189031592662
24.668904,1.2829331186803188,0.11301332378360147
24.671292,1.2902879995020589,0.11309025975834863
24.673672,1.2931268221517678,0.11336004815340746
24.676068,1.2997375288688329,0.11323168817628364
24.678456,1.3112836026385104,0.11282412858186945
24.680836,1.3242726986471638,0.112458548723566
24.683236,1.3414057657755112,0.11182797868413571
24.68562,1.3574678977172197,0.1112791334048559
24.68802,1.366313022606179,0.11119422208336148
24.690416,1.379022579361112,0.11092097285939412
24.6928,1.3975986687284352,0.11032670850165642
24.69518,1.413660800670144,0.10976672069066103
24.697576,1.4212026729469875,0.10961036170489158
24.69996,1.4320971204106072,0.10920029731793948
24.702352,1.4379164311947545,0.10908266173679375
24.704747999999995,1.4450862164192604,0.10882927966495709
24.707132,1.4519764623900464,0.10863125426383367
24.709516,1.4597978739206103,0.10840208745093391
24.71192,1.4725546525037858,0.1079032953512946
24.714308,1.48610282701988,0.1073641381440928
24.716688,1.4953672607894204,0.10714134477594385
24.719092,1.5052833208650183,0.10695917030444277
24.721476,1.5141284457539776,0.10684755358260237
24.723859999999995,1.5204123913890797,0.10699800304348933
24.726256,1.5217609699715693,0.10741257470481719
24.72864,1.5183139511283072,0.10806531314889305
24.731024,1.5119336659788498,0.1088515459482493
24.733419999999995,1.5089059560161684,0.10937382316320772
24.735804,1.512164087546458,0.1095136720050579
24.738184,1.511697556837634,0.10979729985034768
24.74058,1.5105793998227524,0.11004340202446194
24.742968,1.5151880057934008,0.11006037056595991
24.745348,1.5248717484435217,0.10981053453608398
24.747744,1.5296201240410303,0.10979412628912612
24.750132,1.5434478378108452,0.10932151255797874
24.752528,1.5559250771403006,0.10899167631174159
24.754923999999995,1.5717548916565323,0.10844238574962217
24.757312,1.5855826054263467,0.10799652745686017
24.759692,1.598618923263243,0.10758480674333398
24.762096,1.616870147406472,0.1069282113429209
24.764484,1.6389858034156746,0.10611172184326041
24.766864,1.660449833118819,0.10529278546466758
24.769268,1.681122466889045,0.10444703940164266
24.771656,1.7070100069656038,0.10338274156931482
24.774035999999995,1.734248021482522,0.10219851136019308
24.776432,1.766700942305772,0.100732196213803
24.77882,1.8015280509277767,0.09927828062058008
24.7812,1.8340735195496443,0.09803937220445612
24.783596,1.8616836211188994,0.09701796099444235
24.785984,1.8908765145539912,0.09598510048666704
24.788364,1.918998472802444,0.09504876425497953
24.79076,1.9393915673189501,0.09437280275668657
24.793147999999995,1.9624383888879307,0.09368259948334365
24.795528,1.9897689512034655,0.09280055545087472
24.797923999999995,2.01109321127975,0.0921661577240833
24.800312,2.0304153706096173,0.09159325530154977
24.802708,2.049225673260287,0.09099831591497395
24.805104,2.0664531840451206,0.09038904687570365
24.807492,2.0803281196431787,0.08994637576633487
24.809872,2.0903386233752626,0.08962833712132719
24.812268,2.096904004121954,0.08934432552004015
24.814656,2.101187744868508,0.08917004820509412
24.817036,2.109987543787094,0.08891870562656855
24.819436,2.111338018227453,0.08883067964246137
24.821819999999995,2.1149229108397054,0.08877820628993272
24.8242,2.1200905953177953,0.0887383081944519
24.826595999999995,2.1185078034519593,0.08873010436088209
24.828984,2.1145036019591257,0.08884828370740097
24.831368,2.114224062705405,0.08889270140681275
24.833763999999995,2.1126412708395685,0.0888851427877066
24.836148,2.1069145078540386,0.08902094920325125
24.838528,2.1090563782273155,0.08893855484244102
24.840944,2.103748924122366,0.08900629790008775
24.843328,2.096811456323337,0.0891998220949233
24.845707999999995,2.092947024457364,0.08929381076000142
24.848104,2.089641671098831,0.08930055145682592
24.850492,2.0853579303522767,0.08945990833847381
24.852872,2.0845193125911154,0.08959150177116751
24.855276,2.0839602340836745,0.08968033764110775
24.857664,2.082981846695653,0.08983600959220807
24.860043999999995,2.0875904526663014,0.08988176162397181
24.862444,2.091547432330892,0.08989998767569597
24.864832,2.0920592890100895,0.08994799480642698
24.867211999999995,2.093734628674543,0.09007138124931448
24.869608,2.0911734494206855,0.09022221872160341
24.871996,2.0830252768081574,0.09048420451780487
24.874376,2.084980155726331,0.09056200098315857
24.876771999999995,2.0877736524056667,0.09050553680220717
24.87916,2.0876338827788063,0.09052783447231828
24.881556,2.0900080705775608,0.0905390883130558
24.883959999999995,2.0965262294960088,0.09040723388448346
24.886348,2.099691813227681,0.09042253698137132
24.888728,2.111517426251079,0.09023599253072369
24.891124,2.118687211475585,0.09013173665072434
24.893512,2.124786061513453,0.0900712497148369
24.895892,2.134609573790434,0.08994570762501153
24.898295999999995,2.1429900638284387,0.0897875633075344
24.900684,2.149647992373747,0.08964464796457931
24.903064,2.1550952161055568,0.08955821940049959
24.905463999999995,2.162963849464364,0.08935182165048235
24.907848,2.165617576516839,0.08932068018086528
24.910232,2.173066900995065,0.08918282285436793
24.912628,2.1803764558464316,0.08906474056579403
24.915016,2.191829981817492,0.08881276508033023
24.917396,2.204726530027528,0.08858397232527472
24.919799999999995,2.217343538983844,0.0883877953179934
24.922188,2.2222316842082126,0.08838694679914713
24.924568,2.225629585365363,0.08849043229680836
24.926967999999995,2.2300984217091506,0.08855313260480555
24.929356,2.2328446965602424,0.08863145552699399
24.931736,2.2355909714113347,0.08871000628144898
24.934132,2.238756555143007,0.08872444118416485
24.93652,2.2379179373818454,0.08884793574140898
24.938904,2.244016787419713,0.08879243415680138
24.9413,2.247461910405106,0.08876662069961157
24.943688,2.2464835230170843,0.08891087686414434
24.946068,2.2484384019352586,0.08898452724529562
24.948471999999995,2.2521158423461287,0.0890455577233876
24.95086,2.259006088316914,0.08899544862304283
24.95324,2.2666877302206183,0.0889549555338065
24.955636,2.2741370546988446,0.08882658519073573
24.958024,2.2797240480575147,0.08873446160367292
24.960404,2.289175473282158,0.08856441598576814
24.9628,2.2931796747749917,0.08846550573188515
24.965188,2.2966720195886277,0.08832161704891558
24.967572,2.3073813714550133,0.08797986058348287
24.969968,2.320232593694675,0.08756450379302627
24.972356,2.339090118173588,0.08700341087017918
24.974736,2.358227181906222,0.08640695415898728
24.977132,2.376013771198495,0.08587923362635647
24.97952,2.392589655677271,0.08540888002887971
24.981904,2.4093053097829076,0.08492976362883355
24.9843,2.4210855968359315,0.08455264350973286
24.986688,2.4331454231426757,0.08415507889236579
24.989068,2.4489299116885337,0.08370462589953388
24.991464,2.4660648746747498,0.0831754265877937
24.993852,2.4854814776611036,0.08258958263330382
24.996236,2.5035948280353417,0.08196614279391239
24.998632,2.522779113596218,0.08132666405498173
25.00102,2.537307571358203,0.08075484475911657
25.0034,2.5562123176653593,0.08016436830573175
25.005804,2.5761879991591536,0.07955852110071217
25.008192,2.5945808887871116,0.07895863874716685
25.010576,2.6205628725201575,0.07826630424732027
25.012968,2.6514802233058146,0.07750627304808416
25.015356,2.6754601062924426,0.07688422608144928
25.017736,2.7033044211450448,0.07622499127071213
25.020128,2.7275638433853935,0.07560405722787446
25.022516,2.7546167623050772,0.07497232249185717
25.024892,2.7828803860382596,0.0742933189311203
25.027292,2.811283779398302,0.07359643250972787
25.029675999999995,2.838476467944845,0.07294703514048123
25.03206,2.8698131276110828,0.07219892782566714
25.034472,2.89486394578435,0.07158741911203416
25.03686,2.9197749943307563,0.07100451275521481
25.03924,2.9451053517577437,0.07037935717826448
25.041636,2.9598661269452062,0.069973768507986
25.044024,2.9752785284387264,0.06959725232476295
25.046416,2.9874781243723314,0.06929386290275405
25.048812,3.001260512171772,0.0690031481302368
25.0512,3.012528942545598,0.06871041549435608
25.05358,3.020724336986369,0.06847377936643372
25.055983999999995,3.02742948735992,0.06830768788768732
25.058368,3.0264057740015247,0.06823114339251178
25.060748,3.0203069239636573,0.06823416090295659
25.063151999999995,3.019283210605262,0.06815839234131531
25.06554,3.011322029447838,0.06817298874020339
25.06792,3.004012474596471,0.06820956769679647
25.070316,2.9934901141851893,0.06830741361721339
25.072704,2.986180559333823,0.0683409570277548
25.075088,2.9818042707886514,0.06834169857179645
25.077492,2.9775677518703403,0.06832804097949093
25.079876,2.976124729631364,0.06829712670530745
25.08226,2.9808277792585,0.06817650660189635
25.084664,2.9819459362733816,0.06806434818622212
25.087052,2.983575949967461,0.0679892773684955
25.089431999999995,2.9936336755277875,0.0677683488937642
25.091828,3.001689300341698,0.06757343431352904
25.094212,3.0118867955288855,0.0673389059680654
25.096596,3.0222240603429333,0.0670896225366034
25.099,3.0301399155299835,0.0669070150603936
25.101388,3.0388471666499526,0.06673173001756502
25.103767999999995,3.0466232522101424,0.06656071174916572
25.106164,3.063199136688918,0.06629861642017663
25.108548,3.0796352515408336,0.06604774079855943
25.110932,3.0875038848996406,0.06595668353851662
25.113328,3.099236950124421,0.06582530269016132
25.115711999999995,3.111109784976062,0.06568137427200042
25.118096,3.1212600583350065,0.06553312963786066
25.120492,3.127266360574257,0.06545467834878309
25.122879999999995,3.1276856694548383,0.06541156062057324
25.12526,3.1288963742683373,0.06537724017020724
25.127656,3.1282447479622792,0.06535450036275572
25.130044,3.1265221864695834,0.06535100508849219
25.132424,3.1262426472158626,0.06537889325108139
25.134828,3.123309380909667,0.0654086758346601
25.137215999999995,3.1213072801632507,0.06543226948395724
25.1396,3.1213072801632507,0.06543226948395724
25.141996,3.1222384457230286,0.06542753925268496
25.144383999999995,3.125171712029224,0.06540018285870011
25.146764,3.1334596542686115,0.06528317950259488
25.149159999999995,3.1420271357617193,0.06513935408134862
25.151548,3.154878358001382,0.06492627699654786
25.153932,3.1606523428151556,0.06480048589269365
25.156327999999995,3.1715014643084003,0.06461664032748393
25.158716,3.1950620384144472,0.06424297697846153
25.161096,3.2178312165875775,0.06386295955952224
25.163492,3.237667128454512,0.0635078850799263
25.16588,3.2613674721874197,0.06312451148197389
25.16826,3.2861387511069666,0.06272381621354652
25.170656,3.317428188944961,0.06229854500188245
25.173044,3.3447134252901223,0.061910026564308385
25.17544,3.366132129022893,0.06156719886295328
25.177836,3.3846175664494687,0.06125193057985409
25.180223999999995,3.4076662838763183,0.06084966276202097
25.182604,3.434160124288561,0.06045729727184068
25.184999999999995,3.4566497632079702,0.06011113126555228
25.187388,3.4791394021273794,0.059769359671976066
25.189772,3.5025602066065673,0.059431811052821824
25.192167999999995,3.5221165792197806,0.059121706996049156
25.194556,3.5387396855267994,0.058840808820143024
25.196936,3.5553627918338186,0.058561316514960424
25.199332,3.568773092580922,0.058331982710515484
25.20172,3.583114558887803,0.05809774054977983
25.204116,3.591589492582294,0.05790806240186817
25.206508,3.5877722825445635,0.05784988722755407
25.208896,3.5840948421336933,0.05777943833791518
25.211276,3.5853527687754356,0.05767230861390307
25.21368,3.587821400230677,0.057541140036246954
25.216068,3.5912211972456958,0.05740827706247979
25.218447999999995,3.5908963320216007,0.057285967754212706
25.220844,3.5969970779173384,0.05708185198580183
25.223228,3.613899723478077,0.05680976987325914
25.225608,3.6320130738523146,0.05651307232666076
25.228012,3.6431889564275246,0.05626827754284846
25.2304,3.6526422775100373,0.0560168476325772
25.23278,3.6622353682194104,0.05575303001333928
25.235176,3.6687554229957278,0.055517045247801745
25.237564,3.670340110719433,0.0553138351778564
25.239944,3.6779311006823896,0.055067505952926726
25.242348,3.685242551391625,0.054844424289221455
25.244732,3.694416333220417,0.054619843985181715
25.247116,3.7026589494894306,0.054396314649171745
25.24952,3.7082478387059705,0.054164404023446626
25.251908,3.7167699942287045,0.053915718944775495
25.254287999999995,3.7342317182968845,0.05360521186975333
25.256692,3.752345068671122,0.05331797400099762
25.25908,3.765523051992748,0.05306350675849107
25.261464,3.7734861290080417,0.052863313707012895
25.26386,3.7805180404635568,0.052665711181565183
25.266248,3.7866187863592935,0.05246953322316667
25.268628,3.789366957068254,0.05232401080932529
25.271024,3.786388364791685,0.052198536053263335
25.273408,3.7831302332613954,0.052094738274396486
25.275792,3.7834569943433594,0.05199740521538671
25.278196,3.7851342298656823,0.05186693243502589
25.280584,3.7917468324406167,0.0517123579593377
25.282964,3.802503406135245,0.051522667714170786
25.28536,3.8166125550166496,0.05128791581136939
25.287748,3.8268572720320804,0.051070888833844794
25.290128,3.83817292423415,0.050843594887100156
25.292524,3.8488369501301616,0.05059896713569556
25.294912,3.860571911212811,0.050343173638543355
25.297296,3.876311073788295,0.050064255004675956
25.299692,3.8901879052442223,0.04978709009616492
25.30208,3.896196103341341,0.04954443061615367
25.30446,3.9023440710653214,0.04929271870226923
25.306856,3.9123564706552747,0.04902981162167398
25.309244,3.9263730717380616,0.04874492617516613
25.311623999999995,3.94038967282085,0.04846098992573121
25.31402,3.9551976698365547,0.04818711969261575
25.316408,3.9672121701729246,0.047911852519850764
25.318791999999995,3.977876196068936,0.04766817918385001
