Time,Force,Position
8.901119999999999,0.06678761105768356,0.0
8.903516,0.06920902068468104,0.0
8.905904,0.07335299180437496,0.0
8.908284,0.07149066068481832,0.0
8.910687999999999,0.07149066068481832,0.0
8.913072,0.07707765404348824,0.0
8.915455999999999,0.0798711507228232,0.0
8.917848,0.0835958129619365,0.0
8.920236,0.08732047520104977,0.0
8.922616,0.0962600437464955,0.0
8.925011999999999,0.10398890747844247,0.0
8.927399999999999,0.11129846232980882,0.0
8.92978,0.12221916453482143,0.0
8.932184,0.13300009711297384,0.0
8.934572,0.14403431420345345,0.0
8.936952,0.1513438690548198,0.0
8.939347999999999,0.161985032006112,0.0
8.941735999999999,0.16915481723061815,0.0
8.944116,0.17031830021587377,0.0
8.946512,0.16705827282771504,0.0
8.9489,0.1640777846932767,0.0
8.951279999999999,0.15695332543914445,0.0
8.953676,0.15183096693142906,0.0
8.956064,0.14750000435663174,0.0
8.958444,0.1441002073416128,0.0
8.960847999999999,0.13490206662929663,0.0
8.963236,0.12863719222317563,0.0
8.965615999999999,0.12144115225727632,0.0
8.96802,0.114245112291377,0.0
8.970403999999998,0.10504697157906083,0.0
8.972788,0.09691976605338319,0.0
8.975183999999999,0.08800116459478743,0.0
8.977571999999999,0.07708046238977484,0.0
8.979951999999999,0.06629952981162245,0.0
8.982348,0.054727201300551954,0.0
8.984736,0.045368323874525586,0.0
8.987115999999999,0.035729907194778816,0.0
8.989516,0.0273703842436239,0.0
8.9919,0.02101296203888584,0.0
8.994283999999999,0.019662487598526887,0.0
8.99668,0.017520617225249824,0.0
8.999063999999999,0.015518516478832975,0.0
9.00146,0.010371799087593657,0.0
9.00386,0.007366952069631398,0.0
9.006243999999999,0.0034309394918908206,0.0
9.008628,0.00457345539029644,0.0
9.011024,0.00464503610206353,0.0
9.013412,0.00471661681383062,0.0
9.015796,0.008792399018431405,0.0
9.018192,0.013799346782810511,0.0
9.02058,0.02173956085338479,0.0
9.02296,0.025675573431125368,0.0
9.02536,0.0316136867552828,0.0
9.027748,0.038622735266078755,0.0
9.030128,0.0487048197099301,0.0
9.032532,0.05936694974807225,0.0
9.03492,0.06923768385329629,0.0
9.0373,0.0821132649764826,0.0
9.039692,0.0948490764728087,0.0
9.04208,0.10672191132444958,0.0
9.04446,0.11803566766864963,0.0
9.046856,0.13321385587882317,0.0
9.04924,0.14739268961412527,0.0
9.051636,0.16329408484212382,0.0
9.054032,0.17998687600304047,0.0
9.056416,0.1963285471984696,0.0
9.058796,0.2145325495134554,0.0
9.061192,0.23539027888091593,0.0
9.06358,0.24954285787482486,0.0
9.065964,0.2649986894808496,0.0
9.06836,0.27696217627323827,0.0
9.070744,0.29595567866327294,0.0
9.07314,0.3133191673592282,0.0
9.075536,0.331054743107521,0.0
9.077924,0.3447388955347369,0.0
9.080304,0.3589349046411505,0.0
9.0827,0.3741546271059595,0.0
9.085088,0.3906776021828842,0.0
9.087468,0.41036616099148143,0.0
9.089864,0.4309386635316138,0.0
9.092248,0.45374558424364025,0.0
9.094644,0.4752945783139248,0.0
9.09704,0.5009403216756603,0.0
9.099428,0.5248162817164559,0.0
9.101808,0.5509266599291458,0.008043372396175827
9.104204,0.5799230826197876,0.01594790887526467
9.106592,0.6090120531090466,0.024051744908961007
9.108972,0.6344689091578095,0.032584364551656954
9.111376,0.6656525281921024,0.04094814521453428
9.11376,0.6976275431593135,0.04916257190351402
9.116144,0.734910012231474,0.0571084885256176
9.11854,0.7732634164902731,0.06481693768334397
9.120928,0.8139910085478265,0.072521066045936
9.123308,0.8540197524710788,0.08041666804441906
9.125704,0.8969817627005262,0.08833499250879451
9.128088,0.9404556296091715,0.0963158650796633
9.130484,0.9870025324508721,0.10409442647465386
9.13288,1.0311280256655753,0.11200289215785843
9.135268,1.0743223533205,0.11989386236427549
9.137648,1.1196585513487016,0.12770343901568612
9.140044,1.1662054541904021,0.1354035533638291
9.142432,1.2113093347931267,0.14321321637986803
9.144812,1.2548304235300152,0.15103635124719822
9.147208,1.3024954833865976,0.15869881244887826
9.149596,1.3493691473102616,0.1582778978699335
9.151992,1.3968018897413663,0.15782543168845184
9.154392,1.450380704038582,0.15688243134479254
9.156776,1.506753015015133,0.15556574924092434
9.15916,1.5632650956185439,0.15435110441815514
9.161556,1.6159127443559813,0.15344042702778993
9.163944,1.6640443349213876,0.15288447231976218
9.166324,1.70831149362082,0.1526518181808561
9.16872,1.7522065652679153,0.1523685955976905
9.171107999999998,1.7974521113553692,0.1518911569544444
9.173488,1.8416267222561846,0.1514799895923727
9.175888,1.887803433903417,0.1509431704644714
9.178272,1.9326296711102902,0.15061248868308494
9.180656,1.9821117361160552,0.1500407882695721
9.18306,2.0348991544803527,0.14940622864474248
9.185448,2.0871274943372096,0.14890204620405018
9.187828,2.1431730442317964,0.14840701697538297
9.190224,2.204106739350753,0.14777323527828803
9.192612,2.2664362348804414,0.1472338841138128
9.194992,2.328578738955027,0.14689147044453926
9.197388,2.38904400750729,0.14678860195954196
9.199776,2.448251349417811,0.14691667179168266
9.202156,2.499403066514421,0.1475590545555123
9.204552,2.5555826984622616,0.14805507340338492
9.20694,2.612226965261055,0.14867524629945442
9.209332,2.6774840395233324,0.1490276542654067
9.211728,2.7512141516222304,0.14916376700969056
9.214116,2.8294131000649165,0.14922744974063798
9.216496,2.9080766833585576,0.14941019971594158
9.218892,2.990557476689929,0.1495526160644514
9.22128,3.0791371200591677,0.1495277857760148
9.22366,3.1672974545478265,0.14957157494908277
9.22606,3.2551782497827637,0.14963997635906828
9.228448,3.3381236779650894,0.14989378840757397
9.230828,3.418275609468081,0.1502414606831794
9.233224,3.5048531520909028,0.15035545336779851
9.235612,3.585471614302718,0.150602357950619
9.238008,3.663995427969498,0.15085556391950702
9.240404,3.7440567075317417,0.1509336101083134
9.242792,3.82337381298931,0.1509424624763673
9.245176,3.9073014202753957,0.15066910776870351
9.247572,3.990484853456807,0.15032395678660002
9.24996,4.081723911452128,0.14964118490978356
9.25234,4.166631801984105,0.14906490786666493
9.25474,4.252285762478626,0.14836421973592906
9.257128,4.331468785882942,0.14778505330562694
9.259508,4.402178771450636,0.1473725344953295
9.261904,4.469211316607459,0.14697626370574007
9.264292,4.536151313965666,0.14652084652179798
9.266676,4.597923626845783,0.14615890838276135
9.269072,4.651455219314756,0.14597179368383695
9.27146,4.703124480664172,0.1458218856230519
9.27384,4.756376533879424,0.14565312340614164
9.27624,4.816006976386264,0.1453568898951887
9.278628,4.875218110012523,0.1450911197660255
9.281012,4.927304784384651,0.14508380350070343
9.283408,4.980927028794371,0.14510939760843566
9.285792,5.037947174361243,0.14514347807206104
9.288172,5.097014746644903,0.1452407052891845
9.290568,5.15491694008544,0.14547096794679665
9.292952,5.212724689869488,0.14581323144386105
9.295348,5.274954054169082,0.14618109701110002
9.297744,5.335738500371832,0.14670233294404894
9.300132,5.403178979262021,0.14723204281949712
9.302512,5.473411058973675,0.147851450943266
9.304908,5.549787314693571,0.14846703271339476
9.307296,5.630165876048432,0.14912053058273403
9.309676,5.717899318225033,0.14973224462188123
9.312072,5.8103339141709,0.15034176747919897
9.31446,5.912684570192363,0.15083810439643155
9.316856,6.028164091849341,0.15115043012279902
9.319252,6.150766176902582,0.1513979876291186
9.321636,6.277604780874133,0.1515986810208339
9.32402,6.402953140778468,0.15185338535477286
9.326416,6.535471285907308,0.1520100911852235
9.3288,6.670643158088622,0.15211310629300506
9.331184,6.807025735083436,0.15216842865783117
9.33358,6.941965289839275,0.15223068759758238
9.335968,7.076952066423356,0.1522586779624488
9.338352,7.220972855209368,0.15206096844356137
9.340748,7.366670879517704,0.15178070754652603
9.343136,7.509809620430051,0.15145905578526114
9.345516,7.652530948319687,0.15105582500280437
9.347912,7.7935316105744965,0.1505751100120962
9.3503,7.930018110515143,0.15004832716006136
9.352696,8.063713009634323,0.14946874808466593
9.3551,8.197037717559036,0.14877096371612442
9.357488,8.32291499686339,0.1480759456772728
9.359868,8.444557653107307,0.1473329438470328
9.362272,8.555540075170946,0.14665272496295587
9.36466,8.655722493427453,0.14604503647009548
9.36704,8.75045958381002,0.1454150690681907
9.369444,8.83705039743793,0.14481670205096028
9.371828,8.918288430990513,0.14421182297487886
9.374208,8.989378087042022,0.1436642699944662
9.376604,9.056465437458563,0.14307961017183785
9.378992,9.123135374852394,0.14242794395826888
9.381372,9.182962288103687,0.14180139809397813
9.383776,9.23659780351849,0.14120758545922185
9.38616,9.27626583553662,0.1407717363967776
9.38854,9.310394096024323,0.1403688164941538
9.390944,9.343638412780493,0.13994952826271773
9.393332,9.368642009125514,0.13961072702312657
9.395712,9.386475820246034,0.13933784995230963
9.398116,9.40007311244824,0.13909492484787206
9.4005,9.407292015358857,0.13891255366119254
9.40288,9.412928126403639,0.13873878954796365
9.405276,9.417912611142365,0.13856300443639655
9.407664,9.416751024014978,0.13846495551186194
9.410044,9.416939911327951,0.1383407541024208
9.41244,9.415126697894506,0.13824042332373254
9.414824,9.408098578154728,0.13820820128983013
9.417204,9.40200162397473,0.13816687087445254
9.4196,9.396696065727651,0.13812222037911204
9.421988,9.395254939346545,0.13803613851892052
9.424368,9.394325669644635,0.13795826983251894
9.426764,9.39139429919631,0.13790386306888264
9.429148,9.392467130240817,0.13780320076457417
9.431544,9.392608795725547,0.13771122180672132
9.43394,9.395823497143331,0.13758125988202988
9.436328,9.396104932254921,0.13748330371510534
9.438708,9.39038006512726,0.13745500252315077
9.441104,9.388427082066956,0.1373606202733695
9.443488,9.38740526456643,0.13725716954088196
9.445868,9.390247878931877,0.1371128400623875
9.448272,9.394021658857104,0.1369592248544578
9.45066,9.391928906169937,0.13686996461214784
9.45304,9.391046858296273,0.1367606190318749
9.455436,9.393796924863103,0.1365903808723797
9.457824,9.393473955496878,0.13645794628455415
9.460204,9.38970586314526,0.13634892737074608
9.4626,9.38770755411458,0.13619625033855134
9.464984,9.380122251725233,0.1360969846349104
9.46738,9.36895205672363,0.1360279185392978
9.469776,9.348190666870527,0.1360613077453695
9.472164,9.326917420338226,0.13608569144262816
9.474544,9.302571137872867,0.13614846192998717
9.476948,9.273708797235477,0.13625002034221917
9.479336,9.243263664732252,0.13635882365944127
9.48172,9.21202713629611,0.13647064715506407
9.484116,9.182792708606382,0.1365586717979606
9.4865,9.15583992091679,0.13661178438401841
9.48888,9.126885032480786,0.13668796793155044
9.491276,9.102353654418192,0.13669685921735697
9.493664,9.069022477437013,0.1368058629544839
9.496044,9.036110609336417,0.13689698435939163
9.49844,9.006271777168875,0.1369500758151781
9.500827999999998,8.9724287435085,0.1370510386998357
9.503224,8.939097566527321,0.13715848501709077
9.50562,8.906977094359641,0.1372454347936415
9.508004,8.882445716297052,0.13725344953801805
9.510384,8.8565638637941,0.137287922755913
9.51278,8.834825982410843,0.13726880322761126
9.515168,8.816580445841222,0.1371920266106496
9.517548,8.80541214669749,0.1370267046429373
9.519944,8.791450350874422,0.13688874546998148
9.522332,8.778699259864855,0.13672913819285967
9.524728,8.767810499974845,0.13655035115587344
9.527128,8.759435697510446,0.13635519075146268
9.529516,8.75092112541919,0.13616578665641882
9.531896,8.741615157395014,0.13597941753112433
9.534292,8.732169419743977,0.13579875374244485
9.53668,8.726168805078334,0.1355927506001263
9.53906,8.711740478546442,0.13550340164899802
9.541464,8.708253821306416,0.13528070451078794
9.543848,8.700343653692972,0.1351251903219396
9.546232,8.694295817199087,0.13495073021800133
9.548628,8.691041477384534,0.13474761798327303
9.551012,8.685924806450428,0.13456329862708566
9.553392,8.678526495516182,0.1344157076480775
9.555788,8.666332587156186,0.1343210488676901
9.558176,8.656652636221805,0.13421042254440302
9.560556,8.64827593789954,0.1341054231731379
9.562952,8.638129456256333,0.13404621980412668
9.56534,8.626632500172768,0.13401442131775107
9.567736,8.615507631141542,0.13399818494077592
9.570132,8.603172057296815,0.13400371979231981
9.57252,8.588694613078811,0.13404079368676577
9.5749,8.573425772927887,0.13408098676207944
9.577304,8.557365536844049,0.13412473781750694
9.579688,8.54009459594671,0.13419068433394957
9.582072,8.522823655049372,0.1342566114727669
9.584468,8.50075711672628,0.13437631551107393
9.586856,8.484836650269303,0.13441444070388486
9.589236,8.463701277505994,0.13452357431255485
9.59164,8.451505473288126,0.13452232592097474
9.594028,8.435165697950568,0.13457786536999147
9.596407999999998,8.419757088172785,0.13462319349662225
9.598804,8.403277543208365,0.13468457392512687
9.601192,8.390150573430718,0.13469252340300183
9.603576,8.379165474026353,0.13466862040342933
9.605972,8.367948057196509,0.13462234775400467
9.608356,8.35435645256791,0.13458542085802927
9.61074,8.34118415681989,0.13452959863086533
9.613144,8.328011861071873,0.13447377086385184
9.615528,8.319402845324129,0.13434214433978264
9.617912,8.310793829576385,0.13421023614550004
9.620308,8.304047144948198,0.13405890244036303
9.622696,8.299442330693289,0.133875716913159
9.625076,8.298050321998295,0.13364494000904562
9.627472,8.29572714774352,0.13342257560257498
9.62986,8.29140187274233,0.13322502642049472
9.63224,8.291080799233974,0.13297577973277266
9.634636,8.287686689792563,0.1327680883969409
9.637023999999998,8.280428148485178,0.13260466781802457
9.639404,8.264509577886068,0.13254153708480443
9.641804,8.251803812846875,0.13242967403558384
9.644192,8.236444320755206,0.13234020851642989
9.646572,8.222295533477036,0.13222780139157167
9.648968,8.205865106198729,0.13215406051185483
9.651356,8.19008630522648,0.13208274252797214
9.653736,8.170815159440593,0.13207281920367886
9.656136,8.152335409587627,0.1320595485625275
9.658524,8.137440552346911,0.13201297917698734
9.66092,8.12682943585275,0.13190149010989705
9.663316,8.110072247492479,0.13187270040830265
9.665708,8.093315059132209,0.13184431316277329
9.668088,8.082564173011187,0.13173841085315938
9.670484,8.069671416516888,0.1316638140142974
9.672868,8.05635935114201,0.1316076401827968
9.675252,8.045980552073328,0.1315169471552784
9.677656,8.0374640841242,0.1314073237160781
9.680044,8.023732709868742,0.13137076543201665
9.682424,8.01121204042678,0.13131167954882503
9.68482,8.00562883878385,0.13116623931040694
9.687208,8.005912169753309,0.1309496697666665
9.689588,8.006986896655686,0.13073052958638892
9.691987999999998,8.00871324986412,0.13051426681630487
9.694372,8.009228898259057,0.1303200745017591
9.696752,8.012538043333327,0.13009694182414147
9.699148,8.011842986914765,0.12992495035769766
9.701536,8.015291901615896,0.12969437175645446
9.703916,8.022605248183002,0.1294200116542138
9.706312,8.024471371018297,0.1291966711819614
9.708696,8.021913983480179,0.12904431548469736
9.711092,8.026154294114226,0.12881306676516976
9.713496,8.03453857586797,0.12852529658491754
9.715884,8.036125159449544,0.12831705140451696
9.718264,8.041436405270234,0.12807290372943833
9.720668,8.043534845531005,0.12787529069446052
9.723052,8.046704220978416,0.1276626719333568
9.725436,8.05387779791866,0.12740199207078537
9.727832,8.068268381911656,0.1270461148954307
9.730216,8.084241757770485,0.12668570708330024
9.7326,8.09714209769626,0.1263661819781724
9.735004,8.110833833554954,0.1260464378273615
9.737388,8.12159230310745,0.12575946487716402
9.739768,8.133281938219726,0.1254634881218492
9.742164,8.149627401130894,0.12512429608940775
9.744552,8.170256604788616,0.12472998024895501
9.746932,8.193819074752533,0.12430154529234697
9.749336,8.215099904716311,0.12391003025861537
9.751724,8.230374432440842,0.12358977741106243
9.754104,8.249094083150762,0.12324719698292823
9.756508,8.270095373860821,0.12286918494268353
9.758892,8.285230131958492,0.12255602782299059
9.761272,8.301156285989078,0.12224436935449011
9.763668,8.316011504833027,0.12194537239324389
9.766056,8.325279730318305,0.12169768224605206
9.768436,8.336177969497662,0.12140948658112771
9.770832,8.346145043117243,0.12113092038313472
9.773219999999998,8.351596058564791,0.12088902987983219
9.7756,8.353322411773226,0.12068129875422419
9.777996,8.351463872369408,0.12049992300932287
9.780384,8.352957908152364,0.1202697364108649
9.782763999999998,8.353940087256124,0.12003039989323101
9.78516,8.360928568599135,0.11972575827001557
9.787548,8.370198689942283,0.11938843586270696
9.789928,8.379236493859953,0.11903195030542554
9.792336,8.378263794045541,0.11878321279085827
9.794724,8.378641568671485,0.11850930739791588
9.7971,8.382371918484203,0.11818920721486133
9.799504,8.391317174603255,0.1178071828820714
9.801892,8.399610804416252,0.11742180256653593
9.804272,8.403900232736412,0.11707803634877659
9.806676,8.415127128855602,0.11666481276697631
9.80906,8.422489593108818,0.11628904845518528
9.81144,8.43893139553434,0.11582010552037883
9.813835999999998,8.458306464266055,0.11532220374857942
9.816224,8.477401993744051,0.11483598456884966
9.818604,8.49556635766227,0.11435764982652075
9.821,8.51610490937924,0.11387549665887271
9.823388,8.539436957775546,0.11337416802334116
9.825784,8.570637639530663,0.11280131837193468
9.828176,8.5996964509125,0.11225843390907832
9.830564,8.625402687107561,0.11176076866250062
9.832944,8.646592865130591,0.11129633838591957
9.835348,8.665920712034064,0.11084858003453238
9.837732,8.679102487071427,0.11046474278772696
9.840112,8.700572204348179,0.1099922405698222
9.842516,8.720179590505374,0.10953489751941867
9.8449,8.737273019236955,0.10908865484656989
9.84728,8.751852490542921,0.10865306843089166
9.849676,8.766991040356325,0.10819648508691943
9.852064,8.784970308677313,0.10768643154207892
9.854444,8.797642122893347,0.10720651986610663
9.856844,8.807799979683768,0.10673230364747192
9.859228,8.809297807182464,0.10632872681881535
9.861624,8.81121494356174,0.1059089996724398
9.864028,8.815413719941155,0.10546077907131464
9.866412,8.820823201134068,0.10499557236416689
9.868792,8.824138033781951,0.10452086261216972
9.871188,8.822657269004075,0.10408196969835147
9.873576,8.813727179747977,0.10369193905028842
9.875956,8.804145464185819,0.10329640363082569
9.87836,8.797124927877519,0.10286079100151345
9.880748,8.788102290822804,0.10244096383439757
9.883128,8.77735709227539,0.10202650785418069
9.885524,8.771966569661169,0.10155428431818492
9.887912,8.761780449621197,0.10111695763219396
9.890296,8.75280503439472,0.10066262926362439
9.892691999999998,8.742339375101029,0.10023484145207595
9.89508,8.734527442859811,0.09979637305789237
9.89746,8.724294100991596,0.09939020895834777
9.899864,8.71429307654886,0.09900564409475048
9.902252,8.70387274322554,0.09863614060060416
9.904632,8.700110338447528,0.09822322828165378
9.907028,8.697279099229297,0.09780319542498017
9.909415999999998,8.690303888891371,0.09741982176190697
9.911796,8.683608217807166,0.09702644299903497
9.9142,8.674910445976543,0.09664838646146592
9.916588,8.669006170825256,0.096254625345229
9.918968,8.669247967540079,0.09580888748894348
9.921364,8.673354196120876,0.09533742819551834
9.923756,8.677320655074814,0.09487125867856208
9.926136,8.683149445148308,0.09439751274245951
9.928532,8.693773832647553,0.09389456571672006
9.93092,8.70826265201277,0.09336867937047877
9.9333,8.720330061750992,0.09287539593753451
9.935696,8.733188867422133,0.09238238212397172
9.938084,8.74562836421269,0.0919068151383194
9.940464,8.760489270630247,0.09140071951786338
9.94286,8.77041480999519,0.09092888423423082
9.945248,8.781131745293054,0.09045685634052515
9.947628,8.79613242133747,0.08994936305732361
9.950032,8.817139399621137,0.08940240061028917
9.95242,8.834561485292552,0.0888711016058046
9.9548,8.855987772456798,0.08831419437073447
9.957196,8.885142923352992,0.08771484695015162
9.959584,8.914018534995465,0.08713057082531646
9.961964,8.947689744063693,0.08652383148225576
9.96436,8.982152349064837,0.08592373872229414
9.966748,9.009397947013232,0.08537865653967604
9.969144,9.03436190496149,0.08485880350383532
9.971544,9.06346983402944,0.08431224271200559
