Time,Force,Position
4.954560000000001,0.05972803492025828,0.0
4.956940000000001,0.07029761715978337,0.0
4.959336,0.08286930014572531,0.0
4.961724,0.09544098313166727,0.0
4.964104000000001,0.11294803317022123,0.0
4.9665,0.1340360022438907,0.0
4.968884000000001,0.15512397131756017,0.0
4.97128,0.1740700700179526,0.0
4.973676000000001,0.19194523353170648,0.0
4.976064000000001,0.20902900111254225,0.0
4.978444,0.22397089832010095,0.0
4.980840000000001,0.23984396108743794,0.0
4.983228,0.2521361048196595,0.0
4.985608000000001,0.2633573133652425,0.0
4.988012000000001,0.27378712597790744,0.0
4.990400000000001,0.28514810415035063,0.0
4.99278,0.28756951377734813,0.0
4.995176000000001,0.28719742672501064,0.0
4.997564000000001,0.28547486523231425,0.0
4.999948,0.28067926780656244,0.0
5.002344000000001,0.2750922744478925,0.0
5.004732000000001,0.26391828773055265,0.0
5.007112000000001,0.24939172582643696,0.0
5.009508,0.23686726466873817,0.0
5.011896,0.22313209869754064,0.0
5.014292000000001,0.20525296160664913,0.0
5.016688,0.18630288932911915,0.0
5.019076,0.16949468742486623,0.0
5.021460000000001,0.1537574207072519,0.0
5.023856,0.1366736531264161,0.0
5.02624,0.12173175591885743,0.0
5.028624000000001,0.10585869315152041,0.0
5.03102,0.09198773113060021,0.0
5.033408,0.07811676910968005,0.0
5.035788,0.06610813820831649,0.0
5.038184000000001,0.05316834174717463,0.0
5.040572000000001,0.04557924764208784,0.0
5.042952,0.03943714935311464,0.0
5.045348000000001,0.033434820691001656,0.0
5.047736,0.029434592775305517,0.0
5.05012,0.024223660046110637,0.0
5.052516000000001,0.020735288809612194,0.0
5.0549,0.018457622386612485,0.0
5.057296000000001,0.014177855217195931,0.0
5.059692,0.010037857674639581,0.0
5.06208,0.006829025691861555,0.0
5.06446,0.006177399385803655,0.0
5.066856,0.004594607519967434,0.0
5.069244000000001,0.005153686027408275,0.0
5.0716280000000005,0.009712992450545252,0.0
5.074032000000001,0.01548300368718097,0.0
5.076420000000001,0.022323950110455217,0.0
5.078800000000001,0.027162795787312614,0.0
5.081196,0.036005842957003716,0.0
5.083584,0.044057494193776706,0.0
5.085968000000001,0.04903610949749432,0.0
5.088364,0.05252845431113033,0.0
5.090752,0.059509170361264796,0.0
5.093132000000001,0.06541895122476073,0.0
5.095528,0.07225989764803498,0.0
5.097916,0.07602780813825384,0.0
5.100300000000001,0.0797957186284727,0.0
5.102696,0.08449479467846989,0.0
5.105084,0.0902648059151056,0.0
5.107464,0.09789714827129797,0.0
5.109860000000001,0.1012457498809362,0.0
5.112248000000001,0.10017481469429765,0.0
5.114632,0.10203714581385429,0.0
5.117028,0.10054690174663512,0.0
5.119416000000001,0.09826526174649786,0.0
5.1218,0.0966352480524185,0.0
5.124196,0.09458592547775849,0.0
5.126584000000001,0.09640103476907198,0.0
5.12898,0.09113890663449639,0.0
5.131372000000001,0.08452630405956185,0.0
5.1337600000000005,0.08392000372387788,0.0
5.136140000000001,0.08238253782841556,0.0
5.138536,0.07670110081325933,0.0
5.14092,0.07395293010429826,0.0
5.1433040000000005,0.06971451532811807,0.0
5.145708000000001,0.07213402909724631,0.0
5.148092,0.07627610435907098,0.0
5.150472000000001,0.08214074111359208,0.0
5.152868,0.0863753641740338,0.0
5.155256,0.08911974316725636,0.0
5.157652000000001,0.09651994995937055,0.0
5.160048,0.1057352660427982,0.0
5.162436,0.11397219473820439,0.0
5.164816,0.12644564235192154,0.0
5.16722,0.13952349444345344,0.0
5.169608,0.15269389433360242,0.0
5.171988000000001,0.167027777209007,0.0
5.174384,0.18396816530864313,0.0
5.176772,0.20737949049848436,0.0
5.179156000000001,0.23553919128583428,0.0
5.181552,0.26216142617772187,0.0
5.18394,0.2949750589060941,0.0
5.18632,0.33011565760497763,0.0
5.18872,0.36679182634145413,0.0
5.191108,0.40663357880960305,0.00925383944488087
5.193488,0.4414927423968968,0.019239069997704587
5.195892000000001,0.4761649145290873,0.029382683108897162
5.198276,0.5095791600195358,0.03974521356501201
5.200660000000001,0.546950385174575,0.04992479010272052
5.203056,0.5866957981283684,0.059963449815838385
5.205440000000001,0.6338905355603884,0.06911184931181477
5.20782,0.6883022800451576,0.07771314669845904
5.210216000000001,0.745647290836122,0.08610375502168324
5.212604000000001,0.8008504312538096,0.09462516532071236
5.214980000000001,0.8555417149922991,0.10319075998502925
5.217376,0.9080911283575118,0.11200691811897001
5.219764,0.9609200809764449,0.12077826621784729
5.222156,1.005368543557373,0.13015630848650242
5.224552000000001,1.046651422406629,0.13966027986077698
5.226940000000001,1.0892847756962434,0.14891645854068117
5.22932,1.1324772074932992,0.15815722302894783
5.231724,1.172364285931822,0.16750799793742138
5.234108000000001,1.2177458099303977,0.17641005398720275
5.236488,1.2621961683691951,0.18534000548062862
5.238892,1.3074379227409108,0.18497278295191172
5.24128,1.3633418071507681,0.18340170395472286
5.24366,1.4217596489862405,0.1816536316007937
5.2460640000000005,1.4829709875010475,0.17964208915102334
5.248448,1.5460446571354112,0.17769653390630377
5.250828,1.6116322841953894,0.1757855635208932
5.253232000000001,1.667581494575621,0.17508955549206495
5.255616,1.7171976416346386,0.17522286508775967
5.257996,1.7647644661189963,0.1756921811804528
5.260400000000001,1.8128431472825515,0.17612832795607672
5.2627880000000005,1.865670204043615,0.17638766492038185
5.265168000000001,1.925015419723127,0.17620806628983046
5.267572,1.9904594854405067,0.17582026056529707
5.269960000000001,2.066937768248366,0.17465805413819083
5.272336000000001,2.1492353618403723,0.17327183789598302
5.27474,2.2316255032309957,0.1721290202509257
5.277128000000001,2.3161102931666533,0.1709974469874064
5.279508,2.408556264259735,0.1695763174788346
5.281904000000001,2.49695081203174,0.16868430028213222
5.284288,2.590373274654974,0.16767722650828365
5.286672000000001,2.6868215513830203,0.16667614716202347
5.289076,2.775353972924016,0.1662949626663903
5.291460000000001,2.863978942263629,0.16599253772571262
5.293840000000001,2.9542792512676956,0.16575200837188184
5.296236,3.045835591055634,0.16564653450578248
5.298624,3.1400909838664215,0.16565405357478907
5.301004000000001,3.248266638245641,0.1652082583210957
5.3034,3.368779762327456,0.16436493011338052
5.305784000000001,3.495996140924952,0.16341191692688004
5.308168,3.633872753702722,0.1623172029292646
5.3105720000000005,3.773237714689842,0.16141133853188294
5.312956,3.9144631109386485,0.16073822978206928
5.315340000000001,4.054475906516088,0.16039911863304918
5.317736,4.196349137355214,0.16025757172964095
5.320124,4.342224673829305,0.16021464560883644
5.322504,4.497037882990973,0.1601161957240825
5.324908000000001,4.66027690816102,0.15995662067640384
5.3272960000000005,4.825423590420996,0.1599384581980269
5.329676000000001,4.997972375330956,0.1598026447336166
5.332072,5.172615808785951,0.1597093701047174
5.334456000000001,5.349773199666559,0.15960958361731337
5.336852,5.534519684652254,0.15932063288606102
5.339248,5.723689680011367,0.15891539544301106
5.341632000000001,5.914769228318278,0.15844459235259273
5.344012000000001,6.105523911401095,0.1579199078221819
5.34642,6.292927915155005,0.15736419107526672
5.348804,6.471766333273677,0.1569321497129029
5.351184,6.644460575384107,0.15655970303420064
5.353580000000001,6.811989028874317,0.1561385905103409
5.355964,6.970766801132053,0.15573571261718275
5.358348,7.1268001943965675,0.15522026591033622
5.360744,7.276224776801886,0.1546513015356623
5.363132,7.421601727601865,0.153961857584338
5.365512000000001,7.561208485303809,0.15319077831625122
5.367908,7.6938343450942215,0.1523745012085793
5.370296,7.810819277681374,0.1516435970433671
5.372692000000001,7.914397701237162,0.15098868056594988
5.375088,8.00629217725428,0.15038263696262233
5.377476,8.091158533531623,0.14976902640736256
5.379856,8.166295821188472,0.1492064090833541
5.3822600000000005,8.22835146503805,0.14874978746256604
5.384648,8.281748975453771,0.14832199728362933
5.387028000000001,8.327372296167173,0.1479459900524444
5.389432000000001,8.363359096058694,0.14763986231968418
5.391820000000001,8.39408566367351,0.1473586750996335
5.3942,8.4180617549444,0.1471365947011175
5.396596000000001,8.440502276177696,0.1468911693117383
5.398984,8.457914882559765,0.1466906444199795
5.401364000000001,8.475607028195553,0.14648033478739345
5.40376,8.493346395659584,0.14623899725697412
5.406148,8.508292266444279,0.14603328153972164
5.408528,8.524728381296194,0.14579352263741216
5.410924,8.537160294655276,0.14560966367189243
5.413312,8.548381503200858,0.14545105103816816
5.415692,8.557740380626887,0.14531466531563866
5.418096,8.571755085851805,0.14512670934395785
5.420484,8.58805143107686,0.14489982032854748
5.422864000000001,8.604487545928777,0.1446659372085309
5.42526,8.618781790407414,0.14446703119034257
5.427648,8.632284638953132,0.1442716016218536
5.430028,8.654075429738242,0.14395674610863207
5.432424000000001,8.675307142015908,0.14366688353621
5.434812000000001,8.697889328733933,0.143350053840248
5.437192,8.723265012131295,0.14300201117737882
5.4395880000000005,8.749991169969016,0.142627952552197
5.441976,8.782072003739929,0.14217339184839387
5.444372,8.809217470458227,0.14178098175271206
5.4467680000000005,8.834500606056972,0.14140879474445536
5.449156,8.856338618670323,0.14106751249913788
5.451536000000001,8.872821955350481,0.14080793479898132
5.453940000000001,8.888793435351444,0.14054171699138374
5.456328000000001,8.902762814605987,0.14030335402612762
5.458708,8.91915360348753,0.14002150163197216
5.461104000000001,8.931679960503098,0.139784777897471
5.4634920000000005,8.942995612705166,0.1395704850182387
5.465872000000001,8.951377998601039,0.1393916638768641
5.468268,8.958549679683417,0.13923512364646762
5.470656,8.963998799273094,0.13909109592334415
5.4730360000000005,8.968144666250657,0.13894236598013715
5.475436,8.97378077729544,0.13875983210786658
5.477824,8.975552456474249,0.13862262468923586
5.4802040000000005,8.981096019720415,0.13841590858115776
5.4826,8.982775151100608,0.1382529345886159
5.484988,8.985804756921159,0.13806348612781413
5.487372000000001,8.983619456435378,0.13794426161443943
5.489768,8.97836112001654,0.13786486108237808
5.492156,8.976455358784477,0.13773378638308117
5.494536,8.972827036059718,0.13761495685519454
5.496932000000001,8.968127778148322,0.13751132370068825
5.499320000000001,8.964778994677287,0.1373801490251717
5.501704,8.958357175273193,0.13728895513004463
5.504100000000001,8.948210693629987,0.137235226057275
5.506488000000001,8.932849305680449,0.13725281935656752
5.508884,8.918558852917549,0.13725531590612064
5.511280000000001,8.905618874595007,0.13722982443016488
5.513668000000001,8.896031471459244,0.13715164163870816
5.516048,8.885373133136838,0.13708885315875796
5.518452,8.878299687426688,0.1369943071778263
5.52084,8.865452256902765,0.13699609978606003
5.52322,8.851114582311622,0.13703157803459537
5.525616000000001,8.836776907720479,0.13706663707935546
5.528004000000001,8.817364096449861,0.13716620835870375
5.530388,8.797159889246329,0.137270346080762
5.532784,8.773231019803681,0.13741149110326778
5.5351680000000005,8.754656826294228,0.13747465007439047
5.537548000000001,8.734360071292079,0.13755082402878244
5.539952,8.714063316289929,0.13762607960791548
5.542340000000001,8.697910532407471,0.13764512256708153
5.54472,8.681106122218957,0.13766155333040736
5.547116000000001,8.66644358240372,0.1376462371872096
5.549504000000001,8.65285197777512,0.13761548118415612
5.551884000000001,8.644335509825995,0.13751888931614198
5.554288,8.64117371781006,0.13734415623922214
5.556676,8.640293565794263,0.1371322476397191
5.559056,8.632615715606297,0.1369981520182198
5.56146,8.620933663925499,0.1369139348723466
5.563848,8.607529050752003,0.13684268328661162
5.566228000000001,8.591330940899175,0.13679992715193895
5.568624,8.58370031253945,0.13663118306404926
5.571012,8.576209453806587,0.13645599869098787
5.573392,8.565925098394391,0.1363094131786694
5.575796,8.55736330447489,0.13614945099541165
5.578184,8.554528273540921,0.13592517757794928
5.580564000000001,8.55248463853987,0.13569692347974593
5.58296,8.544434701299565,0.1355451221711243
5.585348,8.537455699245902,0.13537696146013078
5.587728,8.527263891632323,0.13525647787941208
5.5901320000000005,8.514790444018606,0.135173936080278
5.59252,8.502968622710947,0.13509411146064024
5.594900000000001,8.48886516140315,0.13505213303079844
5.597296,8.473690764908714,0.13502623279384815
5.599680000000001,8.455443332481224,0.13504105072744496
5.602064,8.437056130426873,0.13506071774637612
5.60446,8.416387288372386,0.13511744605166268
5.606844000000001,8.405309641169401,0.1350664919312458
5.609224000000001,8.397165260272612,0.1349805305462923
5.611628,8.394096016055295,0.13482827155096075
5.614016,8.395962138890589,0.13461663973657248
5.616396,8.395826160979468,0.1344306748735875
5.618792000000001,8.394898787135428,0.13424731879795376
5.621180000000001,8.39862724109028,0.13401718865818463
5.62356,8.400493363925575,0.13380532187099273
5.625960000000001,8.400497155641311,0.1336132094036808
5.628348000000001,8.40129234328997,0.13341794776079402
5.630728,8.403949862058184,0.1332027616411062
5.6331240000000005,8.406188071945818,0.13300594571669858
5.635512,8.41429281444584,0.13274075934154456
5.637908,8.421466391386085,0.13248400933108168
5.640304,8.431573234632523,0.13219366034645466
5.642688,8.441819847505826,0.131896553628036
5.645068,8.454068561125542,0.1315739280051278
5.6474720000000005,8.465106569931761,0.13127210800482997
5.64986,8.476004809111116,0.13097813239518794
5.652240000000001,8.486903048290474,0.13068352224647337
5.654644000000001,8.490863819670803,0.1304736612477207
5.657032000000001,8.492542951050995,0.13030130696520148
5.659412,8.491800672804189,0.1301728498393963
5.661808000000001,8.488125128251188,0.13007834927339337
5.6641960000000005,8.487103310750664,0.12996316551713083
5.666576000000001,8.48994592511611,0.1298060765851093
5.668968,8.49171760429492,0.12966471927680445
5.671356000000001,8.496562319406783,0.1294845186606734
5.673736,8.498194228958733,0.1293491884741217
5.676132000000001,8.501968008883956,0.12918456290078242
5.678520000000001,8.50867505511538,0.12898744523834244
5.680916,8.518455137279854,0.12875235575153432
5.683312000000001,8.524510557205218,0.12855310805520126
5.685696,8.537503444929609,0.12827689547119725
5.688076000000001,8.548634001534445,0.12801910829790897
5.690472,8.560416184445337,0.12776467797050017
5.69286,8.575131633662425,0.12748076623305601
5.69524,8.589847082879512,0.12719505282960747
5.697644,8.601489496163545,0.12694671852079667
5.700032,8.614994240567135,0.1266816567203524
5.702412000000001,8.633434352023338,0.12636195586978105
5.704816000000001,8.653876564225957,0.12601943910412516
5.7072,8.675669250868934,0.12565162414170644
5.709580000000001,8.69839310307169,0.12527685377988657
5.7119800000000005,8.714179487475414,0.12497852042074659
5.714364,8.725682131132588,0.12473798450292797
5.716748000000001,8.73718477478976,0.12449842299988172
5.719144,8.747197174379714,0.12429157468486673
5.721532,8.76107400583564,0.12404571883988269
5.723912,8.771738031731653,0.12384322384011245
5.726308,8.785195554306998,0.12361833234588895
5.7287,8.798792846509206,0.12338966196373967
5.73108,8.816254570577385,0.12312469372133454
5.733476,8.826639057219674,0.1229399858189845
5.735864000000001,8.838606335727803,0.12275195651131947
5.7382480000000005,8.854577815728764,0.12252285629483751
5.740644,8.868407425356446,0.12232254811589909
5.743028000000001,8.889034733156299,0.12205889855501058
5.745424,8.912595307262347,0.12176644062365934
5.747824,8.936435420622114,0.12146440777483847
5.750208000000001,8.960275533981882,0.12116519300093966
5.752588000000001,8.983184481781874,0.12087430572713327
5.754984,9.00753645182084,0.12058799947119275
5.757372,9.031608882606085,0.1203142181181627
5.759752000000001,9.063689716376999,0.11996007205633073
5.762148,9.10298755720066,0.11952994600433028
5.764536,9.13856073578521,0.11912802611280231
5.766932000000001,9.17441345362348,0.1187149665456235
5.769328,9.206261969968914,0.11834211213904443
5.771716,9.241183522247406,0.11793756117740391
5.774100000000001,9.27410297377948,0.11755768596610196
5.776496,9.30380961975164,0.11721698098402367
5.778884,9.330303460163881,0.11691614911614205
5.781264,9.357868235762762,0.11660145790777568
5.783660000000001,9.385060924309307,0.11627431505276979
5.786044,9.406526849870321,0.11599592550123847
5.788428,9.427201379498415,0.11571994268344221
5.790824000000001,9.444430786141119,0.11546381180426529
5.7932120000000005,9.46287089759732,0.11519193526988862
5.795592000000001,9.479820764986302,0.11494882263160563
5.797988,9.494908301255727,0.11472021563289636
5.800376,9.511206542338652,0.11447519192219392
5.802772000000001,9.52527036524968,0.11423015828932914
5.805168,9.539753497041294,0.11397031915960909
5.807556,9.55144313215357,0.11373208751489357
5.809940000000001,9.559268335399873,0.11352663041673888
5.812336,9.572820301631705,0.11327871883614188
5.814724,9.588793677490536,0.11299907715726568
5.8171040000000005,9.611611973349778,0.11263797851615014
5.819504,9.629494902156408,0.11231769990442744
5.821892,9.643001542417867,0.1120178701540157
5.824276000000001,9.657858657119684,0.11169646775676814
5.826672,9.672203915142303,0.11136570751951233
5.82906,9.691624309844395,0.11099119603956978
5.831440000000001,9.70876306454635,0.11064484586959376
5.833836,9.726972754434943,0.11028643695842516
5.836224,9.744111509136898,0.10993917181711169
5.838604,9.758316997532658,0.10961556736358251
5.841004,9.770520385182003,0.10931035489906832
5.843388000000001,9.784633325779145,0.10896450884387981
5.845772,9.798886036003148,0.10861419617554874
5.848168000000001,9.810345249547815,0.10828176525920025
5.850556000000001,9.821664693465623,0.10795515629032834
5.852936,9.830050871077233,0.10765113863576053
5.855332000000001,9.83843704868885,0.10734832161877911
5.8577200000000005,9.845892060740685,0.10705204987479015
5.860104,9.85283521611332,0.1067485646419844
5.862508,9.860290228165153,0.1064566158022958
5.864896,9.860900320216578,0.10624294573103951
5.867276,9.868867188947608,0.10596232249954117
5.869672,9.881489885477533,0.10565494583882146
5.872060000000001,9.894112582007455,0.1053482027139741
5.87444,9.90566434335074,0.10505119999169342
5.876836000000001,9.912420507268273,0.10478723636771554
5.879224000000001,9.920527145626165,0.1045033889301411
5.88162,9.929844488797556,0.1042046795944283
5.884016000000001,9.940372536782446,0.10389097124659505
5.886404000000001,9.952762915886893,0.10356668641478867
5.888784000000001,9.962499567938867,0.10325261157179369
5.891184000000001,9.972887846296896,0.10294508791946845
5.893572000000001,9.982484728722007,0.10263813014640968
5.895952000000001,9.993012776706896,0.10232558723056805
5.898348,10.002749428758868,0.1020135821749287
5.900736,10.012765620064561,0.10169098567820453
5.903116000000001,10.019196918757999,0.1013837612938829
5.905516,10.022834720772103,0.10109123241987461
5.907904,10.023399486853148,0.10082427313779643
5.910284000000001,10.016934237336553,0.1005824238062211
5.91268,10.012238771140897,0.10030567075927094
5.915068,9.998463966772928,0.1000979631342309
5.917448,9.982966600912269,0.09989520811756827
5.919843999999999,9.965746673558911,0.0996968231953141
5.922232000000001,9.94973745101905,0.099483155099331
5.924616,9.93093473179986,0.09928330325521224
5.927012,9.909198746274472,0.09910229976682239
5.929400000000001,9.885600429629525,0.09893025649954143
5.931784,9.862561191492018,0.09873775051465236
5.93418,9.836868226302037,0.09855396608421145
5.936568000000001,9.814388066671974,0.09834006954900525
5.938964,9.785249978496598,0.09816367283101564
5.94136,9.756111890321225,0.09798625728307844
5.943752,9.72925544214599,0.09778368379202547
5.946132,9.70468063397089,0.09755604972694748
5.948528,9.683178861728846,0.09730388886850659
5.950915999999999,9.66488989504672,0.09702223566446107
5.953296,9.647811633178092,0.09672493444266397
5.955692000000001,9.626496852391153,0.09643402773653646
5.958080000000001,9.609046503470186,0.09611808888527375
5.960459999999999,9.589873593056524,0.09580496673862249
