Time,Force,Position
5.177704000000002,0.022694445367705308,0.0
5.180088000000001,0.016485927233912626,0.0
5.182472000000001,0.012139740219676586,0.0
5.184868000000002,0.007653783578580332,0.0
5.187252000000001,0.007172028430317782,0.0
5.189636,0.007172028430317782,0.0
5.192032000000001,0.007172028430317782,0.0
5.194416,0.01012051917595172,0.0
5.196795999999999,0.013208779548445874,0.0
5.199200000000001,0.017647514361298973,0.0
5.201588000000001,0.022086249174152073,0.0
5.203972,0.028387315106561818,0.0
5.206368000000001,0.03141312921137405,0.0
5.2087520000000005,0.03751197924924166,0.0
5.211136,0.0453333907798057,0.0
5.213532000000001,0.057780528578326204,0.0
5.215920000000001,0.07222976712326357,0.0
5.218312000000001,0.08788971048169966,0.0
5.220708000000002,0.10275825790721765,0.0
5.223092000000001,0.11869774051937418,0.0
5.225472,0.1346372231315307,0.0
5.227864,0.1495057705570487,0.0
5.230252,0.16637641872898354,0.0
5.232648000000001,0.1833868365277786,0.0
5.235044000000002,0.20025748469971344,0.0
5.237428000000001,0.21698836324478807,0.0
5.239808,0.2338590114167229,0.0
5.2422080000000015,0.2477811688430238,0.0
5.244592000000001,0.26049262145582597,0.0
5.246976,0.2697117292549921,0.0
5.249372000000001,0.2777201322406595,0.0
5.251756,0.2809329378005751,0.0
5.254152000000001,0.2820038729872137,0.0
5.256547999999999,0.2798620026139366,0.0
5.258936000000002,0.27972223298707644,0.0
5.261320000000001,0.27543849224052225,0.0
5.263712000000002,0.2671505500011344,0.0
5.266100000000002,0.2544390973883322,0.0
5.26848,0.24345020626822655,0.0
5.270876000000001,0.23153014958834245,0.0
5.273264000000001,0.21881869697554032,0.0
5.275644,0.20810934510915502,0.0
5.278040000000001,0.1963290580561312,0.0
5.280428000000001,0.18305852693588823,0.0
5.2828240000000015,0.16992776544250543,0.0
5.285219999999999,0.15865933506867924,0.0
5.287604000000002,0.14776299174719054,0.0
5.289988000000001,0.136307569918261,0.0
5.292384000000002,0.12722633588808582,0.0
5.294772000000002,0.12438372152263848,0.0
5.2971520000000005,0.12312389902302735,0.0
5.2995480000000015,0.12889409212106215,0.0
5.301936000000001,0.13689870339099106,0.0
5.304316,0.14806889839259244,0.0
5.306720000000002,0.15439627414019882,0.0
5.309108000000002,0.1626785288059789,0.0
5.311488000000001,0.1758489286961279,0.0
5.313884000000002,0.19446655231808657,0.0
5.316272000000001,0.21317672373866234,0.0
5.318652,0.2324912996370528,0.0
5.321059999999999,0.25441238075967487,0.0
5.323444000000002,0.2745636785613574,0.0
5.325828000000001,0.29587845934829554,0.0
5.328223999999999,0.3238511686805421,0.0
5.330612000000002,0.3519164258114057,0.0
5.332992000000001,0.37956237406168863,0.0
5.335388000000002,0.4072083223119716,0.0
5.337776000000002,0.43792730649531003,0.0
5.340156,0.4719988658654242,0.0
5.342559999999999,0.4995522663170901,0.0
5.344947999999999,0.5298991634480911,0.009152657568816508
5.347328000000001,0.5563816287131185,0.018512423221736525
5.349732,0.585797360284341,0.02763006137162978
5.352119999999999,0.6167958837213997,0.03653305597573631
5.354500000000002,0.6543125660769068,0.04514079731736763
5.356904,0.6938313491788306,0.053647435760303806
5.359292,0.7338619889599521,0.062114293735260596
5.361671999999999,0.7787807739654425,0.07020767515325156
5.364068,0.8250028115830489,0.07840548559086967
5.366456,0.8737388066262697,0.08662469766237112
5.368839999999999,0.9268510902146616,0.09461843187103446
5.371236,0.9849912886542828,0.10257574206105444
5.373624,1.0429444956388003,0.11072230767797454
5.376004000000002,1.0997795456084363,0.11882772661427049
5.378399999999999,1.1595006400560244,0.1270153802491026
5.380787999999999,1.2190347430485091,0.13539801834686047
5.383168000000001,1.2839688479445601,0.1436497909919737
5.385567999999999,1.3493675876915658,0.15197140012431
5.387952000000002,1.4108074519161118,0.16055252001007497
5.390336000000001,1.4776473180442242,0.169191712330459
5.392731999999999,1.5458829845830697,0.16867957777166992
5.395120000000002,1.6173767826522047,0.16803864289830941
5.397500000000001,1.6897545244528747,0.16763824668779417
5.399899999999999,1.7610141092386629,0.16757348016164625
5.402284000000002,1.83115553700957,0.1678703448908453
5.404668000000001,1.9026927651912096,0.16830628859599517
5.407064000000002,1.9755332459849648,0.16875027052164082
5.409455999999999,2.0448813819650846,0.1696043288366639
5.411836000000001,2.1195369720501533,0.17017639706262266
5.41424,2.1969860588145567,0.17060586748622608
5.416623999999999,2.273224440765462,0.17120482990651406
5.419008000000002,2.3502542186492854,0.17178772743930806
5.421403999999999,2.4315677372796625,0.17206286044587873
5.423791999999999,2.5096684503501248,0.17250328414327842
5.426172000000001,2.592984069726919,0.17266689220904632
5.428576,2.6790931857830476,0.17264251402302777
5.430959999999999,2.7634797403464804,0.17272423759989708
5.433340000000001,2.8532209708431058,0.17255233351320692
5.435736000000002,2.945663150220449,0.1721150183041679
5.438124000000002,3.038804177732093,0.17158523424889854
5.440519999999999,3.127476368899949,0.17111325366429553
5.442924000000001,3.215172068537653,0.1705111180836734
5.445312000000001,3.3033342988841805,0.16980859673802903
5.447692,3.3889372458347196,0.16898508925380407
5.450096000000002,3.4721206790161308,0.16805615899459395
5.452484000000002,3.553164137682133,0.1670123661265308
5.454864000000001,3.6279236507130346,0.16602263244539403
5.4572600000000016,3.696538987735695,0.1650442179662394
5.459648000000001,3.7548661776304195,0.16430649788652535
5.462028,3.808072904875298,0.16366409523862666
5.464432000000002,3.8555075431642716,0.16308953602206602
5.466820000000002,3.9011742939901763,0.16244956068988953
5.469200000000001,3.938927085486899,0.1619646385404533
5.471596000000002,3.9809182917598007,0.16117794807079266
5.4739840000000015,4.012062272397328,0.16064498348391124
5.476368000000001,4.0446511711317,0.15991933425497606
5.478764000000002,4.072119607216226,0.1592416142389066
5.481152000000002,4.0881817391579345,0.15884532840680482
5.483532,4.102056674755992,0.158404251588658
5.485935999999999,4.115187436249374,0.15791432979284234
5.488320000000002,4.131438455504055,0.15725857687876943
5.4907,4.148108783639317,0.15657634072967908
5.493103999999999,4.161473758416046,0.15596207077425966
5.495491999999999,4.175909668379414,0.1553141238547165
5.497872000000001,4.188762786476946,0.15468885564764262
5.500276,4.198031011962225,0.1541451326524577
5.502663999999999,4.207159467820643,0.15360914899971823
5.505044000000002,4.21693954998512,0.15306859993923755
5.507448,4.231515229575348,0.15239622846007234
5.509836,4.24450811729974,0.1517457742566809
5.512215999999999,4.2576407746509926,0.15107947702176105
5.514612,4.265698295322772,0.15057435588012916
5.517,4.275618147114109,0.15001983671672736
5.519380000000002,4.277529595919778,0.1497090700965857
5.521775999999999,4.283165706964559,0.1493039426057936
5.524163999999999,4.279442940583316,0.1492009140845437
5.526544000000001,4.273857843082515,0.14914470646988306
5.528940000000002,4.269623220022073,0.14902490803020482
5.5313240000000015,4.261384395468798,0.14902881617943808
5.533708000000001,4.247558577556852,0.14917689861131977
5.536104000000002,4.230939262965571,0.1493893547487181
5.538488000000001,4.2096641205753995,0.14971646677777606
5.540868,4.185595481505893,0.15011455564518889
5.543264000000001,4.162737547249884,0.1504526056423848
5.5456520000000005,4.140391469673074,0.15080702170922486
5.548036,4.1194884143352395,0.15115677909577332
5.550432000000001,4.103380956423157,0.15137449336974199
5.552816,4.089415368884351,0.15152117688489863
5.555195999999999,4.072656284666212,0.15173297144007802
5.557600000000001,4.053755330074793,0.15202215703224145
5.559988000000001,4.034574836229655,0.1523402700221203
5.562367999999999,4.0196780831310726,0.1525095137923553
5.564768000000001,4.00385016447271,0.15270196360835092
5.567152,3.9920264473071807,0.15277617778831482
5.569535999999999,3.9814134349551513,0.1527969351301487
5.571932,3.9762948681631745,0.15262384650915584
5.57432,3.981186805103282,0.15216140584133375
5.576699999999999,3.99208504428264,0.15153184518768847
5.579096,4.007918650514609,0.15076471336378877
5.581484,4.027616688612553,0.14989254462254614
5.583880000000001,4.04503308671036,0.14910156659133478
5.586276000000002,4.063520419994805,0.1482689947975587
5.588664000000001,4.0829389188390275,0.14740665810678127
5.591044,4.099284381750195,0.14664529424502212
5.593440000000001,4.117771715034639,0.14581975401081373
5.595828000000001,4.139192314625279,0.14492464720836848
5.598212,4.158750583096362,0.144088578719871
5.600608000000001,4.179100247500363,0.14324971541361806
5.602996000000001,4.200101538210422,0.1424144301560235
5.605376,4.2271091311597315,0.1414160490591391
5.607772000000001,4.259191860788515,0.1402885995894487
5.6101600000000005,4.286851080043883,0.13931251372988748
5.612539999999999,4.3162328607919465,0.13830887957186802
5.614936,4.344543706353372,0.13734578144965395
5.617324,4.366848249675547,0.1365407652490319
5.619720000000001,4.386731383370725,0.1358308980532595
5.622119999999999,4.398606114080235,0.13534634629532105
5.624504000000002,4.405405708110273,0.13500085481232862
5.626888000000001,4.40754947434142,0.13475026026801165
5.629284000000002,4.411695341318983,0.13445384882848363
5.631672000000002,4.421707740908936,0.13402584742059945
5.6340520000000005,4.435305033111143,0.1335414148672124
5.6364480000000015,4.4509044260597665,0.13301064518002684
5.638836000000001,4.469297315687725,0.13242916016244552
5.641216,4.484617169382627,0.13192784974279334
5.643612000000001,4.49448979934572,0.13152203711882096
5.646000000000001,4.502220558935537,0.13117558553786351
5.648384,4.510091088152213,0.1308204015241235
5.650780000000001,4.516239055876191,0.13048646102549438
5.653168000000001,4.5191742180402565,0.13024218679005395
5.655548,4.514892373151573,0.13017532488924036
5.6579440000000005,4.513683564195943,0.1300341748265573
5.660332,4.5128940641208946,0.12985891910378997
5.662716,4.5121045640458455,0.12968373127018967
5.665112000000001,4.518904158075883,0.12936330840202268
5.667496,4.52677468729256,0.1290139195373366
5.669892000000001,4.535716151695875,0.12863612094634155
5.672288000000002,4.544797385726049,0.12824553687509746
5.674676000000002,4.562398879421091,0.1277000791706208
5.677060000000001,4.575996171623297,0.12724845660493894
5.679456000000002,4.584797866399752,0.12689349721128707
5.681844000000002,4.590154438190813,0.12658222768680724
5.684224,4.595650779608735,0.1262625632378885
5.686620000000001,4.600355725093739,0.12595017193973454
5.689008000000001,4.60827347613866,0.12556117475015643
5.691388,4.622849155728888,0.125059697187854
5.693784000000001,4.638495770505754,0.1245313769331271
5.696172000000001,4.65414238528262,0.12400818942494996
5.698556,4.670720165619265,0.12346661143040262
5.700952000000001,4.687857024463351,0.12288357560273275
5.703340000000001,4.713561364800545,0.12210270583914898
5.70572,4.737543143645042,0.12134256136677557
5.708120000000001,4.758451886556484,0.12064837962345158
5.710504,4.779500399094787,0.11994543730988791
5.712904000000002,4.798034954207475,0.11927582828103786
5.715299999999999,4.817919983760522,0.11856547776045306
5.717687999999999,4.834592207753653,0.11792369303299204
5.720068000000001,4.854057928426119,0.11724451946732824
5.722467999999999,4.865794785366639,0.11670382065202538
5.724855999999999,4.87674024637424,0.11616320946203364
5.727240000000002,4.885683606635424,0.11565550691842656
5.729635999999999,4.893136722829389,0.11520122109161704
5.732023999999999,4.900450069396494,0.11476122053405675
5.734400000000001,4.902828048910987,0.11440807568266488
5.736796000000002,4.89812879099959,0.11419189111515633
5.739180000000001,4.885560899729386,0.11411685670865053
5.741576000000002,4.876066044392237,0.11397878341252145
5.743971999999999,4.868433520174646,0.11381389104612571
5.746359999999999,4.863734262263251,0.11359944253864027
5.7487400000000015,4.859546861031052,0.11340341328638093
5.751144,4.845209186439909,0.11339581594032934
5.753532,4.8347359437147395,0.1133259309215423
5.755912000000002,4.829477607295901,0.11315261327075722
5.758308,4.823288105317287,0.11299106555884472
5.760695999999999,4.814165337032477,0.11287557314788592
5.763076000000002,4.8055544254268625,0.11277770332116205
5.76548,4.801367024194666,0.1125811312708048
5.767863999999999,4.793454960723354,0.11243172883084887
5.770244000000002,4.788476163558237,0.1122363624154001
5.772648,4.786011323818735,0.11202548978914817
5.775036,4.786619520012287,0.11175756833181842
5.777415999999999,4.792582392139034,0.11138078652946094
5.779812,4.79733455945228,0.11103724798627097
5.7822,4.805019993071722,0.11064407162699502
5.784580000000002,4.8208535993036925,0.11010281469171616
5.786975999999999,4.841482802961414,0.10948671137524223
5.789363999999999,4.857176639566524,0.10895532518911026
5.791744000000001,4.864350216506768,0.10853958283096088
5.794143999999999,4.869661462327457,0.10815048777499695
5.796531999999999,4.877114578521422,0.10772245746486891
5.798912000000001,4.8932277240071125,0.1071696740790673
5.801307999999999,4.9044055024401905,0.10669767809148444
5.803695999999999,4.9120909360596325,0.10631445385798495
5.8060800000000015,4.9205677656119935,0.10592999623362691
5.808475999999999,4.931698322216828,0.10552212646254966
5.810863999999999,4.940035382142329,0.10514905309625062
5.813244000000001,4.9491638380007466,0.10477966428049038
5.815640000000002,4.9608062512847795,0.10439746750483703
5.818028000000002,4.967653067143061,0.1040773093055217
5.820412000000001,4.9749191918819236,0.10372973340034423
5.822808000000002,4.983256251807423,0.10336385179653376
5.825196000000002,4.989311671732787,0.1030523093845178
5.827591999999999,4.995646630911869,0.10272178598438869
5.829988,5.001981590090953,0.10239020179320912
5.832380000000001,5.007897240389455,0.10209282670760192
5.834759999999999,5.01288172512818,0.10180632202073825
5.837164000000001,5.020939245799959,0.10147145868507597
5.839548000000001,5.038308422069522,0.1010371561060588
5.841927999999999,5.056468994272002,0.10060512201680542
5.844332000000001,5.066341624235095,0.10030684073232299
5.846720000000001,5.07048749121266,0.1000782831962532
5.8491,5.077426854869557,0.09982057620051588
5.851496000000001,5.083574822593538,0.09956258035094762
5.85388,5.0894432510637975,0.09932367487410301
5.856259999999999,5.097453549907334,0.09904988197852098
5.858656,5.105184309497149,0.09879375590864976
5.861039999999999,5.1097022635270495,0.09859547282127509
5.863420000000001,5.11543092237045,0.09837076774488267
5.865824,5.130750776065354,0.09803767435332565
5.868212,5.146862025693175,0.09770928665098164
5.870592000000002,5.165487232746611,0.09737872526593909
5.8729960000000005,5.183972670173186,0.09705946128866663
5.875384,5.204460208346179,0.0967178739839411
5.877763999999999,5.23202498394506,0.0962898060880181
5.88016,5.254142535812131,0.09590395853597633
5.882548,5.280404058798897,0.09546584995772436
5.884928000000002,5.30731720809172,0.09504293795086406
5.887332000000001,5.332647565518707,0.0946268340703351
5.8897200000000005,5.360119793318972,0.09418483440502591
5.892099999999999,5.400023934478318,0.09358057417979618
5.894504000000001,5.444723673063415,0.09293442701807268
5.896892000000001,5.492636217208429,0.09225365283834255
5.899267999999999,5.546415293965833,0.09152367902283647
5.901668000000001,5.604757650723512,0.09072697792305637
5.904052,5.659095805988355,0.08998278637427554
5.906431999999999,5.716786536439976,0.08918875430873095
5.908828,5.777410533197791,0.08836882582499196
5.911216,5.836963594768969,0.08757316639760447
5.913596000000002,5.889579188541117,0.08686068593728676
5.916004000000001,5.937911041566711,0.08620655283740296
5.918388,5.98330962828611,0.08558818764897502
5.920767999999999,6.026985653512813,0.08497533133382965
5.9231760000000016,6.069450973926015,0.08439170277361442
5.925560000000001,6.10469928728647,0.08389944708837968
5.92794,6.147396925125151,0.08336427646951218
5.930347999999999,6.189023627777194,0.08285577072672431
5.932736000000002,6.229858934496318,0.08235071060722243
5.935112,6.270554471588582,0.08186080334692475
5.937515999999999,6.3103188431210695,0.0813853003379724
5.939904000000002,6.33993294129461,0.08101319315477482
5.942284000000001,6.366753542788817,0.08066030896840894
5.944680000000002,6.388359237976691,0.08036480973853316
5.947064000000001,6.404098400552174,0.08011619543228511
5.949448,6.4166247575677415,0.07990681471232694
5.951844000000001,6.432224150516365,0.07967063968095425
5.9542280000000005,6.44717191715893,0.07942804245362867
5.956607999999999,6.459885265629603,0.07917244594534899
5.959008000000001,6.465289059248907,0.07894308055441118
5.961396000000001,6.471531470629376,0.0786714225539795
5.963775999999999,6.477169477532026,0.07834279267923194
5.966172,6.475405381784694,0.07800113185725
5.96856,6.473036881559548,0.07760238153297389
5.970939999999999,6.463126509057556,0.07719567309787358
5.973336,6.4484677609580565,0.07676678340819638
5.975724,6.421331773529103,0.07636578246455014
5.978107999999999,6.381299237890112,0.07601237745594987
5.980504,6.328370154041084,0.0757076015430634
5.982892,6.262684291608882,0.07544531548368208
5.985288000000001,6.1843814202203635,0.07521601786047556
5.987684000000002,6.100399007674557,0.07496797338853366
5.990072000000001,6.005661917291992,0.07474722989920053
5.992452,5.903522724259443,0.0745062041050201
5.994848000000001,5.791979327830495,0.07426151699744808
5.997236000000001,5.666887756885452,0.07406178092037721
5.999616,5.529970572917011,0.07390211092608524
6.002012000000001,5.380668697417732,0.07382420945928396
6.0044,5.221775627066949,0.07381778407637488
6.006779999999999,5.064512570410245,0.07374961122825266
6.009176,4.897518549275177,0.07376388420791508
6.011564,4.729174053699751,0.07379463590742343
6.013960000000001,4.563203745923078,0.07382606447880331
6.016356000000002,4.391179914078912,0.07398833390209394
6.018744000000002,4.220040025966282,0.07422937787918236
6.021124,4.0523452608390444,0.07445123773616052
6.023520000000001,3.8899579498167554,0.07464567572107109
6.025908000000001,3.734740424018973,0.07482323257107047
6.028288,3.5908366545653925,0.07491088209220996
6.030684000000001,3.460248742202427,0.07485723981742977
6.033072000000001,3.337342471743165,0.07480926551075105
6.035451999999999,3.2225371520681887,0.07470672468220509
6.037860000000002,3.1187660494836913,0.07452187695211031
6.040248000000002,3.018812156936925,0.07437673127480246
6.0426280000000006,2.9285420070402783,0.0741927981600047
6.0450240000000015,2.8490265349803914,0.07396252841945591
6.047412000000001,2.774678747398594,0.07372599757767569
6.049796000000001,2.7105737809743577,0.07339805733966506
6.052199999999999,2.6536385997746277,0.07303439547998695
6.054587999999999,2.5994496934259894,0.07273522108790965
6.056968000000001,2.554432673048274,0.07236055818184674
6.059372,2.511929610096173,0.07197966690811454
6.061755999999999,2.472731900502605,0.07160450004313546
6.064140000000002,2.4404716587080664,0.07110611798788902
6.066535999999999,2.4111446832197223,0.07055288369637934
6.068923999999999,2.3803274636641594,0.07006996328163557
6.071304000000001,2.348020000041377,0.06966115491357826
6.073699999999999,2.314641601231956,0.06927279902298664
6.076088000000002,2.2821943679823136,0.06885277250610006
6.078468000000001,2.2442526891726184,0.0685820875465254
6.080864000000002,2.206311010362923,0.06830738332325699
6.083252000000002,2.1648769867395914,0.06815962045727468
6.085632,2.1240945894223175,0.06801981383150349
6.088032000000002,2.085965919157519,0.06787721589498757
6.090416000000001,2.047557709639,0.06776476950793289
6.092796,2.0112913704937574,0.06756981888241878
6.095192000000001,1.9756766576545735,0.06740961655192113
6.097580000000001,1.9419242759349458,0.06720867169792312
6.099976000000002,1.9093825990288167,0.0669412891211756
6.102371999999999,1.8780516269361869,0.06661252665626088
6.104759999999999,1.8428562229775833,0.0663296919724688
