Time,Force,Position
4.104944,0.03522494526307834,0.0
4.107340000000001,0.03522494526307834,0.0
4.1097280000000005,0.03522494526307833,0.0
4.112108000000003,0.03547443315215883,0.0
4.114508000000001,0.037726021787656175,0.0
4.116892,0.041979711169570375,0.0
4.1192920000000015,0.04516246536484604,0.0
4.1216880000000025,0.0482054499332615,0.0
4.124076000000002,0.05003772968817821,0.0
4.126456000000001,0.05294094462973345,0.0
4.128852000000002,0.055983929198148916,0.0
4.131240000000002,0.05981830969948248,0.0
4.1336200000000005,0.06057965426776067,0.0
4.136024000000003,0.06057965426776068,0.0
4.138412000000002,0.061340998836038864,0.0
4.140792000000001,0.058220741074740325,0.0
4.143188000000002,0.05631118812694053,0.0
4.145576000000002,0.05347046961936241,0.0
4.147960000000001,0.05263185185820115,0.0
4.150356000000002,0.05873070189606876,0.0
4.152744000000002,0.06389838637415805,0.0
4.155124000000001,0.07442074678544,0.0
4.157528000000003,0.08854517027257823,0.0
4.159916000000003,0.10134917068399746,0.0
4.162296000000001,0.11308223590877814,0.0
4.164692000000002,0.12374436594692031,0.0
4.167080000000002,0.13347533042528414,0.0
4.169464000000001,0.1444169997171467,0.0
4.171856000000002,0.15857147456892487,0.0
4.174244000000002,0.16951314386078745,0.0
4.176624,0.17603130277923568,0.0
4.179024000000002,0.17961619539148876,0.0
4.181408000000001,0.18827622468321403,0.0
4.183792,0.1986287641029959,0.0
4.186188000000001,0.2080801893276393,0.0
4.188576000000001,0.21753161455228273,0.0
4.190956,0.22176813347059368,0.0
4.193352000000001,0.22186068126921074,0.0
4.195740000000001,0.21967158906769052,0.0
4.198136000000002,0.21119665537319934,0.0
4.200536,0.20044008167857089,0.0
4.202920000000002,0.19140606947663885,0.0
4.205304000000002,0.17995064764770935,0.0
4.207700000000003,0.17263919693847377,0.0
4.2100880000000025,0.16360518473654176,0.0
4.212468000000001,0.1527088414150531,0.0
4.214864000000002,0.14502530365348,0.0
4.217252000000002,0.13734176589190686,0.0
4.219636000000001,0.1288668321974157,0.0
4.222032000000002,0.12760890555567383,0.0
4.224420000000002,0.1335679859666812,0.0
4.226804000000001,0.14208824563154632,0.0
4.229208,0.150328966042691,0.0
4.231596,0.156707355334279,0.0
4.233976000000002,0.16336528387958746,0.0
4.236372000000003,0.1701629820517561,0.0
4.238760000000003,0.17817138503742352,0.0
4.2411400000000015,0.18631955764995115,0.0
4.243536000000002,0.19688913988947623,0.0
4.245924000000002,0.20988013175599882,0.0
4.248304000000001,0.22436136768974058,0.0
4.250708,0.23418677582459071,0.0
4.253096000000003,0.24508311914607936,0.0
4.255476000000002,0.25276665690765243,0.0
4.257876,0.25909972022886657,0.0
4.260264000000003,0.2655725531769409,0.0
4.262644000000002,0.2725572428042129,0.0
4.265040000000003,0.2755377309386513,0.0
4.267428000000002,0.2760968094460921,0.0
4.269812000000002,0.26850771534100537,0.0
4.272208000000003,0.2551918582503885,0.0
4.2745960000000025,0.24224808821210905,0.0
4.276976000000001,0.22599896481529694,0.0
4.279372000000002,0.21254333809781983,0.0
4.281760000000002,0.1989479417534825,0.0
4.284144000000001,0.18642348059578367,0.0
4.286540000000002,0.18055694798339333,0.0
4.288928000000002,0.17990532167733544,0.0
4.291308000000001,0.17510972425158364,0.0
4.293708000000002,0.17124529238561015,0.0
4.296092000000002,0.17031412682583183,0.0
4.2984880000000025,0.17110552275874996,0.0
4.300884,0.16989481794525121,0.0
4.303272,0.1680324868256946,0.0
4.305656000000003,0.16938296126605357,0.0
4.308052,0.1693829612660535,0.0
4.31044,0.1678001694002173,0.0
4.312820000000002,0.16714854309415939,0.0
4.315216,0.16677645604182192,0.0
4.317604000000003,0.16854623936276147,0.0
4.319988000000002,0.1729697497361758,0.0
4.322384,0.174459993803395,0.0
4.324772000000003,0.1784641952962287,0.0
4.327156000000002,0.17967490010972745,0.0
4.329552,0.18074583529636598,0.0
4.331940000000003,0.17967490010972748,0.0
4.334320000000002,0.17273743231069857,0.0
4.336716000000003,0.16216785007117349,0.0
4.3391040000000025,0.15439176451098335,0.0
4.341488000000002,0.14805870118976924,0.0
4.343884000000003,0.13874514973411678,0.0
4.346272000000003,0.13180578607721863,0.0
4.348652000000001,0.12910294133863148,0.0
4.351052000000003,0.12900660182427595,0.0
4.353440000000003,0.12979420604145556,0.0
4.355836,0.1377515954831413,0.0
4.358232000000001,0.14738432458928036,0.0
4.360620000000001,0.16297613410642678,0.0
4.363,0.18238515366130356,0.0
4.365400000000001,0.20426090881355172,0.0
4.367788000000001,0.231164578817029,0.0
4.370168,0.2630961636717354,0.0
4.372568000000001,0.29670308819089497,0.0
4.374956000000001,0.3319853523745079,0.0
4.377336,0.36801179066279577,0.0
4.379732000000001,0.4109284749218693,0.007221955436530315
4.3821200000000005,0.4556602684722564,0.014715795339601847
4.384504,0.5016953146347592,0.0224146278346087
4.386900000000001,0.545681038222602,0.030651727977947494
4.3892880000000005,0.5872453521834475,0.03914009715188484
4.391668000000003,0.633093406890847,0.04729125694169259
4.394064,0.6773586697324103,0.055449094013881
4.396448000000003,0.7209723062679158,0.06341183082141966
4.398828000000002,0.7643536253779439,0.07128851230978848
4.401232,0.8064316918758563,0.07917452245773245
4.40362,0.8421313690821806,0.08731063686166958
4.406000000000002,0.8737342969970541,0.09581738315113394
4.408404000000001,0.902683497859453,0.10432816067691268
4.410792000000001,0.9293982805499577,0.11284088061204088
4.413172000000003,0.9555086587626476,0.12124961192693012
4.415568,0.9765911221241083,0.12971115003003075
4.417952,0.9963703328734534,0.13807464910236153
4.420332000000002,1.0152655998912632,0.14629602000718403
4.422748000000002,1.0370015854166512,0.15421119909125416
4.425132000000001,1.057993396837364,0.16217225172564315
4.427512,1.0698133222871544,0.16337376953719013
4.429916000000002,1.0816804695651876,0.1642570684877802
4.432304000000002,1.0922443642311048,0.16508333875177583
4.434684000000001,1.1069994518449593,0.1650449054574563
4.437080000000002,1.1213824524064762,0.16484873970581243
4.439472000000002,1.1340428914752965,0.1648605748489426
4.441852000000001,1.1476344961038956,0.1647874500349317
4.444256000000003,1.153357467373687,0.16559887680690866
4.446644000000003,1.1552160067775055,0.16686103559657645
4.449024000000001,1.1587971076740198,0.16794676850753823
4.451424000000003,1.1661028708096477,0.1686282108304528
4.453808000000002,1.1791353969308056,0.16866123763387939
4.456188000000001,1.1915162967459056,0.16869153981897014
4.458584000000002,1.2056197580537025,0.1685954545025832
4.460972000000002,1.2202350760406966,0.16856655017726538
4.463352,1.2340117762665295,0.16877961087650212
4.4657560000000025,1.2475089372386419,0.16909064733837606
4.468144000000002,1.2616577245168126,0.16942212276358978
4.470524000000001,1.274456037354624,0.16998473379551363
4.472924000000003,1.2913510994838864,0.1703246492897703
4.475308000000002,1.315695486091375,0.1700077782654273
4.477692000000001,1.3419947516170372,0.16972114230111568
4.480088000000002,1.374951945688008,0.16894249953081403
4.482476000000002,1.4087930834905142,0.16840461736251208
4.484856000000001,1.444728869838054,0.1678222297419456
4.487252000000002,1.4824797654769077,0.1673447723146554
4.489644000000002,1.5193920433546002,0.1670682204782024
4.492024000000001,1.5684094735094107,0.16585869877538087
4.494420000000002,1.6245966888887273,0.16415131654461992
4.496804000000001,1.6814355305741016,0.16256780545460608
4.499184,1.7366443585653966,0.1612468044111146
4.501588000000002,1.791154338422391,0.16020614340449593
4.5039760000000015,1.8458966357048627,0.1592456269883477
4.506356,1.8970068185468378,0.15861885441108708
4.508760000000002,1.9512825851204854,0.15794363255755323
4.511148000000002,2.0115646539333834,0.1568298214636488
4.513528000000001,2.074360680171896,0.15565988844681586
4.515932000000003,2.135386923089469,0.15472666446747446
4.518320000000003,2.195062691566683,0.15394083363838917
4.5207000000000015,2.2548782296707577,0.15323396282758223
4.523104,2.3094788614684996,0.15288326817232692
4.525492,2.361705305467487,0.1525936883180567
4.527872000000002,2.4056438072270865,0.1528508666957528
4.530268,2.4458576467475734,0.1532804774133916
4.532656000000003,2.485280090335141,0.15370824278442477
4.535036000000002,2.520466015004398,0.1542651557440458
4.537432000000003,2.557142183740875,0.154664041877128
4.539820000000002,2.590373229491959,0.15521391302617427
4.542204000000002,2.621881713750346,0.15582826818508594
4.544600000000003,2.6485946005829817,0.15664190479493306
4.5469880000000025,2.680010537042752,0.1571475226754025
4.549368000000001,2.71412742238324,0.15746505970771488
4.551772,2.7497345517909473,0.15765795710490768
4.55416,2.7913952052661486,0.15746842121844937
4.556540000000002,2.8323116846366743,0.15722955582120507
4.558936000000003,2.870714206581585,0.15708272164161718
4.561324000000003,2.905951144794824,0.15699695716942852
4.563704000000001,2.9424460096498044,0.15674103747457158
4.566104000000003,2.9816418233855035,0.15632178890518542
4.568492000000003,3.016321578949171,0.15604772733386763
4.570872000000001,3.0549129882070547,0.15553353206613793
4.573268000000002,3.0945753326515772,0.15496947435510078
4.575656000000002,3.1418739930294297,0.15405463102760975
4.578036000000001,3.1875898615414466,0.15313677925941038
4.580440000000003,3.234795974120682,0.1521286315591708
4.582828000000003,3.283864417819474,0.1510411307669165
4.5852080000000015,3.330790991144989,0.15005299125721894
4.587616000000001,3.3745047589105885,0.14922127864118534
4.59,3.416588512982109,0.14851668325507236
4.592384000000003,3.4638399515317184,0.14766445090756036
4.59478,3.5061088012004724,0.1471072024498535
4.597164000000003,3.5411134219882343,0.14692505200216316
4.599548000000002,3.577653612813589,0.14680715254457166
4.601944,3.6139595903555977,0.1468859039737296
4.604328000000002,3.647749714614122,0.1472385101401301
4.606712000000002,3.6805142296563815,0.14776617519345167
4.609108000000003,3.7181196680947672,0.14828002382775218
4.611492000000002,3.7570736851156425,0.14893040456856377
4.613876000000001,3.7919290569871977,0.1498526708412858
4.61628,3.8336274530012955,0.1506874005630003
4.618668,3.880958168344437,0.1515020389739789
4.621052000000002,3.9343405118972035,0.15225278149663732
4.623448,3.98376397992751,0.15324451485975646
4.625836,4.044314212846913,0.15401892545175477
4.628220000000002,4.108262346923466,0.15479475098518672
4.630616,4.176958856597527,0.1555053101363848
4.633004,4.2526853818692345,0.15607306074033656
4.635384000000002,4.333579591619031,0.1565394885940933
4.637780000000003,4.414753340622548,0.1569646632974574
4.640168000000003,4.497557103320145,0.15731241744028743
4.6425480000000015,4.583713441204517,0.15753607522253307
4.644944000000002,4.674712598342884,0.1575496670592587
4.647336000000003,4.76324501988388,0.15753705604850396
4.6497160000000015,4.8497300147080855,0.15746883667708492
4.6521120000000025,4.93472666132294,0.15727113366969517
4.654500000000002,5.02223916122128,0.15686315651552574
4.656884000000002,5.103327945857656,0.15648080725821306
4.659288,5.184418626351902,0.15593873850223539
4.661676,5.269096095316271,0.1551485408771756
4.664060000000003,5.345627287525981,0.15442116945280204
4.666456,5.408005900741782,0.15390034569277342
4.668844,5.463169402762703,0.15342891920657853
4.671224000000002,5.5168445565742745,0.15285491356692893
4.67362,5.56009179363105,0.15242149876540803
4.676008,5.599569042478339,0.15197736442053633
4.678388000000002,5.631411871250167,0.15159638531592962
4.680792,5.657482611066091,0.15124890396948754
4.683184000000001,5.67750172267239,0.15094565820762404
4.685564000000003,5.695985264241097,0.15060603106309237
4.68796,5.710511826145211,0.15030953930449995
4.690352000000001,5.720429782078679,0.1500485421828752
4.692732000000003,5.72946379428061,0.1497566883868302
4.695132000000001,5.738265489057065,0.14943515255245812
4.697520000000001,5.742039268982292,0.14917456523806666
4.6999,5.7490258544674315,0.14883769718306014
4.7022960000000005,5.75186846883288,0.14859722688791294
4.704684,5.757784119131383,0.14829021236027504
4.707064000000003,5.757553697563775,0.14811769254560575
4.7094640000000005,5.751316973756916,0.14806973026483441
4.711848,5.746802811442754,0.14799915330538582
4.714232000000003,5.747875642487262,0.14783000219917725
4.716628,5.74759799909141,0.14770601399479863
4.719016,5.748251521255337,0.14756586707791386
4.721396000000002,5.746623403419129,0.1474870356951518
4.723800000000001,5.741922249649862,0.14747723092334764
4.7261880000000005,5.74094575811971,0.1474012500040352
4.728568000000003,5.7344748210295045,0.14746661285353924
4.730964,5.727584575058718,0.1475619837621208
4.733352,5.720275020207353,0.1476864800465898
4.735736000000003,5.709892429422931,0.14788149521323607
4.738132,5.697367968265231,0.14813295096787726
4.74052,5.683912341547755,0.14839774445734977
4.742900000000002,5.671108341136337,0.14866224144182466
4.745304000000001,5.66160969408345,0.14889045914138427
4.747692000000001,5.648106845537729,0.1492025980806976
4.750076,5.6327416658724525,0.1495506434190182
4.7524760000000015,5.61309274546062,0.15000471089854203
4.754864000000001,5.598239422474543,0.15036665992001086
4.757248000000001,5.590463336914352,0.15057102269046524
4.7596440000000015,5.583897956167661,0.15073844867909045
4.762032000000001,5.581476546540665,0.1508096188952112
4.764412,5.578403510607608,0.150878491570066
4.766812000000002,5.574399309114774,0.15096343561385203
4.769200000000001,5.575749783555134,0.15091799233679257
4.77158,5.575098157249075,0.1509151702299534
4.773976000000001,5.572723969450321,0.15093561406619746
4.776364000000001,5.578358184637234,0.15078489535515247
4.778744,5.584411708704727,0.15060395156933515
4.781140000000001,5.59181570721258,0.1503778291818262
4.783528,5.600290640907072,0.15012313538615438
4.785908000000003,5.615842812027451,0.1497133604102319
4.788304,5.6293928824014134,0.1493478163805586
4.790692,5.639358060163124,0.14903942861895864
4.793076000000003,5.650813481992054,0.1486787688168722
4.795472,5.664271004567401,0.14827586187313307
4.79786,5.681081102329523,0.14778442390199112
4.800244000000003,5.701243775278423,0.1472032088810712
4.80264,5.720754821921263,0.14662461394063797
4.805028,5.7361218974444075,0.1461462829928084
4.807412000000003,5.753211534460249,0.14565173753522717
4.809808,5.767647444423618,0.14520237151324203
4.812196,5.785016620693181,0.14469728786349653
4.814580000000003,5.802106257709022,0.14421090405528325
4.816976,5.817985189911367,0.14376349709990513
4.819364,5.838799489166322,0.14322002589303337
4.821748,5.862267515473754,0.14264608297870957
4.8241520000000016,5.884152749915347,0.14209433629987026
4.826540000000001,5.908040085103358,0.14150550743761503
4.828924000000001,5.931647881037648,0.14093880534755054
4.831320000000002,5.960330813651412,0.14027894690852508
4.833712000000002,5.983659070331982,0.13974069091222477
4.836092000000001,6.009780823691889,0.13916229056944293
4.838488000000002,6.03841653447741,0.13855759851252522
4.8408760000000015,6.0635599004492935,0.138042068141084
4.843260000000001,6.085770000114983,0.1375770107647955
4.845656000000002,6.105558690153674,0.13717663422929036
4.848044000000002,6.12828064649856,0.13673329043130636
4.850428000000001,6.150862833216586,0.13630236030233686
4.852824000000002,6.17465572474811,0.1358423667208047
4.855216000000002,6.192721853294105,0.13547298382008477
4.857596000000001,6.2083665722131025,0.13516616532787204
4.859992000000002,6.2215898815051025,0.13492119369579736
4.862384000000002,6.236303434864322,0.13462920684569005
4.864764000000001,6.25087721859668,0.13434766375499282
4.8671640000000025,6.263448901582623,0.1341029518941645
4.869552000000002,6.271224987142813,0.13393356104613327
4.871936000000002,6.274996871210169,0.13383429609656664
4.8743320000000026,6.279560151210443,0.1337315107702898
4.876720000000002,6.287196467143774,0.1335751292345996
4.879100000000001,6.287755545651215,0.1335415248248818
4.881500000000003,6.291015573039372,0.13343236373053075
4.883888000000002,6.2894800030017795,0.13339461647682813
4.886268000000001,6.288363741844766,0.1333317944304968
4.888668000000003,6.285804458448779,0.13326879812946557
4.8910560000000025,6.284176340612568,0.13319285478495274
4.893436000000001,6.286831963522913,0.13303242241569077
4.895836000000003,6.2824103490073675,0.13299463765900957
4.898224000000003,6.276266172999126,0.13297349249372067
4.900608000000002,6.268119896244468,0.13298562727195587
4.903016000000001,6.262906885796005,0.13295179501082616
4.905404000000001,6.257042249041483,0.13291392152750278
4.907784,6.252807625981042,0.13282075673765795
4.9101880000000016,6.249504168480379,0.1327149506456814
4.912576000000001,6.243686753554101,0.13262989904406813
4.914956,6.237357481948625,0.13253191223335706
4.917352000000001,6.232238915156649,0.13240412070857235
4.919736,6.228982679484229,0.13225066162811805
4.92212,6.2249350478788905,0.13210176257026202
4.924516000000001,6.211296221422048,0.13209539477730536
4.926904,6.203943236458176,0.1319709012810519
4.929284000000003,6.194308611494168,0.13189629973628836
4.93168,6.187747022463215,0.13176711645077716
4.934068,6.179323102312704,0.1316626607448401
4.936448000000002,6.176765714774585,0.13146641103526224
4.938844,6.179563003169658,0.1311678324689745
4.941232000000003,6.17756469413898,0.1309392525470759
4.943612000000002,6.175845924362022,0.1306919716620932
4.946012,6.174918550517984,0.13044056035463708
4.9484,6.177995378166776,0.13012443464292056
4.950780000000002,6.181072205815571,0.1298085337820947
4.953176000000003,6.189084400516977,0.12941646996340803
4.9555640000000025,6.199890091897718,0.12899208140119786
4.957944000000001,6.206551812158764,0.12864065869600444
4.960340000000002,6.216007029099147,0.12825378663546091
4.9627240000000015,6.227184807532225,0.12785272726036476
4.965104,6.243297953017915,0.12738118487484235
4.967500000000001,6.259690637757326,0.12689450675759897
4.969888000000001,6.274220991377179,0.12643203507306533
4.972272,6.294617877609424,0.1258780098302056
4.974668000000001,6.309799857535336,0.12541745744019883
4.977056000000001,6.328054873394303,0.12490827991890267
4.979436,6.344168018879993,0.12443708020160411
4.981836000000001,6.359489768432765,0.12396775061694469
4.984224000000001,6.370947086119564,0.1235555684567602
4.986620000000002,6.376258331940252,0.12324622163598428
4.989016,6.379287937760804,0.12298111207639865
4.991404000000003,6.387252910633967,0.12264272986619856
4.993788000000002,6.397359753880408,0.1222675100056978
4.996184,6.398527028581401,0.12202507655577179
4.998572000000003,6.397831972162839,0.12180467335285466
5.000956000000002,6.392201548691665,0.12165732747520443
5.003352,6.3844292548472135,0.12154865074908396
5.005740000000003,6.377588126562539,0.12142876178827845
5.008120000000002,6.3730286382780035,0.12126256178393854
5.01052,6.36767775406055,0.12109916043539894
5.012908,6.351385200551233,0.12109518195042801
5.015288000000002,6.334021711855277,0.1211093662297398
5.017688,6.3167979927861815,0.1211149464118945
5.020076,6.3017161440903635,0.12108113932847347
5.022460000000002,6.288915935394684,0.1210015878180779
5.024856,6.2701094244597515,0.12101033646530579
5.027244,6.2545157190847345,0.12096228821918982
5.029628000000002,6.240365035948696,0.12091697132692851
5.032020000000003,6.228076683932214,0.12084965021667916
5.034408000000003,6.217650663035287,0.12076087945790295
5.036788000000001,6.21458141881797,0.12054834770035579
5.039180000000002,6.208439138667597,0.1203840059605293
5.041568000000002,6.195499160345055,0.12030958055946574
5.043948,6.188705253888627,0.12013808300890155
5.046344000000001,6.186055318551889,0.11989900007376308
5.048732000000001,6.184336548774932,0.11964824796679191
5.051128000000002,6.181034987132137,0.11940264075740312
5.053524,6.177361338437006,0.11913395912163925
5.055912000000003,6.168333013808681,0.11895984841401015
5.058296000000002,6.156883279553361,0.11883959287041847
5.060692,6.157306380149678,0.11854948953849383
5.063076000000002,6.159452042238695,0.11824652209251699
