Time,Force,Position
6.714123999999998,0.06767159636007213,0.0
6.716519999999999,0.07181556747976603,0.0
6.718916,0.07581976897259973,0.0
6.721304,0.07689070415923825,0.0
6.723683999999999,0.08010350971915384,0.0
6.72608,0.0854581856523465,0.0
6.728468,0.09453752382465244,0.0
6.730848000000002,0.10454802755673671,0.0
6.733252,0.1152693017526423,0.0
6.73564,0.12398847520213103,0.0
6.738019999999999,0.13056577827834268,0.0
6.740416,0.13033346085286543,0.0
6.742804,0.12982160417366773,0.0
6.745187999999999,0.1322430138006652,0.0
6.747592000000001,0.13052045230796877,0.0
6.749980000000001,0.1263645588587546,0.0
6.75236,0.12435053578281746,0.0
6.754756,0.12476984466339809,0.0
6.757144,0.11940324640068516,0.0
6.759523999999999,0.11003244664513853,0.0
6.7619240000000005,0.10266374763600876,0.0
6.764308,0.09529504862687897,0.0
6.766687999999999,0.08592424887133233,0.0
6.7690920000000006,0.07855554986220256,0.0
6.77148,0.06904498047979571,0.0
6.773859999999999,0.05939464147052867,0.0
6.776256,0.04681103615506644,0.0
6.778644,0.036229531586021074,0.0
6.781027999999999,0.02550825739011549,0.0
6.783424,0.016789083940626757,0.0
6.785807999999999,0.010211780864415088,0.0
6.788191999999999,0.00843007521395523,0.0
6.790596000000001,0.005717204003717051,0.0
6.792984000000001,0.002073167233700553,0.0
6.795363999999999,0.0005710008369611167,0.0
6.797768000000001,0.0005710008369611167,0.0
6.800156000000001,0.0005710008369611167,0.0
6.8025400000000005,0.0,0.0
6.804936000000001,0.0,0.0
6.807324000000001,0.0,0.0
6.8097080000000005,0.0,0.0
6.812111999999999,0.0,0.0
6.814495999999998,0.0,0.0
6.816880000000001,0.0,0.0
6.819275999999999,0.0,0.0
6.821660000000001,0.0,0.0
6.824044000000001,0.0,0.0
6.826440000000002,0.0,0.0
6.8288280000000015,0.0,0.0
6.831208,0.0,0.0
6.833604000000001,0.0,0.0
6.835992000000001,0.0,0.0
6.838372,0.0,0.0
6.840772000000001,0.0,0.0
6.843160000000001,0.0,0.0
6.84554,0.0,0.0
6.847940000000001,0.0,0.0
6.8503240000000005,0.0,0.0
6.852708,0.0,0.0
6.855104000000001,0.0,0.0
6.857488,0.0,0.0
6.859871999999999,0.0,0.0
6.862268,0.0,0.0
6.864656,0.0,0.0
6.867035999999999,0.0,0.0
6.869440000000001,0.0,0.0
6.871828000000001,0.0,0.0
6.874207999999999,0.0,0.0
6.8766120000000015,0.0,0.0
6.878996000000001,0.0,0.0
6.88138,0.0,0.0
6.883776000000001,0.0,0.0
6.886164000000001,0.0,0.0
6.888544,0.0,0.0
6.890948000000002,0.0,0.0
6.8933360000000015,0.0,0.0
6.895716,0.0,0.0
6.898112000000001,0.0,0.0
6.900500000000001,0.0,0.0
6.90288,0.0,0.0
6.905276000000001,0.0,0.0
6.9076640000000005,0.0,0.0
6.910043999999999,0.0,0.0
6.912448000000001,0.0,0.0
6.914836000000001,0.0036421409121472543,0.0
6.917216,0.013522901489022332,0.0
6.919616000000001,0.027640180984208375,0.0
6.922004000000001,0.0494863242113414,0.0
6.924388,0.07785062635692269,0.0
6.926784000000001,0.1119416914880341,0.0
6.929172000000001,0.1496176492313986,0.0
6.931552,0.19101826921387632,0.0030092271373139533
6.9339520000000014,0.23628332106232758,0.005921122403151415
6.936336000000001,0.2832709344034753,0.008857678417921809
6.93872,0.32997900849090256,0.011884974486948325
6.941116000000001,0.3756161473916913,0.014971822088466443
6.943504000000001,0.4212532862924801,0.018058669689984562
6.945884,0.4640969285139338,0.021190428361449277
6.9482800000000005,0.5109447722282213,0.0241722190427578
6.950668,0.5617968174353425,0.027027659350374315
6.953052,0.6146509633888805,0.029827103648092487
6.9554480000000005,0.6668534830363606,0.032553252623099375
6.957836,0.721337642683978,0.03515312190138382
6.960215999999999,0.7754497152792579,0.037603293995917365
6.962616000000001,0.8215433584172194,0.03997586284450122
6.965004,0.8598155900246169,0.0422627030440575
6.967383999999999,0.8931996764076454,0.044461962039116926
6.969784000000001,0.913919532006115,0.046734205414126845
6.972168,0.927190063126358,0.049003635116373026
6.974564000000001,0.9378068671941263,0.0511904729868713
6.976959999999998,0.948051584209557,0.05326351746997338
6.979348000000002,0.9565737397322914,0.05229942799364215
6.981728,0.9612314633890522,0.05143267038878741
6.984124000000001,0.9649580214860347,0.0505870611871084
6.986512000000001,0.9700350540233761,0.04961759445190773
6.988896,0.9780453528669127,0.048600386692988516
6.991292000000001,0.987126586897088,0.04755225378553421
6.993680000000001,1.001003418353015,0.04643585925702536
6.9960640000000005,1.0059406812634963,0.04551189790954269
6.9984600000000015,1.0038007067480883,0.044776740640385754
7.000851999999998,0.9987274659264854,0.04409216619300281
7.003232000000001,0.9923037506645235,0.043513149261162745
7.0056280000000015,0.980665129096229,0.043090937272638616
7.008016000000001,0.9664653282740769,0.04064076517810506
7.010396,0.9586439167435129,0.04044095739660024
7.012799999999999,0.9465387644663948,0.03815411719704396
7.015187999999998,0.9312208066293611,0.03595485820198453
7.017568000000001,0.917113553605826,0.03368261482697461
7.019971999999999,0.9032858398360113,0.03141318512472843
7.022359999999999,0.8825206582671679,0.029226347254230164
7.024740000000001,0.8565405703919919,0.027153302771128082
7.027135999999999,0.8254853458373439,0.025108165110145353
7.029523999999999,0.7944301212826957,0.023063027449162634
7.031904000000001,0.763794205608628,0.020972080636071238
7.034312,0.7327389810539799,0.018914251302245395
7.036695999999999,0.7019632957530523,0.01684461145964648
7.0390799999999984,0.6719790063850427,0.014805896765582669
7.041475999999999,0.6417151777633128,0.012790532622626808
7.043863999999999,0.6219737095528648,0.010732703288800967
7.0462440000000015,0.6091697091414455,0.00861242025034139
7.048639999999999,0.5990194357825012,0.006497550400006158
7.051027999999999,0.5910110327968335,0.004350418356839334
7.053408000000001,0.5867272920502795,0.002172761067079032
7.055812,0.5863079831696989,0.002172761067079032
7.058199999999999,0.583607034288981,0.0
7.060580000000002,0.5895661146999884,0.002465192140910487
7.062975999999999,0.6006003317904679,0.0048339178770176695
7.065363999999999,0.6192236429860344,0.0071616394959096025
7.067748000000002,0.6352857749277431,0.009623981328361356
7.070143999999999,0.6590767706013988,0.01203829981438154
7.072527999999998,0.6868719677678882,0.014410868662965391
7.074912000000001,0.7206734671736281,0.016746050530248337
7.077307999999999,0.756616836952645,0.019009109832102897
7.079695999999998,0.7912097322913031,0.02130920900166365
7.082076000000001,0.8242198357641248,0.02360761095379989
7.084472000000002,0.8540171336770311,0.025942792821082836
7.0868600000000015,0.8828832660301592,0.028279066860085487
7.089255999999999,0.9090956713308125,0.030614248727368433
7.091652,0.9278587521532391,0.032947126149850646
7.09404,0.942617631482832,0.035320163295239515
7.096419999999998,0.9607290859992007,0.03758547760219652
7.09882,0.9825652027546826,0.039825107943554955
7.101208,1.0048206283907453,0.04200067813921871
7.103587999999999,1.0220009173473357,0.044268173349898056
7.105988,1.03773818406495,0.04649438120928565
7.108371999999999,1.053894759663145,0.046159468305550386
7.110755999999999,1.0687008608209811,0.04595560168820142
7.113156,1.0756383286200102,0.045851125787070346
7.115544,1.08900140753887,0.04551470658232667
7.117923999999999,1.0967774930990604,0.04518104597174222
7.12032,1.099478441979778,0.04494849037849259
7.122707999999999,1.1013879949275782,0.044688551359556974
7.125088000000002,1.1010159078752406,0.044537450629616046
7.127488,1.0987814897033465,0.04437736471538951
7.129875999999999,1.097618006718091,0.044180787588271514
7.132259999999999,1.0956631277999171,0.043936552534079965
7.134651999999999,1.0909147522024085,0.04367951791253806
7.137039999999999,1.0880287077244564,0.043429538650942755
7.139420000000001,1.0859340591794224,0.04321694426692011
7.141815999999999,1.0841189498881092,0.042923146538991985
7.1442039999999984,1.0741556679842679,0.042804964275201814
7.146595999999999,1.061398889401092,0.042674575415590256
7.148996,1.0472916363775568,0.042651139324965906
7.15138,1.0424034911531879,0.0424414734481124
7.153763999999999,1.0411002385410724,0.042284905431323724
7.156168000000001,1.0347218492494843,0.042212455527974355
7.158552,1.030345560704313,0.04211723625181504
7.160931999999999,1.0319755743983925,0.04193871786848079
7.163328,1.0283906817861392,0.04188243508337162
7.165716,1.0243864802933058,0.04193712543496242
7.168095999999999,1.0255971851068044,0.0418667520222271
7.1705000000000005,1.0214532139871104,0.041961804483002296
7.172888,1.016378077307638,0.04205660464172919
7.175272,1.0145157461880814,0.04204710280201642
7.177668000000001,1.0125136454416646,0.042075789392619606
7.180056,1.0143759765612212,0.04208666740454646
7.182431999999999,1.017029703613696,0.04214277621411223
7.184840000000001,1.0167501643599757,0.04222358482718569
7.1872240000000005,1.0166103947331155,0.042264864659006994
7.189608,1.016330855479395,0.04234718811182714
7.192004000000001,1.0192641217855902,0.0423203391071199
7.194388,1.019775978464788,0.0424529247561941
7.196767999999999,1.0204276047708458,0.04254261778197576
7.199172000000001,1.012791288837516,0.04285413267785965
7.201560000000001,1.0042238073444074,0.0431544300075304
7.203944,0.998310052903774,0.043511579644021386
7.206340000000001,0.9896028017838054,0.043857269541847425
7.208728000000001,0.9798246154771986,0.04422752117773765
7.211107999999999,0.9731194651036471,0.044528933821486025
7.2135120000000015,0.969487350663151,0.04476516319761736
7.215900000000001,0.9626424306627391,0.04511016551281147
7.21828,0.9560770499160477,0.0454022120361407
7.220676000000001,0.9475095684229394,0.043195453305500175
7.223064000000001,0.9357292813699154,0.041064941889878734
7.225448,0.9239489943168916,0.03893443047425729
7.227844000000001,0.9081645057710341,0.03683260564923904
7.230232000000001,0.8925197868520367,0.034697257422212524
7.232612,0.878737399052596,0.03253124620345142
7.235008,0.8678882775593506,0.03036968333317053
7.237396,0.8601121919991603,0.02820812046288965
7.239775999999999,0.8512651712523318,0.026087837424430074
7.242176000000001,0.8419062938263056,0.023846010293608996
7.244564,0.8325474164002791,0.021604183162787925
7.246943999999999,0.8286829845343057,0.0192348389330782
7.24934,0.8269604230416093,0.01918658174673543
7.251728,0.8256571704294935,0.019003637969273318
7.254111999999999,0.8283581193102114,0.018745248861053047
7.256512000000001,0.8281258018847342,0.01852141708683349
7.258896,0.8294762763250929,0.01839520397061547
7.261275999999999,0.8300353548325339,0.01822670732539816
7.263680000000001,0.8296632677801964,0.018050759237774765
7.266064,0.8332953822206925,0.01778767640038244
7.268443999999999,0.8421424029675213,0.019913169555018175
7.270848000000001,0.8551333948340438,0.021970998888844014
7.273236000000001,0.8662620555810097,0.024016136549826737
7.275615999999999,0.8773907163279756,0.026089181032928826
7.278012,0.8883796074480814,0.0281984225146757
7.2804,0.8996480378219076,0.030265026540126024
7.282783999999999,0.9090541370761769,0.032289246006056725
7.28518,0.910312063717919,0.034414154682125046
7.287564,0.9151548829719139,0.03660099255262332
7.289947999999999,0.9227911989052439,0.038792139748720596
7.292352000000001,0.9314984500252124,0.04094427385376
7.294740000000001,0.9351305644657085,0.04308076541774636
7.297115999999999,0.9316854414803156,0.040759085431819456
7.299524000000002,0.9256791392410652,0.038527050238964744
7.301908000000001,0.9153890962552604,0.036370109606760063
7.304288,0.9060302188292342,0.03417896241066279
7.306691999999998,0.8910843480445377,0.03193412304053352
7.309080000000002,0.8778610387525378,0.02973104208259298
7.31146,0.8697128661400104,0.027492348012423347
7.313856000000001,0.8634270246470396,0.02770998033434583
7.316244000000001,0.853928377594153,0.025584487179710097
7.318624,0.8410771553544905,0.02352665784588425
7.321027999999998,0.8319505953539414,0.021481520184901532
7.323416000000002,0.8277594024060044,0.02191776219867715
7.325796,0.8286433461375395,0.02222283920295046
7.328195999999998,0.8313896209886313,0.02252880402608399
7.330580000000001,0.8358584573324195,0.022878073100107425
7.33296,0.8452626607288198,0.023166305363153568
7.335360000000001,0.8502905755800488,0.02335203634123915
7.337744000000001,0.8545270944983598,0.023492549810011344
7.340123999999999,0.8576926782300323,0.023672076369841394
7.34252,0.8643033849470975,0.0239490038559342
7.344904,0.8769203939034131,0.02632292778707159
7.347304000000001,0.8891653158073916,0.02865580520955381
7.349699999999999,0.8996876762186735,0.031027382812711654
7.352084000000001,0.9114207414434543,0.03335646837601046
7.354468000000001,0.9232935762950952,0.035681293587854754
7.356860000000001,0.9303708137209843,0.038049373591382774
7.359248000000001,0.9311622096539025,0.03804937359138278
7.361628,0.9271580081610687,0.03563248227440087
7.364024000000001,0.9242247418548737,0.03563248227440087
7.366412,0.9235731155488157,0.03563248227440087
7.368791999999999,0.9221300933098399,0.03563248227440087
7.371199999999998,0.9177538047646684,0.033123195777523165
7.373584000000001,0.9075109836071068,0.03070887729150298
7.375964,0.8932639609567117,0.028336308442919126
7.378367999999998,0.8742213408805647,0.02596281990296499
7.380756000000002,0.857600130431415,0.02354967896385052
7.383140000000001,0.8427014814749619,0.021177110115266667
7.385535999999998,0.8288737677051473,0.018845449450397202
7.387923999999998,0.8139751187486941,0.016513788785527738
7.390304,0.7965625123666266,0.014100369735448579
7.392707999999999,0.7762166396783636,0.011726445804311182
7.395095999999999,0.7594556596023538,0.00939356838182897
7.397476000000001,0.7457677154593995,0.007021990778671119
7.3998719999999985,0.7319400016895848,0.00469290521537232
7.402259999999998,0.7226283460918018,0.002368080003528025
7.40464,0.7171811223599922,0.0
7.4070360000000015,0.7149467041880981,0.0
7.409424000000001,0.7147143867626207,0.0
7.411804,0.7166239397104205,0.0
7.414207999999999,0.7176023270984419,0.0
7.416595999999998,0.7115034770605744,0.0
7.418976000000001,0.7026111303433717,0.0
7.421372000000002,0.6935790139993091,0.0
7.4237600000000015,0.6866887680285233,0.0
7.42614,0.6795189828040172,0.0
7.428536000000001,0.6700675575793738,0.0
7.430924000000001,0.6564721612350365,0.0
7.433308,0.6413865208234799,0.0
7.435704000000001,0.6264406500387837,0.0
7.438092000000001,0.6173613118664777,0.0
7.440487999999998,0.6062798729477549,0.0
7.442883999999999,0.5904028366032803,0.0
7.445271999999999,0.5743860306319456,0.0
7.4476520000000015,0.5594401598472494,0.0
7.450056,0.542259870890659,0.0
7.452444,0.5244279556280107,0.0
7.454827999999999,0.509808845925278,0.0
7.457224,0.4939790314090466,0.0
7.459612,0.47614711614639826,0.0
7.461995999999999,0.45589379125675245,0.0
7.464392,0.44271770379299563,0.0
7.466775999999999,0.4320555737548535,0.0
7.469159999999999,0.42539764520954493,0.0
7.471556,0.41859994703737635,0.0
7.473943999999999,0.41836762961189905,0.0
7.476323999999998,0.4181353121864218,0.0
7.478719999999999,0.42432860588077576,0.0
7.481107999999999,0.42879933808243326,0.0
7.483488000000001,0.4352721710305075,0.0
7.485883999999999,0.43480753617955303,0.0
7.4882719999999985,0.4402094339409889,0.0
7.490656000000001,0.45161763394167526,0.0
7.493051999999999,0.4620946683825832,0.0
7.4954360000000015,0.4716405372637129,0.0
7.497820000000001,0.48356059394359696,0.0
7.500215999999998,0.4958527376758185,0.0
7.502604000000002,0.5038611406614859,0.0
7.504984,0.5129404788337918,0.0
7.507383999999998,0.5178758458864039,0.0
7.509772000000002,0.5261637881257917,0.0
7.512167999999999,0.5372452270445145,0.0
7.514572000000001,0.5476750396571793,0.0
7.516956,0.5562425211502876,0.0
7.51934,0.564949772270256,0.0
7.521736000000001,0.5712356137632272,0.0
7.52412,0.5804547215623933,0.0
7.526499999999999,0.5884631245480606,0.0
7.5289,0.5987531675338653,0.0
7.531288,0.6039680738401978,0.0
7.533667999999999,0.611185080892947,0.0
7.536064,0.613326951266224,0.0
7.538451999999999,0.6123957857064456,0.0
7.540831999999998,0.6142581168260023,0.0
7.543227999999999,0.6138388079454217,0.0
7.545615999999999,0.607692736079311,0.0
7.547999999999998,0.5982413108546676,0.0
7.550395999999999,0.5890694248837446,0.0
7.552783999999999,0.5769642726066264,0.0
7.555164000000001,0.5719363577553975,0.0
7.557559999999999,0.5647665725308912,0.0
7.559947999999999,0.5486572187609394,0.0
7.562332000000001,0.5376230016704597,0.0
7.564727999999999,0.524446914206703,0.0
7.567115999999999,0.5120622226758644,0.0
7.569512,0.49688403446569074,0.0
7.571908,0.475839313643127,0.0
7.574296,0.4515817872606475,0.0
7.57668,0.4229007505047537,0.0
7.579076000000001,0.401296951174749,0.0
