Time,Force,Position
10.435056,0.3542509882111961,0.0
10.437448,0.3461500374269115,0.0
10.439836,0.335208368135049,0.0
10.44222,0.3286902092166007,0.0
10.444616,0.32068180623093334,0.0
10.447004,0.30852943212557205,0.0
10.4494,0.29195354764679643,0.0
10.451796,0.27551743279488095,0.0
10.454184,0.26215435387602093,0.0
10.456563999999998,0.24478707346432718,0.0
10.458964,0.23119167711998984,0.0
10.461352,0.22602399264190054,0.0
10.463736,0.21554885405886173,0.0
10.466132,0.2113595569687939,0.0
10.46852,0.20931213025200315,0.0
10.4709,0.21206030096096418,0.0
10.473296,0.21238706204292776,0.0
10.475684,0.2107117223784745,0.0
10.478064,0.2087568434603008,0.0
10.48046,0.21066639640810056,0.0
10.482848,0.20792012155700876,0.0
10.485232,0.19967940114586405,0.0
10.487628,0.19199775924216025,0.0
10.490016,0.18510751327137454,0.0
10.492396,0.17649470580789234,0.0
10.494796,0.17188609983724387,0.0
10.49718,0.16834842905323397,0.0
10.499564,0.16252911826908675,0.0
10.501964,0.15521956341772042,0.0
10.504347999999998,0.1487014044992722,0.0
10.506732,0.13847765457069142,0.0
10.509128,0.12410993352241668,0.0
10.511516,0.11239593952661674,0.0
10.513912,0.09854007515753972,0.0
10.516308,0.08648024885079546,0.0
10.518695999999998,0.07348925698427292,0.0
10.521076,0.06142943067752866,0.0
10.523472,0.05258240993069999,0.0
10.52586,0.046017029184008594,0.0
10.528239999999998,0.038520482877538884,0.0
10.53064,0.035679764369960766,0.0
10.533024,0.040056052915131944,0.0
10.535408,0.04322163664680439,0.0
10.537804,0.04531628519183831,0.0
10.540192,0.050483969669927596,0.0
10.542572,0.05164745265518319,0.0
10.544968,0.05094860452088214,0.0
10.547356,0.05546466269291353,0.0
10.549736,0.060400029745525545,0.0
10.552132,0.06747726717141463,0.0
10.55452,0.07770101709999543,0.0
10.556916,0.09085803333477138,0.0
10.559316,0.10401504956954735,0.0
10.5617,0.11717206580432332,0.0
10.56408,0.12946420953654486,0.0
10.566476,0.14161658364190619,0.0
10.568864,0.15497966256076623,0.0
10.571244,0.16685249741240712,0.0
10.573648,0.17686300114449138,0.0
10.576035999999998,0.18859606636927206,0.0
10.578416,0.1944625989816624,0.0
10.580812,0.19525399491458054,0.0
10.5832,0.2029828586465275,0.0
10.585579999999998,0.20992032644555633,0.0
10.58798,0.21485569349816835,0.0
10.590364,0.2199308301776406,0.0
10.592747999999998,0.2276596939095876,0.0
10.595144,0.2324552913353394,0.0
10.597532,0.23925298950750806,0.0
10.599927999999998,0.2411153206270647,0.0
10.602324,0.24232602544056345,0.0
10.604716,0.23981206801494892,0.0
10.607096,0.23636694502955607,0.0
10.609492,0.2318508868575247,0.0
10.61188,0.22933692943191014,0.0
10.614264,0.22989600793935097,0.0
10.616668,0.22831321607351474,0.0
10.619056,0.22714973308825914,0.0
10.621436,0.22570671084928312,0.0
10.623836,0.2274764941702227,0.0
10.626224,0.23325047898399595,0.0
10.628604,0.24302866529060296,0.0
10.630999999999998,0.24586938379818105,0.0
10.633388,0.2464284623056219,0.0
10.635768,0.2469875408130628,0.0
10.638164,0.25234221674625545,0.0
10.640552,0.2579764319331685,0.0
10.642932,0.26239994230658287,0.0
10.645328,0.2654729782396383,0.0
10.647716,0.27255021566552734,0.0
10.650096,0.2745523164119442,0.0
10.652492,0.27520394271800214,0.0
10.65488,0.2778576697704769,0.0
10.65726,0.28251349756936844,0.0
10.65966,0.28223395831564807,0.0
10.662048,0.2767395127555952,0.0
10.664428,0.27189669350160023,0.0
10.666824,0.2671464220462223,0.0
10.669212,0.2702175621214085,0.0
10.671596,0.2670954085022407,0.0
10.673992,0.26965279604035985,0.0
10.67638,0.2737457536160722,0.0
10.678776,0.28137638197579434,0.0
10.681172,0.2948263211196637,0.0
10.68356,0.3106032262340443,0.0
10.68594,0.3249824350798227,0.0
10.688344,0.33861557396305697,0.0
10.690732,0.35592615325716137,0.0
10.693112,0.36997670516310704,0.0
10.695507999999998,0.3844918919200072,0.0
10.697896,0.40813174281958725,0.0
10.700276,0.43852207006309285,0.00858705450122398
10.70268,0.4723102984637481,0.016929132469933432
10.705068,0.5089845713423553,0.02506256318026264
10.707448,0.550267450191611,0.03332654176698025
10.709844,0.5969975527726765,0.04140089814911113
10.712231999999998,0.6453104472195782,0.049539838418413584
10.714612,0.6969759168532557,0.05736755498094614
10.717012,0.7388178742099522,0.06556302344596433
10.719396,0.7868531252610026,0.0733071593970521
10.721775999999998,0.828417439221848,0.0810879282829711
10.724172,0.8656526864657653,0.08890631437735728
10.726556,0.9025630684855883,0.09654754999806132
10.72894,0.9368669452811798,0.10406361900192261
10.731336,0.9720566616661755,0.11129910581071754
10.73372,1.0069215128270772,0.1183808503493261
10.736116,1.041880807644465,0.12533824308613015
10.738512,1.0731626620509827,0.13240381202882828
10.7409,1.1079840830993795,0.1393612047656323
10.74328,1.1432720348566001,0.14615210783945942
10.745676,1.1722288191504762,0.15304520710675382
10.74806,1.1975081630334816,0.15128874645498516
10.750444,1.215385404266504,0.15001223742897385
10.75284,1.2283745002751574,0.1490562319631867
10.755228,1.242481753298692,0.1477666302946457
10.75762,1.2542148185234727,0.14664294047553175
10.760024,1.267717667069193,0.1452330448593256
10.762412,1.2764249181891614,0.14427106025793784
10.764792,1.2880654356153254,0.14298049021045897
10.767192,1.2924889459887396,0.14245876413612618
10.76958,1.293420111548518,0.14237609721277514
10.77196,1.2951426730412143,0.1422558130809569
10.774356,1.2965856952801904,0.14223251326353462
10.776744,1.294955681586111,0.14254416082220586
10.779124,1.2898333230783956,0.1433191077390584
10.781524,1.2824293245705431,0.14438841423275303
10.783912,1.276188809047946,0.14549682083041404
10.786296,1.2738127253913225,0.14624025392540504
10.788692,1.2731592032273955,0.14685732749845298
10.79108,1.270363810690191,0.14768392354567542
10.79346,1.2695705188994038,0.1483338264835073
10.795856,1.2687772271086164,0.14897383457873398
10.798244,1.2737106983033595,0.14917339745546826
10.800628,1.2803667309907985,0.14927426535237087
10.803024,1.2848808933049605,0.14959109879546034
10.805408,1.290186451552041,0.14988074399961018
10.807792,1.2929308305452634,0.1504802628261606
10.810188,1.2993998717775992,0.15083193949149107
10.812576,1.309314035995328,0.15101890136262922
10.81496,1.3258861287583652,0.15074007075598414
10.817355999999998,1.3532601211864044,0.14964888098684226
10.819748,1.3837996973461164,0.14850122596157744
10.822128,1.4136404253715273,0.14753498876095386
10.824523999999998,1.4477176723152492,0.14634477874090873
10.826912,1.484448646311446,0.14497199889942675
10.829292,1.5255559088528137,0.14337849125684415
10.831688,1.5665234017673213,0.14187153150803075
10.834076,1.6052092546816918,0.1406612522252538
10.836456,1.6434757987154816,0.1396481086330003
10.838856,1.6793209331222736,0.13880043427947072
10.84124,1.7156779242082636,0.13802551536333815
10.84364,1.7505446712270343,0.1374280931141239
10.846036,1.7832695478725282,0.13704766280993166
10.84842,1.81678582045094,0.13665074828709614
10.8508,1.850441862656212,0.13622644240645349
10.853196,1.8831667393017053,0.13586427806562304
10.855584,1.9173818600144181,0.13533547422331846
10.857968,1.948803484047796,0.13496792222642276
10.860364,1.9757090499091428,0.13481622635992327
10.862752,2.0011715935315126,0.13470867233631004
10.865136,2.0209073741683534,0.13492415719902134
10.867532,2.0365464055137434,0.13523467864492134
10.86992,2.055957320926489,0.13524579508866466
10.8723,2.072854278913621,0.13531887081324237
10.874696,2.090170545781333,0.13532034381357197
10.877088,2.1040416896636525,0.13542541493603252
10.879468,2.1172612072399137,0.13551741545626428
10.881863999999998,2.1298290985101174,0.1355928993813858
10.884252,2.136949766048511,0.13586264072681487
10.886648,2.1497046487738176,0.13576702263932863
10.889044,2.1619476748199267,0.13563816875730167
10.891432,2.1746100097466163,0.13542740812994375
10.893812,2.1863411791135277,0.13525167646654926
10.896211999999998,2.195558391054825,0.13513855221253823
10.898596,2.2046358333692613,0.13505087559415996
10.90098,2.2121304838178624,0.1349883582528396
10.903376,2.2146897672138506,0.135166280190593
10.905764,2.218599525050198,0.1352309771935461
10.908148,2.2238597573269043,0.13518109271553472
10.910544,2.227117888857194,0.13523534741320467
10.912932,2.228793228521647,0.13531704224008234
10.915316,2.23032879855924,0.13542356994663513
10.917712,2.2270687711710817,0.13574287025247947
10.9201,2.2242280526635034,0.13598947533060002
10.922479999999998,2.220456168596147,0.1362684535238718
10.924876,2.2177552197154284,0.13648552617639964
10.92726,2.211748917476178,0.13678143916085586
10.929644,2.2069533200504265,0.13699002253056583
10.93204,2.2084435641176454,0.13685724314731754
10.934428,2.2085833337445058,0.13683387657316728
10.936824,2.211796139304421,0.13666508319593376
10.93922,2.216079880050976,0.1364409596194816
10.941608,2.2235764263574453,0.1360553719043495
10.943988,2.232143907850554,0.13561049967646485
10.946388,2.241270467851103,0.13508226933496068
10.948771999999998,2.254121690090765,0.13443147699352156
10.951152,2.271908279383039,0.13356330265179656
10.953551999999998,2.288204624608094,0.13281909528464994
10.955939999999998,2.307014927258764,0.13203741240491007
10.95832,2.3254059210288527,0.13131550850463836
10.960715999999998,2.3441690018512795,0.1306399627505782
10.963103999999998,2.366796514539679,0.1298193129005409
10.965495999999998,2.3908670494670554,0.128996541035818
10.9679,2.412516174767435,0.1283124533192598
10.970288,2.433885760814093,0.12767946894932708
10.972668,2.454975807607031,0.12709680365619058
10.975072,2.4838872659305324,0.1263249289608754
10.977456,2.5141019768661503,0.12559652063685972
10.979836,2.5428264437345485,0.12502101026308007
10.98224,2.570619745043169,0.12448652696692754
10.984628,2.5931981400454567,0.12419396363084895
10.987008,2.6177786357941613,0.12384143433269447
10.989411999999998,2.6403570307964492,0.12357988820941453
10.991796,2.663726821731655,0.12331241205864622
10.994176,2.68653753415942,0.1231290786391339
10.996572,2.7045526491614336,0.12309760423322627
10.99896,2.7245698649098644,0.12300920800465774
11.00134,2.7479396558450695,0.12277534755308483
11.003736,2.771728755660855,0.12250532534268933
11.00612,2.797008099543861,0.12213829690950943
11.008499999999998,2.8276421193600596,0.12157959646178233
11.010904,2.858415908803119,0.12103062582531436
11.013288,2.8904004030596755,0.12043273493851464
11.015667999999998,2.9308126091824804,0.11955839467403678
11.018072,2.9697817930663097,0.11867399155704238
11.02046,3.0070284154574423,0.11780901405618148
11.02284,3.035103151877652,0.11715012002807579
11.025244,3.0650874412456615,0.11638379404807085
11.027628,3.092418003561196,0.11566570933857298
11.030008,3.1200281051304515,0.1149227940644824
11.032412,3.1467070411399285,0.11418126146505356
11.034796,3.1693817756565723,0.11356389612509211
11.037176,3.1920565101732152,0.11295325569287244
11.03958,3.215941949503357,0.1123000439547438
11.041968,3.2410380936469982,0.11160216527744034
11.044348,3.2717212311493085,0.11078899922852116
11.046751999999998,3.299331332718564,0.11008654492345361
11.049136,3.321866297608347,0.10952875744532595
11.051516,3.3431905576846312,0.10903700297672078
11.053916,3.363304112947417,0.10859659153062035
11.0563,3.3791339274636485,0.10830003327388198
11.05868,3.3897488356735477,0.10815040410032666
11.061084,3.39822187351017,0.10806590752807832
11.063472,3.401340235413599,0.10814183227785387
11.065852,3.4108369866086163,0.10811947983180702
11.068255999999998,3.4244777089233276,0.10799283131775883
11.070643999999998,3.4457075253431255,0.10772378990429947
11.073024,3.4593010258295935,0.10768012678810326
11.075419999999998,3.4755482533685362,0.10760332159253759
11.077808,3.4957996824003126,0.10744647364491729
11.080188,3.5200553129249226,0.10719918250764332
11.082591999999998,3.5491065408752847,0.10686632549012116
11.084975999999996,3.5758761288255094,0.106601614770338
11.087356,3.603437112708652,0.10634560898325902
11.089752,3.6302067006588774,0.1060971696196458
11.09214,3.6533913959968496,0.10589831839120772
11.09452,3.6767158609616817,0.10568818334794064
11.096916,3.7051154626059857,0.10536820112724173
11.099304,3.729510862757456,0.10512939276226027
11.101684,3.7557685940284826,0.10486336397916668
11.10408,3.7805833030605336,0.10458543717520673
11.106468,3.810752688025777,0.10417144127401698
11.108847999999998,3.8402704466849635,0.1037409120654955
11.111252,3.8708591405307877,0.10328841364069627
11.113636,3.893718970644665,0.10298045741515517
11.11602,3.915368095945044,0.1027209761808763
11.118412,3.937296760499143,0.10244904402558692
11.1208,3.964719870613295,0.10203376656377226
11.123179999999998,3.987347383301695,0.1016925269513313
11.12558,4.002338580056765,0.10154529639041623
11.127964,4.019611416811973,0.1013428467675954
11.13036,4.035301461701344,0.1011480308549309
11.132763999999998,4.054344081777491,0.10086861747127573
11.135148,4.071524370734082,0.10061802742802889
11.137528,4.089496055623591,0.10037111910816256
11.139924,4.110680546073014,0.10005958456828225
11.142312,4.133867137268855,0.09971960096852289
11.144696,4.157053728464697,0.09938923109208823
11.147092,4.183453125220453,0.09898938324688283
11.149476,4.207059025296874,0.09862282210391385
11.151856,4.23345842205263,0.09822610151415954
11.15426,4.2557138476886935,0.09791054410142327
11.156648,4.281693935563869,0.09755432498913115
11.159028,4.305951461946348,0.09721196471209866
11.161424,4.332630397955826,0.09680065480154292
11.163812,4.357726542099466,0.09639316354556482
11.166196,4.376956153630717,0.09607500373257344
11.168592,4.391250398109355,0.09583095647233228
11.170976,4.409688613707688,0.09550938293416125
11.17336,4.431107317440458,0.0950736304527104
11.175756,4.446240179680257,0.0947604496450768
11.178144,4.4583000059870015,0.09450268241513161
11.180523999999998,4.470639371547466,0.09422799705359289
11.18292,4.480325010055456,0.09397239305093617
11.185308,4.487496691137832,0.09372661574729031
11.187704,4.491595336287152,0.09353485779904121
11.190103999999998,4.4910381536375805,0.09339245179275829
11.192491999999998,4.4859649128159775,0.09328767263473685
11.194872,4.483033542367651,0.09314324626636264
11.197267999999998,4.485736387106239,0.09288088846363801
11.199656,4.485645735165491,0.09264643269827272
11.202036,4.488767888784659,0.09235457049794821
11.204439999999998,4.491797494605209,0.09201425452872487
11.206827999999998,4.493895934865981,0.09168214870249573
11.209208,4.496134144753614,0.0913405867378288
11.211603999999998,4.4960907146411095,0.09104549346109524
11.213991999999998,4.496187054155466,0.09073774259056769
11.216372,4.502289695909071,0.09034779743798102
11.218768,4.507740711356619,0.0899477500913963
11.221156,4.509187525311335,0.08959968348738626
11.223536,4.512404122586989,0.08917876909565248
11.225936,4.515248632810304,0.08872270520874452
11.228324,4.513018006354148,0.08834021940742681
11.230704,4.510927149524853,0.08794437985748989
11.2331,4.509767458255335,0.08753952189042673
11.235488,4.5078163710529005,0.08713210598691899
11.237868,4.506936219037104,0.08670336863437826
11.240264,4.504845362207809,0.08630039268418759
11.242648,4.497819138325901,0.08596234237534744
11.245044,4.482504972204605,0.08575426641071275
11.247443999999998,4.466399410150393,0.08554253826907551
11.249831999999998,4.444567085110649,0.08539050455477634
11.252212,4.4171005448839935,0.08535257042733979
11.254607999999998,4.390984479097694,0.08527142088718193
11.256996,4.362586773311261,0.08523769430928306
11.259376,4.3356793115920444,0.08515251307012668
11.261772,4.308911619499688,0.08505583645915545
11.26416,4.27827949554136,0.08499867465306103
11.266544,4.2485785371428095,0.08492862516775007
11.268936,4.226746212103066,0.08476052302752934
11.271324,4.206496678929159,0.08459550302649269
11.27372,4.18647946318073,0.08447489838356893
11.276115999999998,4.168883657059296,0.08429441945890288
11.278503999999998,4.1534297213111415,0.08407475902983144
11.280884,4.1362532240702885,0.08385736696321248
11.283279999999998,4.113349963843907,0.08369479025907392
11.285667999999998,4.08765320693819,0.08355369610380385
11.288052,4.0625155285399135,0.08336606846973507
11.290447999999998,4.035795058275801,0.0831694789722737
11.292832,4.009354127265409,0.08294895116766698
11.295212,3.9839841314416553,0.08270516138572653
11.297608,3.9627581067375957,0.0823899314423059
11.299996,3.9430223261007558,0.08201639506129939
11.302376,3.919933970277139,0.08171207068468982
11.304776,3.8994067937073806,0.08132811346310859
11.30716,3.877948451577844,0.08094777686810843
11.309559999999998,3.8586319798215847,0.08052326877178445
11.311956,3.837453176945768,0.08011045145947235
11.314343999999998,3.812409942203978,0.07973776945301121
11.316724,3.777495973356964,0.07948947864738518
11.319124,3.738857342270837,0.07926881750727052
11.321511999999998,3.7006380200652904,0.07901056224362284
11.323895999999998,3.6619993889791638,0.07878377329531758
11.326292,3.6210791178928985,0.07860411946463058
11.328684,3.579599768299193,0.07847352790304228
11.331067999999998,3.5477116135569915,0.0782354874337983
11.33346,3.5215502218003203,0.07793340926672976
11.335843999999998,3.5004167448948778,0.07763243800043881
11.338224,3.4827283909748283,0.07732225573788344
11.340616,3.4715581959732265,0.07695686696580767
11.343,3.459968692091044,0.07662706532437136
11.345396,3.4459577785818647,0.0763603250107017
11.3478,3.431527556192105,0.07612900072998764
11.350184,3.4200306001085394,0.07586068451563344
11.352564,3.4076950262638137,0.0756679282203653
11.354968,3.3986648057776203,0.07548294290890419
11.357352,3.391077607530403,0.07532103129168086
11.359731999999996,3.3880064674552166,0.07513568258512027
11.362127999999998,3.3893116159252017,0.07494009816009153
11.364511999999998,3.3982058585002735,0.07467245327725336
11.366892,3.40961405850096,0.07440713639660025
11.369284,3.42488669036762,0.07410564703004478
11.371672,3.440950718167198,0.07380956212147194
11.374064,3.4604598689521695,0.07351112584001279
11.376468,3.4850441564166124,0.07314141024905568
11.378851999999998,3.5084177390675566,0.07281490744108829
11.381232,3.5304408472781423,0.07253887318888855
11.383623999999998,3.5479478973166962,0.0722840938347076
11.386012,3.5682484440345847,0.07201509692826547
11.388403999999998,3.5873382859389755,0.07178285537586669
11.3908,3.6113634948959783,0.07150176320029165
11.393183999999998,3.6421864020251484,0.07116197182370479
11.395564,3.6758028058336545,0.07080352111118642
11.397959999999998,3.70913967038844,0.07046898970682121
11.400344,3.7427560741969454,0.07011053899430282
11.402739999999998,3.7765122476323114,0.06974706622939478
11.405144,3.8091974858810382,0.06940619722360741
11.407528,3.8388096881967106,0.06910638981263342
11.409907999999998,3.865628393833048,0.06882397889587079
11.412312,3.8933782650291633,0.06854342623305096
11.4147,3.923130236971695,0.06824420511713981
11.41708,3.946736137048117,0.0680227923681099
11.419484,3.9723441378709556,0.06778258706335699
11.421868,4.000513317947651,0.06748505758395007
11.424248,4.024678296531515,0.06723208827820452
11.426652,4.047632570301878,0.06700816341892162
11.42904,4.0684449736989645,0.06681394702106883
11.431416,4.094844370454721,0.06659519589673601
11.433812,4.116308400157865,0.06642147823084205
11.4362,4.13791219948787,0.06624018564019704
11.438579999999998,4.156303193257959,0.06610721071032184
11.440972,4.168687884788797,0.06603285805538239
11.443359999999998,4.183214446692914,0.06593160339143203
11.445736,4.198951713410528,0.06580606074493531
11.44814,4.2173427071806175,0.06568070437389467
11.450527999999998,4.234662765764067,0.06557117732556562
11.452908,4.253705385840215,0.06546526009461846
11.455308,4.276752207409195,0.06532491856030925
11.457696,4.306736496777205,0.0651333901748937
11.460088,4.332856354279241,0.06496822705739475
11.46248,4.356042945475083,0.06482477833351546
11.464868,4.386167004469952,0.06462820578231523
11.467247999999998,4.4144287323452645,0.06444132456021334
11.469644,4.438406719474025,0.06431141072246095
11.472027999999998,4.464386807349201,0.06416584701922222
