Time,Force,Position
6.586476000000001,0.12563925417453742,0.0
6.588864000000001,0.12284973107234001,0.0
6.591244,0.11712694166394744,0.0
6.593640000000001,0.11247508744219341,0.0
6.596028,0.10661252840694063,0.0
6.598408000000001,0.10140159567774576,0.0
6.600804,0.09297785738863527,0.0
6.603192,0.08227247909938754,0.0
6.605588000000001,0.07347268018080202,0.0
6.607984,0.06504894189169155,0.0
6.610372,0.059973805212219324,0.0
6.612752,0.05811147409266268,0.0
6.615148,0.054526581480409606,0.0
6.617535999999999,0.047449344054520524,0.0
6.6199200000000005,0.03902163218827249,0.0
6.622316,0.03287556032216174,0.0
6.624704,0.03208416438924363,0.0
6.6270880000000005,0.03301532994902195,0.0
6.629484,0.02915089808304845,0.0
6.631872,0.02700902770977139,0.0
6.634252,0.02807996289640992,0.0
6.636648000000001,0.03478113969282396,0.0
6.639036000000001,0.04376395648937527,0.0
6.64142,0.053677938845704896,0.0
6.643816000000001,0.06079842452269957,0.0
6.646204000000001,0.06563727019955697,0.0
6.648584,0.0715470510630529,0.0
6.650980000000001,0.07759660155340904,0.0
6.653368,0.07987824155354631,0.0
6.655752,0.08527616573784456,0.0
6.658148000000001,0.08746525793936478,0.0
6.660540000000001,0.09030597644694288,0.0
6.66292,0.09472948682035723,0.0
6.665316000000001,0.09635950051443659,0.0
6.6677040000000005,0.09826905346223638,0.0
6.6701,0.09710557047698079,0.0
6.672496000000001,0.09226672480012339,0.0
6.67488,0.08756764875012621,0.0
6.67726,0.08566206937946398,0.0
6.679656,0.08296509407588365,0.0
6.682043999999999,0.07812624839902624,0.0
6.6844280000000005,0.0714250716026122,0.0
6.686820000000001,0.062442254806060894,0.0
6.689208000000001,0.05252827244973126,0.0
6.691604,0.04540778677273659,0.0
6.694000000000001,0.04056894109587919,0.0
6.696388000000001,0.03465916023238326,0.0
6.698767999999999,0.02860960974202712,0.0
6.701164,0.02563309518472636,0.0
6.703552,0.020235171000428123,0.0
6.705936,0.01669957793568652,0.0
6.708332,0.011301653751388283,0.0
6.71072,0.0060434991939502525,0.0
6.713104,0.0027874453829290742,0.0
6.7155000000000005,0.0006927968378951644,0.0
6.717884,0.0011121057184757949,0.0
6.720268000000001,0.005858403596716133,0.0
6.722664,0.008602600728539621,0.0
6.725052,0.01507146009947639,0.0
6.727432,0.02046938428377463,0.0
6.729828,0.02386520772165602,0.0
6.732216000000001,0.030334067092592787,0.0
6.7346,0.03573199127689102,0.0
6.736996,0.03926758434163263,0.0
6.739384000000001,0.04387411259301275,0.0
6.741768,0.04955157603103142,0.0
6.744164,0.05215600353599469,0.0
6.746548000000001,0.05769369734715315,0.0
6.748948,0.06537326153158865,0.0
6.751344,0.0749151568355808,0.0
6.753731999999999,0.08459682176643316,0.0
6.756112,0.09642035707056258,0.0
6.758512,0.1031687556952198,0.0
6.7609,0.11084831987965531,0.0
6.76328,0.1161557739846048,0.0
6.765676000000001,0.12281370252991325,0.0
6.768064000000001,0.12174276734327473,0.0
6.770444,0.12253416327619282,0.0
6.77284,0.11773856585044101,0.0
6.775228,0.1130827380515494,0.0
6.777608000000001,0.11042901099907466,0.0
6.7800080000000005,0.1039601516281379,0.0
6.782396,0.0991645542023861,0.0
6.784776000000001,0.09730222308282944,0.0
6.787175999999999,0.0926956948314493,0.0
6.789560000000002,0.08701823139343065,0.0
6.791955999999999,0.08441380388846736,0.0
6.794352,0.07887611007730891,0.0
6.796735999999999,0.0711965458928734,0.0
6.7991160000000015,0.061654650588881255,0.0
6.80152,0.052059664021639154,0.0
6.803908,0.043580938611409485,0.0
6.806287999999999,0.04636874771713672,0.0
6.808692000000001,0.051483522793375126,0.0
6.811076,0.060275738280483666,0.0
6.813455999999999,0.06939281899168652,0.0
6.815852,0.08856572940534754,0.0
6.818239999999999,0.11155584985673893,0.0
6.820620000000002,0.13873526739819814,0.0
6.823024,0.17410818352255886,0.0
6.825412,0.21166829599057058,0.0
6.827791999999999,0.2535081756279988,0.008913225453699426
6.830196000000001,0.29707269447739176,0.017945956984676402
6.83258,0.3446867407899924,0.02670409772515596
6.834959999999999,0.39709241095120723,0.03551279813150909
6.837364000000001,0.4539669174562103,0.04410528375466135
6.839752000000001,0.5145188643720836,0.05255784804268319
6.842136,0.5793073302062678,0.06070914844584558
6.844528,0.6435367175330111,0.06903781373348335
6.846916,0.7070672567254533,0.07759257498426116
6.849295999999999,0.770883204606623,0.08623942457348786
6.851700000000001,0.8310217120769223,0.0950241342641586
6.854084,0.8846892824570166,0.1039017669076444
6.856463999999999,0.9377524483592962,0.11254933975902946
6.85886,0.9895123616494599,0.12132957336839233
6.861248,1.0397367049020307,0.13006484735509333
6.863627999999999,1.0833503414375358,0.13893236090208472
6.866028,1.1253811861072052,0.1477512743811099
6.868416,1.1654571518587005,0.15665413552847288
6.870795999999999,1.196780540519854,0.16582196848900577
6.873192,1.2282909206361103,0.17484740454318226
6.875575999999999,1.2594292137000291,0.17478416506334263
6.877960000000002,1.2904749589653313,0.17451844398714503
6.880355999999999,1.317983033446623,0.17444927542647953
6.882740000000002,1.3478199697562954,0.17393772862594428
6.885135999999999,1.3775643582673507,0.17339154579914748
6.887540000000001,1.4044227023004543,0.17295752871416262
6.889928000000001,1.428627319281083,0.17277074527375968
6.892308,1.4569759073814055,0.1722131242961816
6.894712000000002,1.4857438043623088,0.17148996875453834
6.897100000000002,1.513860075037154,0.17073565422594963
6.8994800000000005,1.5442579857121363,0.16973448495739243
6.9018760000000015,1.576657997133536,0.16856473717202905
6.904264000000001,1.6064042815024602,0.1676250491787665
6.906644,1.6380601188191843,0.16639452729132742
6.909040000000001,1.6658515242699354,0.16541936377074984
6.911424,1.694993404161045,0.16425973508188094
6.913808,1.7229718010668995,0.1630974883779191
6.9162040000000005,1.7536511468534717,0.16164802037559195
6.918588,1.7870314415207618,0.15983232664283178
6.920968000000002,1.8200396491357145,0.15804268695640558
6.9233720000000005,1.848019941899438,0.15651773687634946
6.92576,1.876047456491405,0.15490748229058854
6.928139999999999,1.9032835751504535,0.15335871194910178
6.930544000000001,1.924141304517914,0.15224458961019827
6.932928,1.9376894790340082,0.15154184493059727
6.935307999999999,1.9553816246697961,0.15059573313440236
6.937712000000001,1.9696286473201916,0.1497879720406614
6.940100000000001,1.9792198421716953,0.14924356911735737
6.94248,1.9892303459037795,0.14861203067327808
6.944876000000001,2.0018020288897214,0.1477561818724477
6.94726,2.0135823159427453,0.14694296903086085
6.949639999999999,2.024059350383653,0.14612953719174057
6.952044000000001,2.031742888145226,0.14543771452996737
6.954432000000001,2.0364931596006044,0.14491978071374126
6.956807999999999,2.0456669414293964,0.14407214339340807
6.959216000000001,2.053397701019213,0.14323975564737101
6.961600000000001,2.059685438370053,0.1424212418134731
6.963984,2.060106643108503,0.1419299995356824
6.966380000000001,2.0603880782200927,0.14147144809860207
6.968764,2.059086721465846,0.14105027279021556
6.971148,2.062069105458154,0.14035831386608644
6.973544,2.061187057584488,0.1398601865128869
6.975928,2.0599329226584846,0.1393015715411226
6.978308000000002,2.057747622172703,0.1387773319979979
6.980708,2.057564422433338,0.13813224656517714
6.983096,2.0465793230289706,0.13806977086908057
6.985488,2.0365253891843818,0.13796905935419151
6.987884000000001,2.0256800594068745,0.13789345096629185
6.990272000000001,2.0166970607489243,0.13772055156185878
6.992652,2.0051528828371157,0.13776887290332124
6.995056000000002,1.991466834552031,0.13796034848555924
6.9974440000000016,1.9781528733192832,0.13820909139152424
6.999824,1.9702861358183452,0.13822567830494992
7.002220000000001,1.9661440605565204,0.13806754818629888
7.004608000000001,1.9614429067872547,0.13801361277385477
7.006988,1.9569740704434666,0.13805061184916104
7.009392000000002,1.9527375515251555,0.13817921954581014
7.011780000000002,1.9522256948459582,0.13814108072565476
7.01416,1.9505031333532614,0.13819843733554818
7.016556000000001,1.9462193926067075,0.1384770897736665
7.018944000000001,1.9392347029794352,0.1389929842467041
7.021324,1.9332737267105586,0.13959569216572504
7.023720000000001,1.9267536719342413,0.14030373693034623
7.026108000000001,1.9228873442103986,0.14091574816861782
7.028492,1.921814513165891,0.1413963325749599
7.030888000000001,1.9315435817863857,0.14129884601000467
7.033272,1.9449973126459938,0.14103701675966082
7.035668000000001,1.96510897205091,0.14047266968512698
7.038063999999999,1.9830787610825493,0.14005581240969486
7.040452000000002,1.999325988621492,0.13967697871071952
7.042836000000001,2.0195774176532684,0.13909053629374657
7.045228000000002,2.0416911778046014,0.13844399713037053
7.047616000000001,2.06087167164974,0.13795367172456377
7.049996,2.0754888854946034,0.13777260400283922
7.052392000000001,2.0888953945259683,0.1376771238993641
7.054780000000001,2.1023019035573323,0.13757496284733134
7.05716,2.118781448521753,0.13731141852585824
7.059556000000001,2.1357728501653708,0.13708992918770016
7.061944,2.1535556477419067,0.13685245703460608
7.064323999999999,2.173200776437999,0.13651795054871452
7.066724000000001,2.1919147395743135,0.13620872900620232
7.0691120000000005,2.213841508270543,0.13570479914535322
7.0715080000000015,2.234417802526414,0.13529815460385614
7.073903999999999,2.255925262342063,0.1348624146103955
7.076288000000002,2.2754306214112954,0.13454091770616475
7.078672000000001,2.289441534920475,0.1345765272152487
7.081068000000002,2.3023815132430157,0.13468194321078128
7.083456000000002,2.3122484556325014,0.13494781290777236
7.0858360000000005,2.323698189887823,0.13518764391364818
7.088232000000001,2.340874687128675,0.1352004933861468
7.090620000000001,2.351625573249696,0.13554996333717395
7.0930040000000005,2.362516228997577,0.13587759327713148
7.0954000000000015,2.376340151051653,0.1360840091161224
7.097788000000001,2.394867122732864,0.13600740931696126
7.100168,2.4204713318399635,0.1356422700187014
7.102564000000001,2.451010907999676,0.13509945293685985
7.104956000000001,2.479408613786111,0.13467467252603324
7.107336,2.5072944628933476,0.13422556205851655
7.109739999999999,2.5371824127470015,0.13370982511953267
7.112128000000002,2.5698638592799905,0.13311225687998707
7.114508000000001,2.607992529544789,0.13236991453898847
7.116911999999999,2.645050264622949,0.13169853995839426
7.119299999999999,2.685181035634165,0.13089043871335992
7.121676000000001,2.7251720370185213,0.13011933798685066
7.124075999999999,2.7695393269480473,0.12926800042976072
7.126460000000002,2.816048487250851,0.12831626474863472
7.128844000000001,2.861207173113296,0.12745448055619388
7.131240000000002,2.904084218975603,0.12670196262789982
7.133628000000002,2.9472408040916305,0.125925740778617
7.136008,2.988115749207521,0.12528558068900955
7.138411999999999,3.0380700324957184,0.1243206956009506
7.140799999999999,3.0846717405971384,0.12351533647910556
7.143180000000001,3.1303422831387806,0.12276143829120265
7.145576000000002,3.1711700064264288,0.12224840173020636
7.147964000000002,3.204920492288187,0.12199813243025358
7.150348000000001,3.2346667766571113,0.12188779308222332
7.152744000000002,3.2642732913991757,0.12179084688790309
7.155132000000002,3.295462598007077,0.12168803515395275
7.1575120000000005,3.3246498038685606,0.1216502202616107
7.159911999999999,3.3539767793569037,0.12160456194720194
7.162300000000002,3.3778565311134385,0.12167103238238988
7.164684000000001,3.401876052496833,0.12172411270286526
7.167079999999999,3.4300395449999215,0.121661572429416
7.169468000000002,3.45820303750301,0.12160121004464244
7.171852000000001,3.483992342207343,0.12156297916383146
7.174244000000002,3.5109923517251764,0.12148251125923043
7.176628000000001,3.5405535404968664,0.12129691694263313
7.179024000000002,3.5723963692686946,0.12102920453453686
7.181424,3.604099428413662,0.12078078847581201
7.183812,3.6340799260659336,0.12055300015399965
7.186188000000001,3.6583336607326746,0.12045694233699872
7.188583999999999,3.6788627331603014,0.12042124948544022
7.190971999999999,3.6964585392817346,0.12045361124741877
7.193363999999999,3.7208992654035793,0.12025310303558552
7.195755999999999,3.7444088259656456,0.12006348485038454
7.198143999999999,3.771782818393685,0.11979414714909636
7.2005240000000015,3.8014384508218613,0.11945241018410592
7.202923999999999,3.833096183996455,0.1190764256545527
7.205307999999999,3.8679667227309635,0.11861962924273647
7.207688000000001,3.9020458655325556,0.11817831111960347
7.210084000000002,3.9404087490807003,0.11762313305038062
7.212468000000001,3.978120006322788,0.1170674697838046
7.214860000000002,4.012106601325762,0.11660013960544001
7.217264,4.046512505209316,0.11610381748183317
7.219652,4.079056077973315,0.1156431034673999
7.222028000000002,4.107595449244479,0.11527020885017716
7.224423999999999,4.135995050888783,0.11492149127620876
7.226808000000002,4.162811860667251,0.11458158118172926
7.229203999999999,4.1912586841397985,0.11417738852761439
7.231608000000001,4.223058082799122,0.11368923571706399
7.233992000000001,4.2579305173915,0.1131419858365257
7.236376,4.303372534223403,0.11235554051952068
7.238768,4.353238061428723,0.11146251859955122
7.241156,4.398028451954567,0.11069426430328506
7.243532000000002,4.443517690614714,0.10986084730535116
7.245927999999999,4.4816973744234945,0.10912960784781556
7.248315999999999,4.514290064873605,0.10847920380747651
7.250696000000001,4.538781804539431,0.10792829769079679
7.253095999999999,4.554333975659811,0.10753920565590933
7.255479999999999,4.569234520474133,0.10714558312104187
7.257875999999999,4.581201798982261,0.10680675194604669
7.260272,4.593308847117248,0.10646016971278396
7.26266,4.60248262894604,0.1061636003917395
7.265039999999999,4.608862914095498,0.10590570022427837
7.267436,4.615662508125535,0.10561565127717241
7.269819999999999,4.624092115849651,0.10525786490645143
7.2722000000000016,4.626003564655321,0.10498574651889654
7.274604,4.626844078274352,0.10473654310056353
7.276987999999999,4.622749224840771,0.10457131609056503
7.279368000000002,4.614929709168075,0.10445442221955234
7.281760000000002,4.603525300883128,0.10437369746058318
7.284144000000001,4.586114590358929,0.10439072832430324
7.286539999999999,4.564559908715037,0.10448228522976163
7.288944000000001,4.543424535951726,0.10454064521998276
7.291328,4.526153595054386,0.10454100781011483
7.293707999999999,4.513957790836521,0.10445470084536901
7.296104,4.507768288857907,0.10427141627882361
7.298487999999999,4.505722757998985,0.10401182839779133
7.300879999999999,4.5131758741929495,0.10356978086307164
7.303276,4.516904328147802,0.10317036942842424
7.305664,4.519701616542875,0.10278134791605073
7.308043999999999,4.522778444191668,0.10237420614733479
7.310435999999999,4.526274580721043,0.1019344009984594
7.312823999999999,4.529770717250417,0.1014930749521637
7.31522,4.534058249712709,0.10105372779460094
7.317623999999999,4.537135077361503,0.10064571781519685
7.320008000000001,4.543284940943353,0.10018049326088192
7.322388,4.552647610085119,0.09965397659796092
7.324784000000001,4.5650833151599395,0.09907506893590919
7.327168,4.576308315421261,0.09852447048226384
7.329552,4.590606351615637,0.09792551383216799
7.331948000000001,4.602762517436736,0.0973665384014648
7.334332,4.621064755123946,0.09671195180914144
7.336711999999999,4.637225122437879,0.09609774535845221
7.339116000000001,4.646727561206506,0.09556578855445241
7.341504,4.649432301802962,0.09512293188570145
7.343883999999999,4.646410279413888,0.0947510141137415
7.346288000000001,4.642829178517373,0.09442103850090187
7.348672,4.633102005754749,0.09419125774720606
7.351051999999999,4.628030660791015,0.09391300850172309
7.353456000000001,4.62403025101392,0.09361435965672991
7.355844000000001,4.616677266050049,0.09338491582039203
7.358224,4.6101156770190945,0.09315567291964516
7.360620000000001,4.605835727988279,0.0928766197612568
7.363004,4.600764383024546,0.09259680666329217
7.365383999999999,4.598905843620729,0.09225992056105087
7.367788000000001,4.604915937575717,0.09182861905047333
7.370176000000001,4.6098550963440665,0.09141978424162112
7.372555999999999,4.613443780672059,0.0910504681850651
7.374952,4.623178536866161,0.09059538317911647
7.37734,4.630631653060126,0.09018927756602137
7.379719999999999,4.641297574814008,0.08972997449246918
7.382124000000001,4.642512071343244,0.08936055828611536
7.384508,4.645728668618897,0.08896480960530513
7.386887999999999,4.65639459037278,0.0885083002335782
7.389284,4.673718440671968,0.0879856121060683
7.391667999999999,4.69462718358341,0.08744054183197028
7.394064,4.714884300188795,0.08688335191259673
7.396460000000001,4.73528118642104,0.08631226108965742
7.398848000000001,4.753536202280007,0.08578043482825944
7.401228,4.7728621533256135,0.0852352574898448
7.403632000000002,4.7931192699309975,0.08467822144247092
7.406016000000001,4.814167782469299,0.0841266149862426
7.408396,4.832934655007465,0.08362233621232541
7.410792000000001,4.850490822732131,0.08314589541920542
7.41318,4.86045789635171,0.08273665039206608
7.415559999999999,4.85790050881359,0.0824523688434296
7.417960000000001,4.849104501610743,0.08219569964934739
7.420344,4.836211745116446,0.08193279729257917
7.422740000000001,4.812936397837726,0.08175527701804026
7.425136000000002,4.783282661267419,0.08161685396152021
7.427524000000002,4.7480419313384425,0.0815187594499769
7.429904,4.717177489954637,0.08140353752164863
7.432307999999999,4.684590487078134,0.08128963209688253
7.434692000000002,4.642831598230708,0.08123418419973903
7.437072000000001,4.596696420838111,0.08118840088992785
7.4394680000000015,4.549397760460257,0.08109765759801714
7.441852000000001,4.503309804895904,0.08097374541192368
7.444231999999999,4.459363719704828,0.08081064042206154
7.446636000000002,4.414254151528494,0.08060515287394354
7.449020000000001,4.363278050739772,0.08045724494911843
7.4514,4.311790093271851,0.08028256698468338
7.453804000000002,4.254854912072121,0.0801357419821502
7.456188000000001,4.197128334939474,0.0799827182232585
7.458568,4.139681297060545,0.07980406754913012
7.460964000000001,4.090195440339042,0.0795947473452136
7.463348,4.044294476229791,0.07936804440956807
7.465744000000001,4.007425628464604,0.07908981643790866
7.468147999999999,3.979588897043479,0.07876269690686988
7.470531999999999,3.9617154475261955,0.07838218849821071
7.472912000000001,3.9519429487931963,0.0779602936555887
7.475315999999999,3.950271400844482,0.07749972440308456
7.477703999999999,3.945666586589572,0.0770670489330469
7.480080000000001,3.9474401616262496,0.07660298960526472
7.482483999999999,3.9593167881936284,0.07607960289717633
7.484867999999999,3.976221329612237,0.0755633642132685
7.487248000000001,3.998153785882074,0.07506382869874023
7.489651999999999,4.02059809883111,0.07459511196009196
7.492039999999999,4.044345664392262,0.07416242375360635
7.494420000000002,4.071258813685085,0.07375357897520933
7.496824,4.1048298915232175,0.07329346025370473
7.499212,4.140775157160103,0.0728497074174492
7.501588000000002,4.1843095169020765,0.07235305874042784
7.503992,4.23371040925644,0.07181339231315502
7.50638,4.28469409347664,0.07128966635653561
7.508759999999999,4.337028252137198,0.07074613144893199
7.511164000000001,4.396020339343066,0.07016633309877202
7.513552000000001,4.452870556175655,0.06963115406040182
7.515927999999999,4.503994010022715,0.06914554638629479
7.518328,4.555117463869775,0.06867457802808437
7.520712,4.607591392157194,0.06818116101004981
7.523092000000002,4.657271823765278,0.06771017892042012
7.525496,4.714820888732169,0.06718390126459442
7.527884,4.765572255526892,0.06671207085860341
7.530263999999999,4.81217965120192,0.06629279935247646
7.532668000000001,4.856273089451334,0.06587200870036565
7.535052,4.891426959155301,0.06552235363119377
7.537431999999999,4.92564966329949,0.06517880514626452
7.539832,4.960291676324262,0.06481407340271511
7.542216,4.993862754162393,0.0644653304292396
7.5445959999999985,5.030227328679861,0.0641157350880556
7.547000000000001,5.068733773570605,0.06374726835195273
7.549388,5.102956477714794,0.06342958990614006
