Time,Force,Position
6.506799999999999,0.0,0.0
6.509196,0.0,0.0
6.51158,0.0,0.0
6.51396,0.0,0.0
6.516364,0.0027710632908178085,0.0
6.518752,0.007404457701192258,0.0
6.521132000000001,0.008964816178511324,0.0
6.523528,0.012527275402247243,0.0
6.525916,0.019302540185898755,0.0
6.528308,0.026077804969550263,0.0
6.530712,0.03378423531298009,0.0
6.5331,0.039628334536853285,0.0
6.535480000000001,0.04612406006678437,0.0
6.537884000000001,0.05168862003693715,0.0
6.540272000000001,0.0563220144473116,0.0
6.542652,0.060815639230825835,0.0
6.545056,0.06423832882770154,0.0
6.547440000000001,0.06952334954413389,0.0
6.54982,0.07280626951414938,0.0
6.552224,0.07594941985730468,0.0
6.554612,0.0761593038942648,0.0
6.556992,0.0761593038942648,0.0
6.559387999999999,0.0761593038942648,0.0
6.561776000000001,0.0761593038942648,0.0
6.564156,0.073388240603447,0.0
6.56656,0.06875484619307255,0.0
6.568948,0.06719448771575348,0.0
6.571328,0.06363202849201756,0.0
6.573732000000001,0.056856763708366044,0.0
6.57612,0.050081498924714536,0.0
6.578500000000001,0.04237506858128471,0.0
6.580896,0.03653096935741151,0.0
6.583284,0.030035243827480417,0.0
6.585664,0.024470683857327646,0.0
6.588068000000001,0.019837289446953198,0.0
6.5904560000000005,0.015343664663438962,0.0
6.592835999999999,0.011920975066563252,0.0
6.595232,0.006635954350130904,0.0
6.59762,0.0033530343801154044,0.0
6.6000000000000005,0.00020988403696011644,0.0
6.602396,0.0,0.0
6.604784,0.0,0.0
6.607164,0.0,0.0
6.609568,0.0018398977310394883,0.0
6.611952,0.003540025835218766,0.0
6.614332,0.0035400258352187657,0.0
6.616727999999999,0.003540025835218766,0.0
6.619116000000001,0.003540025835218766,0.0
6.621496,0.003540025835218766,0.0
6.6239,0.003540025835218766,0.0
6.626288,0.003540025835218766,0.0
6.628668,0.003540025835218766,0.0
6.631063999999999,0.003540025835218766,0.0
6.633451999999999,0.004029449125899303,0.0
6.635836,0.006660742789856901,0.0
6.638232,0.01115436757337114,0.0
6.640619999999999,0.01765009310330223,0.0
6.643,0.023214653073455,0.0
6.645396000000001,0.027708277856969242,0.0
6.64778,0.030199801894066628,0.0
6.650163999999999,0.03283109555802423,0.0
6.65256,0.03283109555802423,0.0
6.654944,0.03283109555802423,0.0
6.657324,0.030991197826984736,0.0
6.659732000000001,0.02929106972280546,0.0
6.662116,0.02929106972280546,0.0
6.664499999999999,0.032621211521064106,0.0
6.666896,0.041166259625655205,0.0
6.669284,0.04957153810338608,0.0
6.671664000000001,0.05997891732753381,0.0
6.67406,0.07024652692482133,0.0
6.676448,0.07958297096233055,0.0
6.678828,0.08798824944006144,0.0
6.681223999999999,0.09376223425383472,0.0
6.683611999999999,0.09418154313441535,0.0
6.685996,0.08980525458924417,0.0
6.688400000000001,0.08330952905931308,0.0
6.690784,0.0777449690891603,0.0
6.693164,0.07325134430564606,0.0
6.695568000000001,0.07075982026854868,0.0
6.6979560000000005,0.06812852660459108,0.0
6.700336000000001,0.06812852660459108,0.0
6.70274,0.06812852660459108,0.0
6.705127999999999,0.06812852660459108,0.0
6.707512,0.06812852660459108,0.0
6.709908,0.06812852660459108,0.0
6.712292000000001,0.06479838480633243,0.0
6.714676,0.05625333670174133,0.0
6.717072000000001,0.04784805822401045,0.0
6.719456,0.03744067899986271,0.0
6.721839999999999,0.027173069402575196,0.0
6.724236,0.01783662536506599,0.0
6.726624,0.009431346887335108,0.0
6.729004000000001,0.007147811029328595,0.0
6.731404,0.013943613343628017,0.0
6.733788,0.03326387681562623,0.0
6.736172000000001,0.056565908391941,0.0
6.738568,0.08359260220736904,0.0
6.740956,0.11355256232899225,0.0
6.743340000000001,0.14737695431658895,0.0
6.745736,0.18478623891643875,0.0
6.748124,0.21991388351615127,0.0
6.750504,0.2550415281158638,0.0
6.752904,0.29282289976805104,0.0
6.755292,0.33246660253979493,0.0
6.757688000000001,0.37197053568467864,0.0
6.760084,0.4131970303222588,0.0031896166161993547
6.762472,0.4572170216391738,0.006329000630172465
6.764852,0.49909514258281185,0.009603911282894945
6.767256000000001,0.5400420979666716,0.01289876242772204
6.769644,0.5779160174174759,0.012898762427722043
6.772024000000001,0.6160694761220007,0.012898762427722043
6.77442,0.6522208340801086,0.012898762427722043
6.776808,0.6825299886722125,0.012898762427722043
6.779188,0.7059016754652877,0.012898762427722043
6.781588,0.7187510018470807,0.012898762427722043
6.783972,0.7308089322959556,0.012898762427722043
6.7863560000000005,0.7391422005057173,0.012898762427722043
6.788752,0.747335699088619,0.012898762427722043
6.791136000000001,0.7505938306189083,0.012898762427722043
6.793515999999999,0.7513380047235833,0.012898762427722043
6.795912,0.7611615170005643,0.016022789668920706
6.798296,0.7725678211433813,0.019209968411650163
6.800676,0.7834622686070007,0.022278444044969047
6.803076,0.7944964856974802,0.02528010281852356
6.805460000000001,0.8086037387210152,0.028210611793800747
6.80784,0.823270070251991,0.027820064760542818
6.810239999999999,0.8311387036107982,0.027589476167412034
6.8126240000000005,0.8442222432759381,0.02712042920865848
6.815008,0.8594476533143548,0.02654988027155602
6.817404000000001,0.877094472979769,0.02920438576641045
6.8197920000000005,0.8915284870852678,0.031912062328752676
6.822171999999999,0.9031690045114313,0.03469357412188758
6.824568,0.9149492915644551,0.037445058480965604
6.826956,0.9280800530578379,0.040106215720810474
6.8293360000000005,0.939348483431664,0.042784247789848615
6.831732,0.9424687411929625,0.042784247789848615
6.83412,0.9446578333944827,0.04278424778984863
6.8365,0.94340180261061,0.04278424778984863
6.838896000000001,0.9422855414535976,0.04278424778984863
6.841284000000001,0.9382360139903899,0.04278424778984863
6.843664,0.9236641261159004,0.03966022054864997
6.8460600000000005,0.9087201511890735,0.03647304180592051
6.848448,0.8916343058889694,0.033404566172601624
6.850828000000001,0.8711958854020896,0.030402907399047115
6.853243999999999,0.8498262993554314,0.02747239842376992
6.855628,0.826966469241554,0.024673328840828495
6.858012,0.8101129413669271,0.02176453341998617
6.8604080000000005,0.7900466079323847,0.018958669726017247
6.862796,0.7714232967368183,0.016234367518292606
6.865176000000001,0.756384878153505,0.01357986202343818
6.867591999999999,0.7453506610630253,0.013612894498954121
6.869976,0.7441871780777697,0.013403295856499176
6.872372,0.7476795228914057,0.013172195567109937
6.874776,0.7487504580780442,0.013123151682973852
6.877164,0.7515439547573792,0.01310627685378057
6.879544,0.7634167896090202,0.01566532918565292
6.881939999999999,0.7742186892740226,0.018273320007918148
6.884328000000001,0.7853926759913624,0.020967566796216537
6.886708,0.8015020297613143,0.023560541787441467
6.889104000000001,0.8234779161436566,0.02606670696446688
6.891492,0.8490386951382518,0.028609679242940764
6.893872000000001,0.8733887693193483,0.031152651521414648
6.896268,0.8975990738735845,0.03373261529162987
6.898656,0.9245103273085389,0.03620099156746347
6.901036,0.9475571488775196,0.03867173670838677
6.903440000000001,0.9698125745135822,0.04114248184931007
6.9058280000000005,0.9920680001496449,0.04357501084720544
6.9082040000000005,1.0166050657858448,0.04593751727063094
6.9106,1.0376970084366517,0.04826468990104521
6.912988,1.0558556847812635,0.05059186253145948
6.915384,1.073874591499015,0.05017943399995672
6.91778,1.0857474263506561,0.049969461524667
6.920167999999999,1.097620261202297,0.049779472960443855
6.922548,1.1114951968003548,0.049530945956489
6.924944000000001,1.1273722331448293,0.04923389079203936
6.927328,1.1385934416904122,0.04897219380152751
6.929708000000001,1.1498146502359952,0.048692483485617694
6.932108,1.160663771729241,0.04825636809241048
6.934492,1.167648461356513,0.04788724896372544
6.936872,1.1684870791176742,0.047670202482275645
6.939267999999999,1.1717471065058331,0.04731697238082734
6.941656000000001,1.174867364267132,0.046997855964893344
6.944036,1.179338096468789,0.04657742423238207
6.946432000000001,1.1835292894167264,0.04623942469923975
6.94882,1.192516079790415,0.045879472968389484
6.951204,1.2013631005372438,0.045550763402263716
6.953600000000001,1.2072768549778772,0.04525649821201131
6.9559880000000005,1.209838034231735,0.045093120538967024
6.958367999999999,1.2101175734854555,0.04502407930364394
6.960780000000001,1.2093261775525372,0.04498777876169661
6.9631680000000005,1.2082552423658988,0.045021438930731426
6.965548000000001,1.2073240768061204,0.04502085488134054
6.967944,1.2005263786339517,0.04508725454383943
6.970332,1.1978726515814768,0.04505084082249978
6.972728000000001,1.1952189245290021,0.04501501925345996
6.975124,1.1929372845288648,0.04511455761309492
6.977507999999999,1.196661946767978,0.04511866315550954
6.979888,1.2026210271789854,0.04525752503405625
6.982292,1.2052275324032171,0.04553003914807023
6.98468,1.209975908000726,0.045737290429048484
6.9870600000000005,1.2115114780383192,0.04604542561646026
6.989456,1.212255652142994,0.04632100144679434
6.991844,1.2105784166206712,0.046732760320924424
6.9942280000000006,1.2066195410982115,0.04724856597279184
6.996624,1.200239255948754,0.04788767097364691
6.999012,1.1960008411725742,0.048449649800551185
7.001392,1.1965580238221456,0.04896480151542179
7.003792,1.2003280120316329,0.049380234744706174
7.006176000000001,1.211175237667009,0.04966564804172352
7.00856,1.2229536288621636,0.04994796699131146
7.010955999999999,1.2342201633781207,0.050129571008029755
7.013344000000001,1.250142525692969,0.050304385272103944
7.015724,1.2689981543140127,0.05044376099421298
7.018128,1.2829184158824447,0.05065453173437601
7.020516,1.2957677422642377,0.05089268659291548
7.022896,1.3087568382728911,0.051090830439862366
7.025291999999999,1.3154600927885733,0.051447497462387914
7.027679999999999,1.3216514906250576,0.05170641399829873
7.03006,1.3330577947678746,0.051830918495568735
7.03246,1.3455350340973304,0.05192463818456939
7.0348440000000005,1.3589434389865644,0.05201685048568657
7.037228,1.3751453405551333,0.05210280304497136
7.039624000000001,1.3905558461907845,0.05214958289785169
7.042012000000001,1.4042437903337386,0.05215931031284169
7.044408,1.412903819625464,0.05205210902297643
7.046804000000001,1.417699417051216,0.05199783449174288
7.049192000000001,1.415697316304799,0.05203920712509544
7.051571999999999,1.4107619492521872,0.05212397580595348
7.053968,1.398749344773686,0.05236656970873387
7.056356,1.3891581499221823,0.05246263698231256
7.058736000000001,1.380498120630457,0.05255015042269503
7.061136,1.3662510979800617,0.05265236208669324
7.063524,1.3518643057028061,0.05278972219483038
7.065904000000001,1.338548448612189,0.05289016137832485
7.068304,1.3267228355887914,0.05285556332332821
7.070692,1.3141058266324759,0.052794451055456465
7.073072000000001,1.304189766556878,0.05253632394405141
7.075468,1.2913404401750848,0.0523123916943261
7.077856,1.2774201786066532,0.05212296070338199
7.080240000000001,1.2604268811051662,0.05200124731366106
7.082636,1.2452959147232356,0.05187731457183573
7.085024,1.2275112212888306,0.051723907879500375
7.087404,1.2126597941606205,0.05153728059766578
7.089799999999999,1.2026039644581625,0.05131179502107263
7.092187999999999,1.1990662936741525,0.05106605994452733
7.094572,1.1952490836364222,0.05088039343674127
7.096968,1.1932942047182484,0.0506850369737491
7.099355999999999,1.1932016569196313,0.05048358367766282
7.10174,1.1971133106138478,0.050193815059327775
7.104136,1.1993949506139852,0.050085493358126364
7.106523999999999,1.1993949506139854,0.050085493358126364
7.108904,1.201397051360402,0.05004426637411974
7.111300000000001,1.203678691360539,0.049934142765665844
7.113688000000001,1.205541022480096,0.04992681834408509
7.116088,1.2057733399055732,0.05009431169471047
7.118492000000001,1.2078679884506072,0.050255174570506024
7.120876,1.2094035584882004,0.05055287916649837
7.123259999999999,1.213592855578268,0.05087808898943356
7.125664,1.2159198215487792,0.051209272338624774
7.128051999999999,1.2202488882657074,0.051503522894862146
7.130432,1.2205737534898018,0.05188204208182265
7.132828000000001,1.2206190794601754,0.05233802734414328
7.135216000000001,1.2209439446842698,0.052715846633787034
7.137595999999999,1.2174043780423907,0.05314457013850302
7.139992,1.2137250417736514,0.05359228420467514
7.14238,1.2152606118112446,0.053885398224751566
7.144764,1.219869217781893,0.0541002603163861
7.14716,1.22554875893918,0.054276369212552376
7.149548,1.2282950337902718,0.054494293020507005
7.151928000000001,1.2277359552828309,0.054628144565940985
7.154324,1.2275961856559707,0.05466220257225176
7.156712,1.2253145456558334,0.05477389307264096
7.159092,1.2228931360288358,0.0549193317533385
7.1614960000000005,1.2198201000957805,0.055002106408113774
7.163884,1.2151642722968887,0.05502707795531478
7.166264000000001,1.209717048565079,0.05501948668429371
7.168664000000001,1.2073428607663246,0.0549292386824826
7.171052,1.2044568162883729,0.05474063215474835
7.173432000000001,1.200499836623782,0.05458805318040057
7.175832000000001,1.1962633177054711,0.05450791973742894
7.178216,1.193377273227519,0.054313518927310685
7.180599999999999,1.1934244950557622,0.05406777630529845
7.182996,1.191050307257008,0.05397749566984174
7.185384,1.192540551324227,0.05382719400262455
7.187767999999999,1.1892351979656945,0.05374411053611659
7.190164,1.1829965783009666,0.05371122536108264
7.192556000000001,1.176897728263099,0.05363915177670593
7.194935999999999,1.1630700144932844,0.053672842078444534
7.197332,1.1533862718431638,0.05357941695229614
7.199724000000001,1.1452853210588794,0.05354803513397956
7.202103999999999,1.137975766207513,0.053546325332727324
7.2045,1.1337392472892018,0.05345834792063312
7.206888,1.128711332437973,0.05333574660980161
7.209268000000001,1.1259650575868811,0.053092658963458626
7.211668,1.1261520490419845,0.05280145541334791
7.214052,1.124336939750671,0.05254855490663205
7.216436000000001,1.1198681034068827,0.05226965768892324
7.218832,1.112977857436097,0.052136655688509184
7.22122,1.1062273810921714,0.051963563244393676
7.223604000000001,1.100175752882547,0.05159792853229661
7.226,1.0947757509789804,0.051304324954126394
7.228388,1.0856510868363007,0.0510172098830823
7.230768,1.0788080626937582,0.050613582208904495
7.233163999999999,1.0663780451925455,0.05021347176918807
7.235551999999999,1.05581035881089,0.049803466043211994
7.237936,1.043240571682817,0.04942876624620468
7.240331999999999,1.0245247126886334,0.04678654604607288
7.242719999999999,1.0124667822397584,0.044078869483730646
7.2451,0.9984067510444665,0.04145800082537052
7.2475,0.98741975578223,0.04114313968660872
7.249884000000001,0.9755015949602153,0.04082717416612778
7.252268,0.9614415637649234,0.03820630550776765
7.254664000000001,0.944960122942634,0.035620060748144826
7.257052000000001,0.9239154021200703,0.03314931560722153
7.259448,0.9008685805510895,0.030716216949607616
7.261844000000001,0.8796840901016656,0.028281920571478405
7.264232000000001,0.8551470244654656,0.025922435235115462
7.266611999999999,0.8319604332696248,0.023486856380505187
7.269008,0.8154317706190921,0.021049900966897492
7.271396,0.7954107631549235,0.018733042289895193
7.273779999999999,0.776740230131114,0.016376370567493973
7.276179999999999,0.7610029634134996,0.014021265438406264
7.278568000000001,0.7423324303896901,0.01170591097551724
7.280947999999999,0.7304595955380492,0.009397175344779327
7.283344,0.7227307318061021,0.0070455884265736655
7.285732,0.71765559512663,0.0046959860158563484
7.288112000000001,0.718446991059548,0.0046959860158563484
7.290512,0.7181674518058275,0.0046959860158563484
7.292896,0.7178879125521072,0.0046959860158563484
7.295276,0.7137439414324134,0.002347440817068599
7.297676,0.7114623014322761,0.0
7.300064,0.710111826991917,0.0
7.302444,0.7159783596043073,0.0024436451347431974
7.304839999999999,0.7251974674034736,0.004840117694092991
7.307227999999999,0.7324144744562229,0.004840117694092991
7.309624,0.7407024166956108,0.00723651963606084
7.312019999999999,0.7529945604278323,0.009632957659749683
7.314407999999999,0.7680802008393889,0.01198357307145659
7.316792,0.7765079127056369,0.014332118270244339
7.319188,0.7890795956915787,0.016635150060063587
7.321575999999999,0.7973675379309666,0.016635150060063587
7.323956,0.8027222138641593,0.016635150060063587
7.326352000000001,0.8080768897973519,0.016635150060063587
7.328740000000001,0.8092875946108505,0.016635150060063587
7.331119999999999,0.8037006012521807,0.016635150060063587
7.333516,0.7973222119605927,0.016635150060063587
7.335904,0.7882900956165299,0.016635150060063587
7.338287999999999,0.7795375185261876,0.016635150060063587
7.340692,0.7694344669954862,0.016635150060063587
7.343076000000001,0.7650581784503151,0.016635150060063587
7.34546,0.7608216595320041,0.016635150060063587
7.347855999999999,0.7580753846809122,0.016635150060063587
7.350248,0.74946257721743,0.01419150492532039
7.352632000000001,0.7385681297538105,0.011795032365970596
7.355028,0.7334004452757212,0.011795032365970596
7.357416,0.724088789677938,0.00939863042400275
7.359800000000001,0.7110524718410415,0.007002192400313906
7.362196,0.6920098517648945,0.004651576988606998
7.364584,0.6738983972485258,0.0023030317898192474
7.366968000000001,0.655647173105297,0.0
7.369364,0.6383271145218464,0.0
7.371752,0.6208672863115358,0.0
7.374136000000001,0.6083428251538368,0.0
7.376532,0.5968892991827764,0.0
7.37892,0.5911625361972462,0.0
7.381303999999999,0.5835734420921594,0.0
7.3837,0.5727715424271571,0.0
7.386092,0.5618298731352945,0.0
7.388471999999999,0.5520989086569306,0.0
7.390872000000001,0.5335681452599813,0.0
7.393260000000001,0.5108934107433382,0.0
7.395644,0.4845865617861987,0.0
7.398044,0.46014204394861585,0.0
7.400431999999999,0.43905010129780875,0.0
7.402816,0.415304431594527,0.0
7.405212,0.39677366819757764,0.0
7.407596000000001,0.3810364014799632,0.0
7.409975999999999,0.37530963849443305,0.0
7.41238,0.36972264513576314,0.0
7.414768,0.3601314502842594,0.0
7.417148,0.3540326002463919,0.0
7.419543999999999,0.35100678614157965,0.0
7.421928,0.34369723129021335,0.0
7.424312,0.33745861162548546,0.0
7.426708,0.3270760208410638,0.0
7.429092,0.31962669636283714,0.0
7.431472,0.3180439044970009,0.0
7.433867999999999,0.3124569111383311,0.0
7.436255999999999,0.3028657162868274,0.0
7.43864,0.29820988848793584,0.0
7.441035999999999,0.29369383031590446,0.0
7.443423999999999,0.2906680162110923,0.0
7.445799999999999,0.28685080617336195,0.0
7.448204,0.28475615762832795,0.0
7.450591999999999,0.28065940833687714,0.0
7.452972,0.273489623112371,0.0
7.455368000000001,0.2653886723280866,0.0
7.457756000000001,0.24620628262507935,0.0
7.460152,0.22723331776569264,0.0
7.462548000000001,0.21133338883936129,0.0
7.464932,0.19408298547267097,0.0
7.467315999999999,0.17576164691934212,0.0
7.46972,0.15865101317951205,0.0
7.472104000000001,0.1404694442530434,0.0
7.474488,0.12442974569985185,0.0
7.476892,0.10731911196002177,0.0
7.47928,0.08834614710063503,0.0
7.481660000000001,0.07337738373408198,0.0
7.484056,0.06241282186036265,0.0
7.486440000000001,0.05144825998664332,0.0
7.48882,0.048469667710074237,0.0
7.491216,0.046422240993283466,0.0
7.493604,0.04395550539591207,0.0
7.495988,0.03562223718615033,0.0
7.498384000000001,0.03087386158864168,0.0
7.500768,0.02598571636427281,0.0
