Time,Force,Position
7.701472,0.035831143751920425,0.0
7.703856000000001,0.034899978192142106,0.0
7.706252,0.03189659747584702,0.0
7.70864,0.030103921573050686,0.0
7.711023999999999,0.028381360080354252,0.0
7.71342,0.029662179303952898,0.0
7.715808,0.031734394460469655,0.0
7.718188,0.036600106296321384,0.0
7.720596,0.04346791887858995,0.0
7.722983999999999,0.05233783220727538,0.0
7.725364,0.06155694000644152,0.0
7.727760000000001,0.06770301187255229,0.0
7.730148000000001,0.07564175964145939,0.0
7.732527999999999,0.08015781781349077,0.0
7.734932,0.08094921374640889,0.0
7.737319999999999,0.07973850893291015,0.0
7.7397,0.08066967449268847,0.0
7.7421,0.083183631918303,0.0
7.744488,0.0879095741272945,0.0
7.746868,0.09335679785910422,0.0
7.749263999999999,0.09773308640427537,0.0
7.751652000000001,0.10397170606900322,0.0
7.754036,0.11442441126352486,0.0
7.756431999999999,0.12315455496535005,0.0
7.758820000000001,0.13502738981699097,0.0
7.761204,0.1455497502282729,0.0
7.763599999999999,0.15542048433349695,0.0
7.765987999999999,0.15970422508005108,0.0
7.768368,0.16184609545332815,0.0
7.770767999999999,0.16105469952041004,0.0
7.773152,0.1551881669080197,0.0
7.775536,0.15998376433377154,0.0
7.777932000000001,0.16198586508018836,0.0
7.780320000000001,0.15975144690829426,0.0
7.782699999999999,0.1604502950425953,0.0
7.785096,0.1631512439233132,0.0
7.787484,0.1666435887369492,0.0
7.789879999999999,0.17148640799094417,0.0
7.792276,0.17740016243157766,0.0
7.794659999999999,0.18052042019287617,0.0
7.79704,0.18750510982014823,0.0
7.79944,0.19462956907428045,0.0
7.801824000000001,0.20161425870155247,0.0
7.804203999999999,0.21339454575457625,0.0
7.806608,0.2170266601950725,0.0
7.808996,0.2198673787026506,0.0
7.811380000000001,0.22377903239686725,0.0
7.813776,0.23341744907661402,0.0
7.816160000000001,0.24347517463694143,0.0
7.818544,0.25446406575704716,0.0
7.820948,0.26824645355648785,0.0
7.823332,0.2741602079971213,0.0
7.825716000000001,0.28407816393058855,0.0
7.828112,0.3045184802753377,0.0
7.830495999999999,0.3237480918065881,0.0
7.832876,0.3406960633377012,0.0
7.835272000000001,0.3536398333759807,0.0
7.83766,0.3602977619212892,0.0
7.840039999999999,0.3680266256532362,0.0
7.842436,0.37282222307898794,0.0
7.844824,0.3677470863995157,0.0
7.847219999999999,0.3595989137869881,0.0
7.849620000000001,0.34465304300229177,0.0
7.852008,0.32414261224744273,0.0
7.854387999999999,0.30877743258216583,0.0
7.856784,0.2972766847828624,0.0
7.859172,0.28214382254306275,0.0
7.861552,0.26335595328091016,0.0
7.863948,0.24428854476503714,0.0
7.866335999999999,0.22522113624916407,0.0
7.868716,0.20536233180037294,0.0
7.871111999999999,0.18657446253822035,0.0
7.873500000000001,0.16671565808942918,0.0
7.875879999999999,0.141921486588026,0.0
7.878279999999999,0.11726708471348309,0.0
7.880668000000001,0.09382338765243886,0.0
7.883064,0.07345272652445003,0.0
7.885459999999999,0.05722603651615508,0.0
7.887848000000001,0.03885747613458309,0.0
7.890228,0.02342218205920627,0.0
7.892627999999999,0.013993190223080012,0.0
7.895012,0.0065662991333705996,0.0
7.897396,0.005495363946732068,0.0
7.899792000000001,0.006915952797190926,0.0
7.90218,0.006706068760230809,0.0
7.904564,0.0035629184170755212,0.0
7.906960000000001,0.002841177700917715,0.0
7.909348,0.003190831364738042,0.0
7.911727999999999,0.003190831364738042,0.0
7.914124,0.003190831364738042,0.0
7.916516,0.003680254655418579,0.0
7.918895999999999,0.004821304252157016,0.0
7.9213,0.00512373608773419,0.0
7.923687999999999,0.005123736087734191,0.0
7.926068,0.006587755050697717,0.0
7.928464000000001,0.012613158156066543,0.0
7.930852000000001,0.02077853577684319,0.0
7.933231999999999,0.03429669347294324,0.0
7.935632000000001,0.0536794879235644,0.0
7.938016,0.0809290198751235,0.0
7.940399999999999,0.11376364932748327,0.0
7.942804,0.15511664258683888,0.010057297483871614
7.945188000000001,0.19835250449639907,0.020600689060883588
7.947567999999999,0.24782509021281787,0.03102943088187992
7.949976,0.30923872933310814,0.04068152483020816
7.95236,0.3773084011408377,0.05019479869736147
7.95474,0.45496737194220155,0.059303223359358545
7.95714,0.5357199162072688,0.0686811846327866
7.959528,0.6249211690625716,0.07792949157139978
7.961908,0.7217096201650919,0.08704203292003132
7.964303999999999,0.8223830406642337,0.09630871716582559
7.966691999999999,0.9278501627312579,0.10562717521354359
7.969076,1.0415107833811836,0.11475009217412004
7.971471999999999,1.1636673344495883,0.12355580019957858
7.973859999999999,1.2885491636450972,0.13231081573947814
7.97624,1.4108244876163742,0.14106455444253477
7.978636000000001,1.5342651904307765,0.1497052576571083
7.981024000000001,1.654587531341749,0.1583028261058317
7.983403999999999,1.7716989625506754,0.16679483734181316
7.985804000000001,1.880524347378083,0.17535068761353234
7.988192000000001,1.985626965824247,0.18382339962311603
7.990571999999999,2.0860756523293884,0.18205885156100163
7.992972000000001,2.1882960180133386,0.17956277894548997
7.995356,2.285490364703929,0.17710756623092
7.997739999999999,2.37002237646783,0.1755388348306121
8.000136000000001,2.447758585917431,0.1741283912708908
8.002524000000001,2.514694791559899,0.17319883378599155
8.004908,2.5799103315675396,0.17194565237684808
8.007304000000001,2.635955881462127,0.1708784214561348
8.009692000000001,2.683063758669138,0.17004384162901526
8.012076,2.729242366174239,0.16894537885137162
8.014472000000001,2.7726293728578746,0.1677066822261886
8.016864000000002,2.8099647513318864,0.16666862134747173
8.019244,2.837476617528917,0.16607798372138605
8.021647999999999,2.865455014434771,0.16536254415177054
8.024035999999999,2.895715051340763,0.1645363184366823
8.026416000000001,2.925835318619894,0.16376544769606907
8.028811999999999,2.956095355525886,0.16299591173720135
8.031199999999998,2.9839339828048796,0.1623864438165489
8.03358,3.0147058763900687,0.1616549995600375
8.035979999999999,3.044267065161759,0.1610099879443605
8.038367999999998,3.0654005420672017,0.16077227041837988
8.040748,3.0788977030393143,0.16093404789658972
8.043144000000002,3.0907648503173473,0.16122318204894273
8.045528000000001,3.1064964294613544,0.16135264100298674
8.047908,3.1222280086053606,0.16148031607255267
8.050324,3.141172393309283,0.16144805382065303
8.052708000000003,3.1585339861473685,0.16145248295767622
8.055088000000001,3.177246053425814,0.1613659130700739
8.057488,3.201452566264311,0.16100555650992876
8.059872000000002,3.2215623298113587,0.1607520073734993
8.062256000000001,3.2382269703730127,0.16060085057115364
8.064652000000002,3.2538678975762716,0.1604108517249205
8.067040000000002,3.274491413660386,0.1599344128478584
8.069420000000001,3.2884570011991916,0.1597091489199665
8.071816000000002,3.294601177207433,0.15970142652275116
8.074200000000001,3.29278417205825,0.15992976023854774
8.07658,3.283657612057701,0.16040779933120822
8.078996,3.2727159427658385,0.16086564123214842
8.081384,3.260331251235,0.16132718808603558
8.083764000000002,3.2512991348909375,0.16161086650025908
8.086168,3.2500431041070645,0.16151575629755657
8.088552,3.2564233892565215,0.16106053645247134
8.090932000000002,3.2642939184731983,0.1605053942763817
8.093336,3.274446087690012,0.15985257572708148
8.095724,3.2904647895192163,0.15900407237902958
8.098104,3.305133016908061,0.15824418356045108
8.100504,3.320313100976104,0.15750637039448132
8.102888,3.3386587687758196,0.15673132041518814
8.105268000000002,3.3504390558288435,0.15624486779138932
8.107664,3.3647333003074817,0.1557097740019611
8.110052,3.377537300718901,0.1552582477669929
8.112432000000002,3.388851057063101,0.15489789828464995
8.114828,3.3974638645265838,0.15469791475590944
8.117216000000003,3.4102206431097595,0.15433885641402773
8.119596000000001,3.4264225446783287,0.15388952471588382
8.122,3.451564014792343,0.1531150925544879
8.124388,3.485924592705524,0.15197812990912757
8.126768000000002,3.522799128044319,0.1507835039389104
8.129172,3.5553899226365604,0.14975763682210602
8.131556,3.581183019056633,0.14898005549817503
8.133936000000002,3.60404284917051,0.1483243034270091
8.13634,3.6202447507390794,0.14789469748035172
8.138728,3.63565525637473,0.14748162299087403
8.141108000000003,3.644268063838212,0.14729186967027466
8.143512000000001,3.644360611636829,0.14735830429302857
8.145896,3.6432896764501908,0.14740000322654792
8.148276,3.6417068845843543,0.1474215270321124
8.150684000000002,3.636958508986845,0.14748407291005405
8.153068000000001,3.6359820174566932,0.14736302845889207
8.155448,3.6312808636874285,0.147345227797329
8.157852000000002,3.634076256224632,0.14704304568232401
8.160240000000002,3.6374307272692774,0.14667806525547186
8.16262,3.639202406448086,0.1463335357073945
8.165016000000001,3.6386924456267575,0.14608743465454713
8.167404000000001,3.6421866862982624,0.14571421985713423
8.169784,3.6401864814097147,0.14555589566828214
8.172184000000001,3.6328316005879744,0.1455914834486744
8.174568,3.6254767197662345,0.14562595116252056
8.176952,3.6254786156241035,0.1454073691653008
8.179348000000001,3.6272030729746696,0.1451528029964333
8.181732,3.6282286821909344,0.14497148562739293
8.184116,3.630697313646175,0.14478465138563143
8.186512,3.636750837713668,0.14452008665930638
8.188896,3.645597858460497,0.14417971889402856
8.191276000000002,3.6552362751402434,0.1438215915077269
8.19368,3.666317714058966,0.14346027188818483
8.196068,3.677538922604549,0.1430858375717508
8.198448000000003,3.6875494263366333,0.14276535808198493
8.200852000000001,3.6972803908149974,0.14247946226963992
8.203240000000001,3.7120864919728334,0.142032464332991
8.205616000000003,3.7207465212645587,0.14179437733895162
8.208020000000001,3.7322000472356187,0.14149013171111524
8.210408000000001,3.745004047647038,0.14111992235753573
8.212788,3.755433860259703,0.14077153690562103
8.215192000000002,3.7594852835807804,0.14057290148461035
8.217580000000002,3.76330438947638,0.14032234526339232
8.21996,3.772478171305172,0.1398885113845788
8.222356000000001,3.7822110316414044,0.1394028817134949
8.22474,3.7850064241786088,0.13911919556762153
8.227124,3.7887329822755915,0.13881176761263958
8.229524000000001,3.7942293236935134,0.1383977111601513
8.231912000000001,3.797863333991879,0.13802553143768936
8.234292,3.7944201068643557,0.13786939729169745
8.236696000000002,3.7901854838039135,0.1377213589678791
8.239084000000002,3.787161565556971,0.1375210586095572
8.241464,3.7830667121233894,0.13735848257466404
8.243860000000002,3.7805546505556435,0.13717939201062082
8.246248000000001,3.781115624920954,0.1369047422901091
8.248628,3.77739285853971,0.13677681596413221
8.251032000000002,3.7683154162252737,0.13683340069205432
8.253416000000001,3.7592379739108366,0.13689137486807246
8.255796,3.750812157902458,0.1369513289244203
8.258196000000002,3.743829364133055,0.1370074479402125
8.260580000000001,3.7400121540953246,0.13703294550420492
8.262964,3.7415023981625435,0.13695459321064274
8.265360000000001,3.7485796355884333,0.136747619032408
8.267744,3.7509538233871873,0.13672565710785883
8.270128,3.754351724544337,0.1367450186884393
8.272524,3.7624054535003784,0.13666054604387431
8.274908,3.7716698872699186,0.13652880483335278
8.277292,3.7797236162259598,0.13644682863912191
8.279688,3.7917815466748346,0.13625613185017657
8.282076,3.808123217870264,0.13592471331902145
8.284472000000001,3.830051882424363,0.1354793055061445
8.286868000000002,3.8557052092175756,0.1349595653616095
8.289256000000002,3.883779945637786,0.1343537080311287
8.291636,3.912134221311716,0.13373492567417022
8.294032000000001,3.93713592179887,0.1332296730731534
8.296420000000001,3.9673525285923574,0.132569364848357
8.298804,4.001713106505538,0.1317891767109995
8.301208000000003,4.0357941451649975,0.13102576987724784
8.303596000000002,4.0649398167718465,0.13038943807111905
8.305976000000001,4.087939416512584,0.12991689748129964
8.308372000000002,4.109495994014345,0.1294435305949624
8.310760000000002,4.128119305209912,0.12904866229627746
8.31314,4.143529810845562,0.12876070975615744
8.315536000000002,4.159359625361795,0.1284317357419081
8.317924000000001,4.172535712825551,0.12815015977496602
8.320304,4.1838494691697505,0.12790919771278622
8.322700000000001,4.193952520700452,0.1277139911217265
8.325088000000001,4.20549859447013,0.12752102601334775
8.327468,4.217836064172726,0.12732750363663906
8.329868000000001,4.230964929808239,0.12713176202583615
8.332252,4.239437967644861,0.12702986611665568
8.334632,4.244837969548427,0.1270061849330513
8.337032,4.2486079577579146,0.1270611244009792
8.339416,4.248094205220848,0.12723285296773126
8.341812000000001,4.250933027870556,0.12730483427323058
8.344212000000002,4.250978353840931,0.12742750773822242
8.346600000000002,4.249161348691748,0.12758291878251382
8.348980000000001,4.253769954662396,0.1275676867899121
8.351376000000002,4.258797869513626,0.1275156442812362
8.353764000000002,4.2714621002981845,0.12725028789578838
8.356148000000001,4.2878509933218565,0.12692165099848804
8.358544000000002,4.306381756718807,0.12653902597394304
8.360932000000002,4.325471598623197,0.12611347578013782
8.363316000000001,4.344561440527586,0.1256879255863326
8.365708000000001,4.36178895131242,0.1252907420184962
8.368096000000001,4.382880893963226,0.12482365518343794
8.370476,4.408116807733727,0.12426568917403379
8.372872000000001,4.435774131131225,0.12364295246832424
8.37526,4.4597067922896105,0.12308642072461508
8.377656000000002,4.480985726395522,0.12256716147349533
8.380052,4.498772315687796,0.12214429309632337
8.382440000000003,4.517629840166709,0.12169540545961807
8.384820000000001,4.537837839085981,0.1212011827734956
8.387216000000002,4.56004793875167,0.12065892944844339
8.389604000000002,4.578765693603723,0.12022152203302187
8.391988000000001,4.601208110694888,0.11972703428049107
8.394384000000002,4.62537308927875,0.11921765566267828
8.396772000000002,4.643391995996502,0.11885214452815653
8.399152,4.665787191259424,0.11843640491233108
8.401548000000002,4.685481437641629,0.11812307454636786
8.403936000000002,4.703173583277417,0.11785445630653095
8.406316,4.717141066674093,0.11764327834484997
8.408716000000002,4.7276162052571316,0.11752837653011967
8.411100000000001,4.738231113467031,0.11740288969948526
8.41348,4.753921158356402,0.11717564827898563
8.415880000000001,4.764955375446882,0.11702102288370715
8.418264,4.7710542254847494,0.11695802175695874
8.420648,4.772217708470005,0.1169841129260226
8.423048000000001,4.775383292201677,0.11697300843121677
8.425436000000001,4.782133768545603,0.11691987476148759
8.42782,4.798243122315554,0.1166764844151124
8.430216000000001,4.8135610801525885,0.11643704136680824
8.4326,4.826876937243205,0.1162359194237074
8.43498,4.843265830266878,0.11597810700783044
8.437372,4.859282636238212,0.11568812025085079
8.439756,4.873297341463131,0.1154382186420528
8.442136000000001,4.884518550008713,0.11522721703167829
8.444552000000002,4.895599988927436,0.11502482745591598
8.446936,4.906169571166961,0.11480806388538996
8.449312000000003,4.917018692660205,0.11457180678301346
8.451728,4.926005483033896,0.11436052230053374
8.454112000000002,4.93736646120634,0.1141412124341111
8.456492,4.9516607056849775,0.11387203879079627
8.458884000000001,4.964744245350117,0.11363519946024714
8.461268,4.973823583522423,0.11347127941249907
8.463648,4.982763152067868,0.11331672312450139
8.466060000000002,4.992773655799953,0.11313896894679822
8.468448000000002,5.002923929158897,0.1129500039012315
8.470824,5.008930231398148,0.11284193525184462
8.473220000000001,5.010280705838507,0.11279824423098994
8.475604,5.0037625469200595,0.11288602385827268
8.477984,4.995102517628334,0.11302023047584595
8.4804,4.986582257963469,0.11314398642602318
8.482784000000002,4.975268501619269,0.11330328548970962
8.485164000000001,4.971683609007015,0.1133418448990795
8.487560000000002,4.967447090088704,0.11337213585149993
8.489944000000001,4.964141736730172,0.11339048108012148
8.492324,4.964840584864472,0.11334058390768416
8.494720000000001,4.9615352315059384,0.11335855940892155
8.497104,4.959440582960905,0.11334448153881152
8.499484000000002,4.9601394310952065,0.11329512914920821
8.501900000000003,4.962328523296726,0.11319524809057285
8.504284000000002,4.9657283203117455,0.11306507842956394
8.50668,4.976205354752653,0.11281932316069918
8.509084000000001,4.988404950686259,0.11256036193685998
8.511468,5.006191539978534,0.11223744565073238
8.513848,5.024629755576866,0.1119234718522066
8.516252000000001,5.044371223787314,0.1116245756696575
8.518636,5.071050159796791,0.11121937000483934
8.521016,5.101593527672241,0.11076045774128544
8.523412,5.134790622600167,0.11027515432086556
8.525796,5.173714480513622,0.10971520096177947
8.528176000000002,5.211287863986717,0.10919269372967265
8.53058,5.246719377086537,0.10870873207373125
8.532964,5.276004818320245,0.10834043368115023
8.535344000000002,5.305662346606291,0.10800028679134066
8.53774,5.336111270825255,0.10765921781520815
8.540124000000002,5.361624827991607,0.1073928521052126
8.54252,5.393004917770349,0.10704591227807204
8.544924000000002,5.422243137175815,0.10674284041196686
8.547308000000001,5.4480362335958885,0.1064649048487081
8.549688,5.471827229269544,0.10622079422545852
8.552092000000002,5.491753793077227,0.10602827527541643
8.554476000000001,5.503811723526102,0.10594918382787642
8.556856,5.516288962855557,0.10584372811096786
8.559252,5.521596416960507,0.10580169683207549
8.561636,5.526392014386259,0.10574281037047725
8.564016000000002,5.530955294386533,0.10564888030552663
8.56642,5.530862746587916,0.10560496702950399
8.568808,5.5290476372966015,0.10557171704285863
8.571184000000002,5.5236476353930355,0.10556861904984248
8.573588,5.513591805690577,0.10561367581414621
8.575976,5.507959486361533,0.10557537125394274
8.578352000000002,5.505539972592406,0.10548157872038044
8.580760000000001,5.500606501397662,0.10539873129942255
8.583144,5.4922279072175275,0.10533722077207688
8.585524,5.482266521171556,0.10527740698867913
8.58792,5.4744470054988605,0.10517998612535999
8.590308,5.4606211875869155,0.10516818320741017
8.592684000000002,5.4419997722492175,0.10521680996200275
8.59508,5.425752544710275,0.10526272331135103
8.597464000000002,5.41043648273111,0.10529774836875491
8.599844000000001,5.398193456685002,0.10528466957409907
8.602260000000001,5.387021365825531,0.10525288213139751
8.604644,5.373986943846505,0.10524025935650652
8.607024000000003,5.359462277800259,0.10527626236297082
8.609428000000001,5.3466601732467085,0.10529984145297751
8.611816000000001,5.3309248023869635,0.10536315419053148
8.614196,5.317191532273633,0.10539628196096262
8.616592,5.3021077877199465,0.10546717925031068
8.618976,5.292099179845732,0.1054597455017248
8.621356000000002,5.282370111225237,0.10543385438199725
8.62376,5.26863684111191,0.10546515661548486
8.626148,5.252901470252164,0.10552467235447796
8.628528,5.244894963124366,0.10548611218987325
8.630932000000001,5.240892657489402,0.10539013035296903
8.633320000000001,5.235959186294658,0.10530360847183677
8.6357,5.233167585473192,0.10517934345853668
8.638104000000002,5.229724358345668,0.10504567473315292
8.640488000000001,5.23536046939045,0.10477708813337326
8.642872,5.240484723756036,0.10449145608021503
8.645272000000002,5.241744546255646,0.10425338976439044
8.647660000000002,5.2411420376357,0.1040351874443845
8.65004,5.236395557896062,0.10388260131444489
8.652436000000002,5.229507207783145,0.10376817012671354
8.654824000000001,5.229975634349838,0.10352642950935324
8.657204,5.224717297931001,0.10335416728082403
8.659612,5.223183623751278,0.10314068819277598
8.661996000000002,5.21764574807872,0.10298638667807797
8.664376,5.212387411659882,0.10281267064652491
8.666772000000002,5.203916269681129,0.10269807689281783
8.669160000000002,5.197167689195073,0.10257234127232738
8.67154,5.186414907216183,0.10250666428623906
8.673936000000001,5.173660024490877,0.10247187046766065
8.67632,5.152105342846983,0.1025587787707635
8.678704,5.130690430829953,0.1026327290201782
8.6811,5.112348554745977,0.10265579302786414
8.683488,5.090933642728944,0.10272635748009976
8.685864000000002,5.073522932204745,0.10273695623306618
