Time,Force,Position
14.355956,0.20099793327122215,0.0
14.358352,0.19440629778313756,0.0
14.36074,0.1856727919217759,0.0
14.36312,0.17400601975421912,0.0
14.36552,0.16019737721338523,0.0
14.367908,0.14638873467255137,0.0
14.370292,0.13271986175857772,0.0
14.372688,0.1199821544043824,0.0
14.375076,0.10724444705018704,0.0
14.377456,0.09557767488263025,0.0
14.379856,0.0827001979015747,0.0
14.382244,0.06875178573388063,0.0
14.384624,0.05387220800640824,0.0
14.387024,0.04285706214490934,0.0
14.389412,0.03398378665668749,0.0
14.391792,0.024039575981827113,0.0
14.394192,0.014095365306966739,0.0
14.39658,0.007084420938301535,0.0
14.39896,0.0020755773160531813,0.0
14.40136,0.0,0.0
14.403748,0.0,0.0
14.406128,0.0,0.0
14.408535999999998,0.0,0.0
14.41092,0.0,0.0
14.4133,0.0036583691818894014,0.0
14.415696,0.007176968736918591,0.0
14.418084,0.011906273105446523,0.0
14.420464,0.017426973406892567,0.0
14.422864,0.02588094001453378,0.0
14.425252,0.03433490662217499,0.0
14.427632,0.04092654211025956,0.0
14.430035999999998,0.045655846478787496,0.0
14.432423999999996,0.05010561159359501,0.0
14.434804,0.0536242111486242,0.0
14.4372,0.05486117070351612,0.0
14.439588,0.06024210137810196,0.0
14.441972,0.06068766500007577,0.0
14.444368,0.06341486862218684,0.0
14.446756,0.06814417299071479,0.0
14.44914,0.07087137661282587,0.0
14.451536,0.07345881060807674,0.0
14.453924,0.07497530941668908,0.0
14.456304,0.07663157785216163,0.0
14.458704,0.07721691110099564,0.0
14.461092,0.07355854191910623,0.0
14.463472,0.07003994236407704,0.0
14.465868,0.06531063799554912,0.0
14.468256,0.05978993769410308,0.0
14.470636,0.05133597108646186,0.0
14.473032,0.04288200447882064,0.0
14.47542,0.036290368990736066,0.0
14.477816,0.03156106462220813,0.0
14.480211999999998,0.028208489435432336,0.0
14.482599999999998,0.024689889880403146,0.0
14.484984,0.02599314249251895,0.0
14.487379999999998,0.023664280664138525,0.0
14.489767999999998,0.031857779247040044,0.0
14.492148,0.04200615674811527,0.0
14.494543999999998,0.050244981301390705,0.0
14.496931999999996,0.06043868477283984,0.0
14.499316,0.07193564085640478,0.0
14.501711999999998,0.08645841104478193,0.0
14.504096,0.10479839127088944,0.0
14.50648,0.12588464634808874,0.0
14.508876,0.15030250952521387,0.0
14.511264,0.17732687792657062,0.0
14.513644,0.20746960823135663,0.0
14.51604,0.24087047006643214,0.0
14.518428,0.2786003986184357,0.0
14.520823999999998,0.3177261275811721,0.0
14.523219999999998,0.3602497577010582,0.00817661240416818
14.525607999999998,0.4083131593513712,0.015984862265120633
14.527991999999998,0.4577461066710238,0.023893040325805477
14.530388,0.5078097132098842,0.032260822549626214
14.532775999999998,0.5530042457533567,0.04134802790531855
14.535156,0.597499930162528,0.05080542642720386
14.537556,0.6379441912506225,0.060416742688380584
14.539943999999998,0.6742444812190231,0.07026385969190288
14.542324,0.711615706374062,0.080141818098386
14.544724,0.7532706722756554,0.08955149019706292
14.547111999999998,0.7901300407514966,0.09970178869961273
14.549492,0.827548487734779,0.10956398916433245
14.551892,0.8613820421058082,0.11952647246803835
14.554275999999998,0.8924693216257454,0.12968124377961504
14.55666,0.9183889166675935,0.14037155502162124
14.559055999999998,0.9395601361119328,0.1515152004642409
14.561443999999998,0.9576129936528429,0.16265884590686058
14.563828,0.970545388543907,0.17415401411525758
14.566223999999998,0.9843636230243756,0.18457026631467505
14.568607999999998,0.9990676970942485,0.19453274961838096
14.570992,1.01144480519361,0.1961338343397237
14.573387999999998,1.0173509762027664,0.19823060655625002
14.575775999999998,1.0199990156816332,0.2003007345328718
14.578156,1.0280489529219363,0.20119715449370013
14.580555999999998,1.0384277519906195,0.20137415132265682
14.582943999999998,1.0531375136341001,0.20062544332030038
14.585328,1.0667310141205684,0.19958276984659168
14.587723999999998,1.0811631323681978,0.19821396352686932
14.590111999999998,1.0953629331903496,0.19672659030867742
14.592496,1.1065369199076893,0.19553498666814928
14.594891999999998,1.1262783881181375,0.19313856221633155
14.597279999999998,1.141364028529694,0.19125723432248062
14.599664,1.1579399130084695,0.1891279499488313
14.602064,1.1760985893530815,0.18685361019736133
14.604451999999998,1.1986807760711073,0.1838651756139867
14.606835999999998,1.2243359987221891,0.18035653226645168
14.60924,1.2538556532392438,0.1765611790833285
14.611624,1.286029034808774,0.172390436085372
14.614007999999998,1.3057705030192222,0.16994068120223552
14.616408,1.3241614967893114,0.16787289946356007
14.618796,1.3424127209325403,0.16591993595599855
14.621175999999998,1.362666045822186,0.16373381080056654
14.62358,1.3815688962714732,0.16168921998905667
14.625968,1.3938138181754514,0.16046521124683374
14.628348,1.4080608408258466,0.15905684768181988
14.630751999999998,1.416161791610131,0.15838835060471712
14.633139999999996,1.4235638942601145,0.15794073811696335
14.635516,1.4300348313503195,0.15758345773287763
14.637919999999998,1.4327811062014113,0.15755150445467203
14.640307999999996,1.4313834099328093,0.15799552085738486
14.642688,1.4241191810518166,0.15899570205149263
14.645084,1.422069858477157,0.15941366500484294
14.647472,1.417366808850022,0.16002047372757733
14.649852,1.4156442473573254,0.1601274158680547
14.652255999999998,1.4120593547450724,0.16037216714548078
14.654643999999998,1.4086142317596795,0.16057036398045268
14.657024,1.398511180228978,0.16127983178859695
14.65942,1.38654579757872,0.16213497171819471
14.661808,1.3828683571678502,0.1622262344695545
14.664188,1.3751867152641462,0.16272211809281525
14.666591999999998,1.3645718070542476,0.16351250116959565
14.668976,1.3519547980979316,0.16450269115391283
14.67136,1.3434817602613096,0.165047286611916
14.673755999999996,1.3375226798503022,0.16544242186268787
14.67614,1.3306324338795164,0.1658919383248774
14.678524,1.3263959149612055,0.1661607054875529
14.680927999999998,1.3204368345501978,0.1665650760871698
14.683315999999998,1.3115444878329954,0.16729659410762784
14.685696,1.3082391344744626,0.16750869435491675
14.688091999999996,1.3115917096612384,0.16707776193203894
14.69048,1.3197398822737663,0.1662113382128693
14.692856,1.3226731485799614,0.16592836909614303
14.695263999999998,1.3262580411922147,0.16564526058572607
14.697651999999998,1.3270022152968897,0.16581957793563912
14.700032,1.3283980157076225,0.16599904904372356
14.702427999999998,1.3295142768646349,0.16625714480809908
14.704815999999996,1.335286365820539,0.1661461974450647
14.707196,1.3469249873888334,0.16554693750198232
14.709595999999998,1.360286170449824,0.16489070024903824
14.71198,1.3824471524294002,0.16354757173641318
14.714364,1.4084725662749502,0.16188214191784775
14.71676,1.4360807719863362,0.160135316058714
14.719148,1.4638287473245823,0.1584675116015828
14.721528,1.495860463409383,0.1565468773331325
14.723924,1.5278921794941835,0.15469003816945406
14.726312,1.5583411037131476,0.1528686493005277
14.728692,1.5957274957311405,0.15059171118294126
14.731092,1.6379094851748854,0.14791825500694822
14.733476,1.6783689131259338,0.14546827374714885
14.73586,1.7112392469718953,0.14352123280271278
14.738256,1.7373118826456884,0.14205538671962664
14.74064,1.769530590185592,0.14016258071339327
14.743023999999998,1.8008181321657173,0.13828979306456704
14.74542,1.8313142782129246,0.1364379717131012
14.747808,1.8627415898199102,0.13457578927170724
14.750187999999998,1.8924463399341993,0.13278397256730998
14.752584,1.923361794861987,0.13098249567725911
14.754972,1.9457569901249103,0.129686301973851
14.757368,1.9645672927755797,0.12857922835014013
14.759767999999998,1.972855235014968,0.12804445289969163
14.762155999999996,1.9803517813214375,0.1275402970368724
14.764536,1.9901299676280446,0.12688298816795848
14.766932,1.998837218748013,0.12631519427684682
14.76932,1.999396297255454,0.12620717255083183
14.7717,1.9988844405762558,0.12616532933141822
14.774103999999998,2.001305850203254,0.1259827097735593
14.776491999999998,1.9989316624044993,0.12601307294700595
14.778872,1.9948349131130485,0.1260867541036554
14.781271999999998,1.9896672286349593,0.12621877650690896
14.783659999999998,1.9923681775156772,0.12599840267797488
14.78604,1.9990733278892285,0.12558314581691588
14.788443999999998,1.9999119456503898,0.12543218658359434
14.790831999999998,2.003963368971467,0.12510589257809304
14.793212,2.0124383026659585,0.12453875828671918
14.795607999999998,2.02147231486789,0.12389379999699891
14.797992,2.035581463749294,0.12304439102118338
14.800376,2.0458261807647253,0.12235236729046539
14.802771999999996,2.062728826325464,0.12142788392677066
14.805156,2.080562637445982,0.120472166156121
14.80754,2.100258779686056,0.11939125165640069
14.809936,2.1158109508064364,0.11849764091825771
14.81232,2.12391379744859,0.1178585187899304
14.814704,2.1288038385308283,0.1173872732536398
14.817104,2.136906685172982,0.11672813254998544
14.819492,2.1459406973749138,0.11603957476503925
14.821872,2.155114479203706,0.11534920310135492
14.824275999999998,2.1642882610324987,0.11466193532648591
14.826663999999996,2.1745329780479294,0.1139280904866708
14.829044,2.186919565436637,0.11309777036132512
14.83144,2.194510555399593,0.11245963938526128
14.833828,2.200239214242993,0.11188191635013527
14.836208,2.206247412340112,0.11124515844782759
14.838604,2.2091825745041773,0.11074897819426138
14.840992,2.2030383984959356,0.11063073155759001
14.843372,2.193821186554638,0.11064125845970874
14.845776,2.1805997731205076,0.11079623603629489
14.848164,2.164305323753322,0.11109491302953162
14.850548,2.145496916960521,0.11141087762052046
14.852944,2.128550841287277,0.11166225436924225
14.855332,2.1186820030399223,0.11163589547873427
14.857712,2.1144473799794805,0.11132247714099845
14.860115999999998,2.117801851024126,0.11077910903670671
14.862503999999998,2.1238572709494883,0.11004273552279308
14.864884,2.1288417556882133,0.1093526040387597
14.867279999999996,2.1321036789342407,0.10869244523610302
14.869668,2.129638839194739,0.10820669605780649
14.872048,2.124380502775902,0.10779445921816398
14.874444,2.116188900050869,0.10748196320460184
14.876832,2.105203800646502,0.10724351603826789
14.879212,2.095149866801913,0.10697777888871383
14.881608,2.0860270985171026,0.10668477324523921
14.883996,2.081280618777463,0.10631151263155494
14.88638,2.0777448438513226,0.10586550363627462
14.888776,2.077933731164295,0.10530372327445708
14.891164,2.076120517730851,0.10481126362673358
14.893548,2.07244497317785,0.10437040843229288
14.895944,2.075706896423878,0.10365860353333103
14.898332,2.0745453092964916,0.10317361791720005
14.900712,2.069798829556852,0.10277758078089574
14.903112,2.0611879179512393,0.10251562931216779
14.9055,2.0472223304124335,0.10250268633738571
14.907895999999996,2.030183706940573,0.10260578335437275
14.910296,2.0115150697746325,0.10285117600230317
14.912684,1.9929862022355522,0.10307685314257464
14.915067999999998,1.9763196658160287,0.10324654841661655
14.917464,1.9651003531283149,0.10328959424671771
14.919847999999998,1.9605389689859096,0.10312786717658304
14.922231999999996,1.9615645782021742,0.10282015390867706
14.924627999999998,1.9652439144709137,0.10246730318077239
14.927015999999998,1.966781380366376,0.10220615282132202
14.929396,1.9681790766349783,0.10196907209794295
14.931791999999998,1.9669230458511058,0.10178235620001243
14.934179999999998,1.9681809724928478,0.1015763640374597
14.936564,1.9737226398811436,0.10119536516514717
14.938959999999998,1.983920135068331,0.10070151188533705
14.941347999999998,1.9936983213749384,0.10026270272763738
14.943732,2.002405572494907,0.09988708166746381
14.946127999999998,2.0169793562272655,0.09932337760639935
14.948511999999996,2.036860594064574,0.09868452324028958
14.950896,2.055111818207803,0.09817530833543436
14.9533,2.0810919060829787,0.09745731313377234
14.955683999999998,2.1069322243312945,0.09675892967546879
14.958064,2.133703708139388,0.09602527701613556
14.960459999999998,2.1632686886268173,0.09523663588784534
14.962847999999996,2.1917627339276073,0.09450342102569975
14.965228,2.21946538329548,0.09379087796085608
14.967631999999998,2.2430240615436587,0.09325172540574089
14.970019999999998,2.262578538299003,0.09285059937095186
14.9724,2.2789202094944327,0.09257196680245315
14.974795999999998,2.3012681829291117,0.09212380679361831
14.977183999999998,2.3254784874833483,0.09164544430301722
14.979568,2.350480187970503,0.09117566388262278
14.981963999999998,2.370965830285626,0.09078285872210357
14.984351999999998,2.388098897413973,0.09053649518487543
14.986732,2.4044405686094024,0.09029531711173784
14.989135999999998,2.4259971461111642,0.08989297660442729
14.991519999999998,2.4444806876798704,0.08958335369859821
14.993904,2.4611018981290194,0.08931139086706157
14.996299999999998,2.471204949659721,0.08915453113958725
14.998687999999998,2.486942216377336,0.08879003509141664
15.001068,2.4986752816021163,0.08853892507614847
15.003463999999996,2.5116190516403956,0.08823768697545101
15.005852,2.527775627238591,0.08784504526600265
15.008247999999998,2.5420698717172288,0.08748789335016964
15.010644,2.556503885822728,0.0871138693441662
15.013027999999998,2.568004633622031,0.0867989414907119
15.015411999999998,2.5757807191822204,0.08653263438002819
15.017808,2.5829051784363526,0.08624246202865915
15.020191999999998,2.592451047317483,0.08584915399246217
15.022576,2.5972013187728606,0.08555278742547737
15.024971999999998,2.599297863175764,0.08528153948399805
15.027355999999996,2.598600910899332,0.08505078096896737
15.02974,2.599626520115597,0.08480877787142972
15.032135999999998,2.601071438212443,0.08451218293912839
15.034523999999998,2.5994433203762326,0.08429314566235427
15.03692,2.59274006586055,0.08419870501516495
15.039316,2.5892496169047834,0.0840084059990771
15.041704,2.5858989375758763,0.08379983208602858
15.044083999999998,2.5844105893665263,0.08356092584149372
15.046475999999998,2.577707334850844,0.08346391284241714
15.048863999999998,2.5730061810815785,0.08332284832631215
15.051244,2.5667222354464774,0.08317058336061417
15.053643999999998,2.5565738579454016,0.0830843273365702
15.056031999999998,2.548287811563883,0.08297260034609515
15.058412,2.541864096301921,0.08283668168399319
15.060816,2.541167144025489,0.08261530087125704
15.063199999999998,2.5484785947347253,0.08223539550575178
15.065583999999998,2.558723311750156,0.08180879754743894
15.06798,2.5648240576458927,0.08147514590808844
15.070367999999998,2.571716199474548,0.08114651634156078
15.072748,2.579399737236121,0.08082297063129393
15.075143999999998,2.588154210184332,0.08046696180760338
15.077531999999998,2.5970484527594033,0.08009442655114739
15.079928,2.604592220894116,0.07978432204660933
15.082324,2.6164197297753837,0.07936137949373634
15.084712,2.633322375336123,0.07883368766362737
15.087091999999998,2.647151984963807,0.0783786809897291
15.089492,2.6615406730989313,0.07786225879149865
15.09188,2.6783507708610537,0.07726186588991883
15.094259999999998,2.6897136448913663,0.07668794934979614
15.09666,2.6911132370178374,0.07618944606959864
15.099048,2.6903709587710316,0.07574217135839872
15.101428,2.6871147230986114,0.07528363488337915
15.103828,2.677759637388323,0.07484019421592146
15.106216,2.6592326657071124,0.0744776171967522
15.108596,2.631673577681839,0.0741783384328288
15.110992,2.591729798125727,0.07405275394377817
15.11338,2.543265758904749,0.07404798270867832
15.115759999999998,2.4965715030047115,0.07390235931101533
15.11816,2.4468514329998614,0.07368353600215129
15.120548,2.392103448143783,0.07343899563928012
15.122927999999998,2.3360522106755885,0.07310382003701385
15.125332,2.277766555035499,0.07268252115282042
15.12772,2.216455085290598,0.07217827543068732
15.1301,2.144900794388135,0.07176168696559461
15.132496,2.0645939263953297,0.07128866116187144
15.134884,1.976325877245101,0.07083148037266952
15.137268,1.8797698858554837,0.07065146788659364
15.139664,1.7750657218533386,0.06709241009353882
15.142052,1.677299025650223,0.06349359421950249
15.144431999999998,1.5828376828056394,0.05987670827005093
15.146828,1.4895870447745552,0.05625031054326558
15.149216,1.3968482634226682,0.05264091147782742
15.151595999999998,1.3044815691231186,0.04905879452856704
15.153996,1.2197039689286557,0.04543687769281549
15.15638,1.1375800957866682,0.0418131310213364
15.158763999999998,1.0641162519364056,0.03810648627114603
15.16116,0.9973103366314515,0.034330434671171355
15.163552,0.9299453428190567,0.03065049503163622
15.165931999999998,0.8617417312455006,0.02704375530330211
15.168328,0.7977746385902553,0.02346273262897513
15.170716,0.7360419641069041,0.019979089236341584
15.173112,0.6736104414892521,0.016598095558400618
15.175508,0.6144842722301327,0.013273694717745229
15.177896,0.5633192841284373,0.009930268798009735
15.180276,0.5158317364376122,0.006702385347676651
15.182676,0.4784472402774885,0.003449931614754905
15.18506,0.45200441340922726,0.0
15.187444,0.43049695359357804,0.0
15.18984,0.4065680841509313,0.0
15.192228,0.3892971432535931,0.0
15.194608,0.3725380590354527,0.0
15.197004,0.36178527705656266,0.0
15.199392,0.3567592580632028,0.0
15.201771999999998,0.3493118294428455,0.0
15.204179999999996,0.3423762575016859,0.0
15.206564,0.3371632470532227,0.0
15.208948,0.3287374310448439,0.0
15.211344,0.3200320757827447,0.0
15.213732,0.315191152386619,0.0
15.216116,0.3110018552965512,0.0
15.218512,0.3026685870867895,0.0
15.2209,0.29498694518308566,0.0
15.22328,0.28823646883916004,0.0
15.225676,0.28255692768187307,0.0
15.228064,0.2759462209648078,0.0
15.230444,0.26905597499402206,0.0
15.23284,0.25667128346318346,0.0
15.235228,0.24721985823854012,0.0
15.237612,0.24363496562628706,0.0
15.240008,0.2332523748418653,0.0
15.242392,0.22487188480386044,0.0
15.244792,0.21127648845952313,0.0
15.247187999999998,0.1939564298760725,0.0
15.249575999999998,0.17984917685253746,0.0
15.25196,0.1726793916280313,0.0
15.254355999999998,0.16308819677652764,0.0
15.256747999999998,0.1553593330445807,0.0
15.259128,0.14870140449927224,0.0
15.261527999999998,0.14218324558082399,0.0
15.263915999999998,0.13380275554281912,0.0
15.266299999999998,0.1323597333038431,0.0
15.268695999999998,0.13412951662478267,0.0
15.271083999999998,0.13175532882602833,0.0
15.273464,0.12817043621377525,0.0
15.275859999999998,0.13217463770660895,0.0
15.278247999999998,0.13324557289324748,0.0
15.280628,0.13538744326652452,0.0
15.283027999999998,0.1372497743860812,0.0
15.285415999999998,0.1331058032663873,0.0
15.287796,0.133617659945585,0.0
15.290191999999998,0.13091671106486708,0.0
