Time,Force,Position
10.047244,0.6733129056396191,0.0
10.049623999999998,0.6709387178408648,0.0
10.052028,0.6678656819078093,0.0
10.054412,0.6614400707879781,0.0
10.056791999999998,0.6581800433998194,0.0
10.059192,0.6507760448919666,0.0
10.061576,0.6409506367571166,0.0
10.063955999999996,0.6379229267944351,0.0
10.066351999999998,0.6375489438842284,0.0
10.068744,0.6421103280266338,0.0
10.071123999999998,0.6485340432885958,0.0
10.073528,0.6546782192968372,0.0
10.075916,0.6651986838502499,0.007834643201917459
10.078295999999998,0.6746482132170242,0.007834643201917459
10.080696,0.6878224048229116,0.015630515864252154
10.083084,0.6989944956823823,0.0238665174876451
10.085463999999998,0.7127277657957105,0.031909522096199405
10.087864,0.7263212662821786,0.040018645685481566
10.090252,0.7407061627015648,0.04813619000023725
10.092631999999998,0.7577447861734257,0.05603007299792345
10.095032,0.7714308344585108,0.06422743929226958
10.09742,0.7769687101310685,0.06422743929226958
10.099799999999998,0.7812958809901273,0.06422743929226958
10.102204,0.7942830811409114,0.07288247173221585
10.104588,0.8100637779710304,0.08111205665913308
10.106972,0.8286379714804843,0.08918045795332122
10.109368,0.8493540353632154,0.09704382210479563
10.111752,0.8636444881261154,0.10523350503896371
10.114135999999998,0.8787263368219335,0.113429381237477
10.116532,0.8964619125702261,0.12127980340171973
10.11892,0.9097739779451044,0.1294391929289425
10.121299999999998,0.9238774392529009,0.13750599774426694
10.123704,0.9323939072020276,0.13815767303821824
10.126092,0.9455662029500459,0.14643541452861156
10.128472,0.9550138364589509,0.14697070453113245
10.130876,0.9675345059009112,0.1470171546015292
10.133264,0.9805670320220692,0.14716330878467154
10.135648,0.9923888533297284,0.1474985694259339
10.13804,1.0064923146375249,0.14748201818194473
10.140428,1.018873214452625,0.14764683779372725
10.142808,1.0324648190812238,0.14755684329013308
10.145204,1.0544841355760708,0.15523134055418403
10.147592,1.0790646313247754,0.16278433164707742
10.149976,1.096847428901311,0.16184857328826124
10.15238,1.1109055642387338,0.16138324122137637
10.154768,1.1241723036432383,0.16099966165991786
10.157148,1.1357164815550462,0.16077698085785153
10.159544,1.1498218387207122,0.16010853959750518
10.161936,1.1614132384607636,0.15958716066304285
10.164316,1.1683488104019233,0.1595369954309935
10.166712,1.1787767271567187,0.15897434613754435
10.1691,1.1848283553663432,0.1587447459181489
10.171484,1.1948841850688015,0.15801304306580682
10.17388,1.2007034958529486,0.15761043501353758
10.176268,1.204660475517539,0.1573802654194485
10.178648,1.208105598502932,0.1571006384333079
10.181051999999998,1.2051723321967367,0.157459140146604
10.183439999999996,1.2057314107041774,0.1572498927087013
10.18582,1.2014948917858665,0.15758774417350588
10.188219999999998,1.1938132498821628,0.15824370471037721
10.190607999999996,1.1894841831652347,0.15836093017472624
10.192988,1.18329278532875,0.1586155233871931
10.195387999999998,1.1743078908129305,0.15912933710962412
10.197772,1.169746506670525,0.15905389306349338
10.200152,1.1643937265952018,0.15901973609156728
10.202548,1.1551765146539048,0.1593943836024924
10.204936,1.1439572019661908,0.1600166004855006
10.207316,1.129804622972282,0.16097685465588485
10.209712,1.1195164758443468,0.16151015417394435
10.2121,1.109647637596992,0.16191180941734903
10.214496,1.098987403416719,0.1623053846751551
10.216891999999998,1.0900497307291424,0.16261460632639257
10.219279999999998,1.0823227628550647,0.16270043389538547
10.22166,1.0804623275933778,0.16216896761877286
10.224055999999996,1.0818146978916057,0.16124073401820707
10.226444,1.083958464122752,0.16029142736002186
10.228828,1.0942504029664257,0.1584220118066355
10.231223999999996,1.0994672051306276,0.1571066513944809
10.233608,1.1048237769216893,0.15568542129101948
10.235992,1.1129738453920863,0.1539426784710581
10.238395999999998,1.1141864460634543,0.15299898895244132
10.240783999999998,1.113257176361545,0.15235080621240765
10.243168,1.114981633712111,0.15148381347913234
10.245563999999998,1.1106997888234258,0.15129158737774923
10.247951999999998,1.1096307494946565,0.15069517362020815
10.250332,1.1148475516588583,0.14936108196690467
10.252727999999998,1.122997620129255,0.14771221598512835
10.255119999999998,1.1303562926667339,0.14600427090618395
10.2575,1.1359924037115163,0.1444778283821878
10.259895999999998,1.143351076248995,0.14284425754613797
10.262283999999998,1.1479162521071387,0.14146629900216579
10.264668,1.1529007368458632,0.13990845941519756
10.267063999999998,1.1541605593454745,0.1387029954105592
10.269451999999998,1.1495538492326949,0.13809319668547465
10.271832,1.1409429376270819,0.1378949036488374
10.274231999999998,1.128607363782356,0.13802766007015693
10.276619999999998,1.1139901499374925,0.13838860326152364
10.279,1.1055190079587396,0.1381031266283796
10.281399999999998,1.1015639241520183,0.1375037264853968
10.283784,1.097469070718437,0.13695002044814497
10.286164,1.0969591098971085,0.13613502968579108
10.288571999999998,1.093795422023305,0.13548842169665012
10.290955999999998,1.0858361367237501,0.13530569146727126
10.29334,1.0789477866108337,0.13499864015645757
10.295735999999998,1.0679154653782232,0.1352080528738086
10.298123999999998,1.0518080074661407,0.13597703885274748
10.300504,1.0327672832478627,0.13708921040121852
10.302903999999998,1.0194533220151152,0.13757694472112628
10.305291999999998,1.0049286559688688,0.1382619951242102
10.307672,0.9925458602958994,0.1385827848385594
10.310076,0.9836081876083231,0.13868587025088813
10.312464,0.9766726156671633,0.13857108994214912
10.314844,0.9722510011516181,0.1383346692726971
10.317244,0.9695519481287697,0.1379993593746995
10.319627999999998,0.971788262158533,0.1371827358809592
10.322012,0.9776094688005493,0.1360888764260131
10.324407999999998,0.9806371787632309,0.13522552054909717
10.326795999999998,0.9795209176062185,0.13483622452685914
10.329179999999996,0.9728176630905361,0.1348866101273286
10.331575999999998,0.9643918470821573,0.13504420258029154
10.333963999999998,0.9591788366336942,0.13481154328885606
10.336344,0.9568990924914262,0.13430666435832417
10.338743999999998,0.9616965857750472,0.1330765043022706
10.341131999999998,0.9662145398049479,0.13189231731750362
10.343512,0.9725948249544051,0.1305095881076229
10.345911999999998,0.9834911682758938,0.12879026354294693
10.348299999999998,0.9973207779035775,0.12673574230479887
10.350683999999998,1.0050043156651507,0.12541982455305478
10.35308,1.015621119732919,0.12382845889647069
10.355467999999998,1.0190209167479378,0.12306874865938451
10.357848,1.0156230155907884,0.12298552402474652
10.360252,1.0124574318591157,0.12308752441537714
10.36264,1.0082209129408048,0.12332165203147451
10.365019999999998,1.003984394022494,0.12355577964757189
10.367416,0.9997478751041827,0.12375843803593822
10.369803999999998,0.9944404209992332,0.12408041690308197
10.372184,0.9904362195063994,0.12448254789797647
10.374588,0.9895050539466212,0.12455429967132321
10.376976,0.9922985506259562,0.12433070350683194
10.379355999999998,0.9977457743577659,0.12393072903079923
10.381752,0.9999801925296601,0.12392310147752156
10.38414,0.9996534314476965,0.12432043018294428
10.38652,0.9981159655522343,0.12485954723877359
10.388915999999998,1.0013740970825238,0.12502262304694295
10.391303999999998,1.0067740989860905,0.12497137367875782
10.393684,1.0061677986504063,0.12543342380698191
10.396088,1.0080754557403369,0.12579205771371144
10.398476,1.0141270839499614,0.12577425121124453
10.400859999999998,1.018176611413169,0.12592677303758862
10.403256,1.0271615059289887,0.12566890182615384
10.405644,1.0470880697366707,0.12449089855916144
10.408023999999996,1.0623588057454612,0.12358809300572256
10.410424,1.0779090810079721,0.12258789588509879
10.412807999999998,1.0914572555240665,0.12173029084746873
10.415191999999998,1.1027237900400233,0.12118707785756906
10.417596,1.115201029369479,0.12049594187875465
10.419984,1.1291685127661537,0.11955046765170596
10.422363999999998,1.1379210898564964,0.11910526175863063
10.42476,1.1489553069469758,0.11845241789557726
10.427148,1.1621313944107328,0.11765472438991334
10.429531999999998,1.173584920381793,0.11689518683399053
10.431928,1.1885307911664889,0.11571320922667737
10.434316,1.2014745612047684,0.11473194228915223
10.436699999999998,1.2126957697503515,0.11387374578226604
10.439096,1.218422532735882,0.11351664194857708
10.441484,1.2275018709081875,0.11279159834615844
10.443863999999998,1.2304823590426262,0.11233603065485018
10.446264,1.2343940127368427,0.11184691950111722
10.448652,1.2363035656846426,0.1114941094465432
10.451031999999998,1.236350787512886,0.11124768242046097
10.453428,1.2313228726616567,0.11136821873853943
10.455816,1.2345829000498154,0.11088856422338826
10.458199999999998,1.2357010570646971,0.11057095185306157
10.460596,1.237890149266217,0.11015459932241961
10.462979999999998,1.239148075907959,0.10978171276656401
10.465363999999996,1.2396146066167824,0.10942207652454158
10.467759999999998,1.241152072512245,0.10898825297648716
10.470147999999998,1.2489753799006782,0.1080878583272199
10.472544,1.2485107450497237,0.10777927525257167
10.47494,1.2419000383326584,0.10790672972772336
10.477328,1.2370118931082896,0.10798880259741858
10.479708,1.2338463093766174,0.10800765234464194
10.482108,1.2317516608315833,0.10794260430170818
10.484496,1.2277946811669929,0.10796093614979299
10.486876,1.2276095855697586,0.10757378996486194
10.489272,1.2252826195992474,0.10735333277504558
10.49166,1.2256093806812112,0.1070293529093045
10.494039999999998,1.221140544337423,0.1069810216423682
10.496436,1.2228177798597453,0.1064942540174197
10.498824,1.2244950153820677,0.1059985834865294
10.501207999999998,1.2203057182919999,0.10587002418731986
10.503604,1.2090391837760432,0.10622876960396706
10.505992,1.2019166203797802,0.10627147023493053
10.508375999999998,1.1969359273567943,0.10613563854464692
10.510772,1.1922347735875287,0.10591754669953142
10.51316,1.1841810446314878,0.10602093372414882
10.515543999999998,1.1679791430629185,0.10681098297098464
10.51794,1.1465623351880172,0.10803333597398931
10.520324,1.132362534365865,0.10868456736453523
10.522707999999998,1.1213755391036284,0.1090601938989475
10.525104,1.1118787879086112,0.10917082225266765
10.527492,1.098657374474481,0.10947719252373499
10.529871999999996,1.0823629251072946,0.11005461825490939
10.532272,1.0667201020461667,0.11068339506477762
10.53466,1.0505182004775977,0.11148642450489948
10.537056,1.039391435588501,0.11185362996120586
10.539452,1.0310581673787393,0.11203689372729504
10.54184,1.026589331034951,0.11198036875254004
10.54422,1.0150432572652737,0.11243998574226442
10.546616,1.0065702194286517,0.11264950565744258
10.549008,1.0062453542045573,0.11225973331474415
10.551388,1.0048495537938245,0.11195256847563062
10.553784,1.0013118830098147,0.11183991843212437
10.556172,0.994561406665889,0.11201618670975844
10.558552,0.992326988493995,0.11198177185469059
10.560952,0.9970300381211298,0.11148448399581386
10.563336,1.0109521955474308,0.110229553419909
10.56572,1.0288785544665653,0.1086631752391546
10.568116,1.0435921078257844,0.10742703658474678
10.570504,1.0590970571179215,0.10621041187051651
10.572888,1.0731117623428392,0.10525384536027081
10.575284,1.0867071586871766,0.10439787370319359
10.577672,1.1041669868974875,0.10328375647113082
10.580056,1.124839620667714,0.10194448545155303
10.582452,1.146583189624579,0.1005196168765548
10.584844,1.163531161155692,0.09942899321010801
10.587224,1.1744728304475545,0.09873498612301151
10.589624,1.1869972916052531,0.09807748972080894
10.592012,1.2033861846289255,0.09717393173584127
10.594396,1.2181450639585185,0.09655370924287858
10.596795999999998,1.2275492673549186,0.09635638145475743
10.599183999999996,1.2437511689234877,0.09580164530974056
10.601564,1.2599530704920565,0.09524690916472371
10.603963999999998,1.2818817350461555,0.09441958016862
10.606351999999998,1.296221305495168,0.09395250715235742
10.608736,1.3085587751977632,0.09364582194589754
10.611135999999998,1.3235499719528336,0.09334644632309581
10.613528,1.3362595287077665,0.0932152286527738
10.615907999999996,1.3540442221421716,0.09285582938400438
10.618312,1.3726203115094948,0.09251454318578198
10.620696,1.392407105690317,0.09208586880258507
10.623075999999998,1.4163378709908325,0.09145710167234906
10.62548,1.4364042044253753,0.09096669417449733
10.627868,1.4500449267400866,0.09082593597899735
10.630247999999998,1.4636856490547976,0.09069185518313234
10.632644,1.4806317247280416,0.09054358567988885
10.635032,1.5005110667074806,0.0902516687585981
10.637411999999998,1.517596912007585,0.09005198821783317
10.639816,1.5384074195468023,0.08977311999295112
10.6422,1.5609877104069594,0.08930057705393546
10.644583999999998,1.5877119723868098,0.08862475690375428
10.646984,1.6104320328738269,0.08814300331431414
10.649372,1.6348746548535404,0.08764967624378571
10.651751999999998,1.6574549457136976,0.08723933482153154
10.654152,1.6868329347460231,0.086602103872173
10.656536,1.716350693405209,0.085972203643001
10.658915999999998,1.7370686531458093,0.08564165272801952
10.661316,1.7589973176999083,0.08523333173661186
10.6637,1.7757110759476746,0.08504525147309326
10.666083999999998,1.790702272702745,0.08487313260684232
10.66848,1.8063450957638731,0.08474082659809846
10.670863999999998,1.8181234869590277,0.08471351508040134
10.673247999999996,1.8308330437139606,0.08465968776997278
10.675643999999998,1.8530412475217801,0.08423806371085069
10.678027999999998,1.8773913217028768,0.08375399713722118
10.680408,1.901369308831636,0.08320328207920585
10.682811999999998,1.9284203318934505,0.08256629387486036
10.685195999999998,1.9558906638358458,0.08186017326279169
10.68758,1.977913772046431,0.08125650794367886
10.689975999999998,1.9945822043238237,0.08084994901004697
10.692363999999998,2.011250636601216,0.08046065004811133
10.694744,2.0289900040652475,0.08003424533607024
10.697148,2.043935874849944,0.07965212371941084
10.699531999999998,2.0570194145150835,0.07930537138299239
10.701916,2.0660987526873895,0.07906588873709847
10.704311999999998,2.071173889366862,0.07892810018160215
10.706695999999996,2.0791822923525287,0.07871958939936256
10.70908,2.086539069032138,0.07848442975340279
10.711484,2.09310444977883,0.07823378361676812
10.713867999999998,2.0998096001523816,0.07796128531597
10.716248,2.100927757167263,0.07777695215325964
10.718652,2.1037684756748414,0.0775840206617844
10.72104,2.1070285030630003,0.0773193867304372
10.72342,2.0981361563457974,0.07740726262893419
10.725815999999998,2.0833772770162047,0.0776333816023981
10.728203999999998,2.0691302543658097,0.07790462860918677
10.730584,2.049947864662802,0.07829517857558829
10.732983999999998,2.031417101265853,0.0787081538912644
10.735367999999998,2.012606798615183,0.07917377234876014
10.737752,1.9988716326439853,0.07949936639333134
10.740156,1.980201099620176,0.07995160069069684
10.742544,1.9599477747305298,0.08038323559618167
10.744923999999996,1.9410449242812429,0.08073046753125632
10.747319999999998,1.9213506778990381,0.0810703454528629
10.749707999999998,1.9039380715169705,0.08130727801909068
10.752088,1.88880710513504,0.08144608340250611
10.754492,1.8736761387531096,0.08158488878592153
10.75688,1.854121661997765,0.08191771046114979
10.759259999999998,1.8385713867352538,0.08213813279314355
10.761656,1.8220899459129645,0.0823725563306775
10.764043999999998,1.809612706583509,0.08250244933723419
10.766427999999998,1.7944817402015787,0.082661273095752
10.768824,1.7817249616184028,0.08284022469227013
10.771207999999998,1.7771163556477545,0.08276736542053434
10.773592,1.7791656782224143,0.08255215010383264
10.775987999999998,1.774836611505486,0.08242884750783813
10.778375999999998,1.7715784799751968,0.0822616181986735
10.780756,1.7633849813922953,0.08224086814496319
10.783155999999998,1.7544000868764753,0.08221672375938893
10.785539999999996,1.7414109908678221,0.08232588793140598
10.787924,1.7322863267251425,0.08233228613241446
10.790319999999998,1.7258153896349375,0.082301141006583
10.792707999999998,1.7201358484776508,0.08227416296682587
10.795088,1.7172498039996988,0.08218974710218553
10.797487999999998,1.7132928243351082,0.08214822755527502
10.799875999999998,1.7091960750436572,0.0821310010811627
10.802272,1.7032369946326498,0.08214982267902188
10.804668,1.7037035253414736,0.08190222723993615
10.807056,1.701795868251543,0.08163004523772292
10.809435999999998,1.698957045601834,0.08137114354151613
10.811836,1.6962579925789854,0.08108510527608935
10.814224,1.6947696443696352,0.08072400854560316
10.816603999999998,1.690115712428613,0.08032287422506645
10.819,1.682808053435116,0.07994215138178237
10.821388,1.667119904403614,0.07969796428819602
10.823767999999998,1.6565068920515842,0.07928620092453852
10.826168,1.64337992227394,0.07885809252656611
10.828556,1.631882966190375,0.0782563209024572
10.830935999999998,1.6197343838007523,0.07759722273467531
10.833336,1.6081448799185705,0.0768004778456277
10.835724,1.5941811882376338,0.07595642245968212
10.838103999999998,1.5744907335711675,0.07524271352800146
10.8405,1.551215386292448,0.07455324264555073
10.842888,1.5224928152819186,0.07392008363800194
10.845268,1.490045582032276,0.07334537467393556
10.847663999999998,1.4538736865435204,0.07283364606234353
10.850051999999998,1.4177017910547647,0.07232931095208323
10.852432,1.3775256940731753,0.07193893823234297
10.854831999999998,1.3347884178377278,0.07176393351985437
10.857215999999998,1.2919113719754203,0.07164152437979196
10.859616,1.2451698942471394,0.0678407559066492
10.862012,1.1953553805858028,0.06407801874189162
10.8644,1.1469838891634427,0.06036603783443892
10.86678,1.095399592181167,0.056721043727889955
10.86918,1.0456776263184477,0.053029447417854564
10.871564,0.9947449556422299,0.04942408080151385
10.873943999999998,0.9516809183248192,0.04581774607824979
10.87634,0.9134124784331602,0.04225699655989508
10.878728,0.8767268304073373,0.038713112043557915
10.881107999999998,0.8397616431277942,0.03523545111804538
10.883504,0.8045190173409476,0.03182690177137867
10.885891999999998,0.7692763915541009,0.02835808811887064
10.888272,0.7326832913268951,0.024912562687175142
10.890672,0.6978127525923858,0.021475517218928944
10.893059999999998,0.6657357105372116,0.018006704692942098
10.895456,0.6343102947880951,0.01450150755847436
10.897852,0.6031644182926992,0.01095286885070343
10.90024,0.5738808729168599,0.0074055838636310975
10.90262,0.5450166364216011,0.003731804391720223
10.905016,0.5184340399264797,0.0
10.907404,0.49543633604361126,0.0
10.909783999999998,0.47844493439999347,0.0
10.912184,0.4589395753307612,0.0
10.914568,0.44409004406042046,0.0
10.916951999999998,0.43003190872299785,0.0
10.919348,0.4169049389453536,0.0
10.921736,0.3932083869281842,0.0
10.924115999999998,0.36480878528388005,0.0
10.926512,0.3374801188262145,0.0
10.9289,0.3120137834881054,0.0
10.931296,0.2830551033363604,0.0
10.933692,0.25810062467744904,0.0
10.93608,0.23887290900406793,0.0
10.93846,0.22122798519652298,0.0
10.94086,0.20330352213525765,0.0
10.943244,0.18952303019368624,0.0
10.945628,0.17746509974481123,0.0
10.948024,0.16754903966921328,0.0
10.950412,0.160938332952148,0.0
10.952792,0.15483948291428037,0.0
10.955188,0.15102227287654998,0.0
10.957576,0.14399225727890405,0.0
10.95996,0.13905689022629203,0.0
10.962356,0.13118825686748486,0.0
10.96474,0.12704428574779092,0.0
10.967123999999998,0.12061867462795975,0.0
10.96952,0.119407969814461,0.0
10.971908,0.12047890500109952,0.0
10.974304,0.11968750906818143,0.0
10.976699999999996,0.11568330757534771,0.0
10.979088,0.11517145089615002,0.0
10.981468,0.11517145089615002,0.0
10.983867999999998,0.11158655828389695,0.0
10.986252,0.10760673946121037,0.0
10.988636,0.10469785582516229,0.0
10.991032,0.10057826737561547,0.0
10.99342,0.09631890929920846,0.0
10.995804,0.08977791122266417,0.0
10.998196,0.08244551721320176,0.0
11.000584,0.07418195764396104,0.0
11.002964,0.06363675807458306,0.0
11.005368,0.05402272406498339,0.0
11.007756,0.04482799893596434,0.0
11.01014,0.03763537455336215,0.0
