Time,Force,Position
13.659916,0.016317640871100225,0.0
13.662299999999998,0.01992537264144935,0.0
13.664696,0.02567497478507553,0.0
13.667084,0.03370621692883899,0.0
13.669463999999998,0.04359979019215908,0.0
13.67186,0.0545642986421177,0.0
13.674248,0.06259554078588116,0.0
13.676631999999998,0.07169771811628314,0.0
13.679028,0.08187083063332366,0.0
13.681416,0.09018161203080752,0.0
13.683799999999998,0.09663006230873475,0.0
13.686204,0.09814314553404997,0.0
13.688588,0.0997959983862254,0.0
13.690967999999998,0.0997959983862254,0.0
13.693372,0.0997959983862254,0.0
13.69576,0.10023814642490209,0.0
13.69814,0.1026823952099956,0.0
13.700536,0.10498687436822893,0.0
13.702924,0.10261268656947459,0.0
13.705303999999998,0.0967233147989882,0.0
13.7077,0.08897161190894519,0.0
13.710088,0.08673719373705106,0.0
13.712471999999998,0.08128997000524134,0.0
13.714868,0.07556320701971123,0.0
13.717256,0.06825365216834486,0.0
13.719635999999998,0.060804327690118294,0.0
13.72204,0.060152701384060404,0.0
13.724424,0.05922153582428207,0.0
13.726803999999998,0.057079665451005,0.0
13.729208,0.058802226943701436,0.0
13.731596,0.062247349929094295,0.0
13.733975999999998,0.07169877515373771,0.0
13.736372,0.07779762519160532,0.0
13.73876,0.08447839289500983,0.0
13.741139999999998,0.09022799503863602,0.0
13.74354,0.09246241321053014,0.0
13.745924,0.09001816442543661,0.0
13.748307999999998,0.08771368526720329,0.0
13.750704,0.08741130685538682,0.0
13.753092,0.08741130685538682,0.0
13.755488,0.08741130685538682,0.0
13.757884,0.08603799325693183,0.0
13.760272,0.08573561484511535,0.0
13.762652,0.08343113568688203,0.0
13.765048,0.0808471172749283,0.0
13.767436,0.07733193330319622,0.0
13.769816,0.06995231746549067,0.0
13.772212,0.06178130569486701,0.0
13.7746,0.05375006355110355,0.0
13.776984,0.04371672066092324,0.0
13.77938,0.03382314739760315,0.0
13.781768,0.022858638947644522,0.0
13.784147999999998,0.015106936057601486,0.0
13.786548,0.008426168354196984,0.0
13.788932,0.002676566210570801,0.0
13.791315999999998,0.0,0.0
13.793712,0.0,0.0
13.7961,0.00174540065079248,0.0
13.798496,0.0017454006507924798,0.0
13.800891999999996,0.0017454006507924798,0.0
13.803279999999996,0.00174540065079248,0.0
13.80566,0.00174540065079248,0.0
13.808059999999998,0.00174540065079248,0.0
13.810447999999996,0.00174540065079248,0.0
13.812828,0.00174540065079248,0.0
13.815227999999998,0.00174540065079248,0.0
13.817612,0.00174540065079248,0.0
13.819996,0.00174540065079248,0.0
13.822392,0.00174540065079248,0.0
13.82478,0.00174540065079248,0.0
13.82716,0.00174540065079248,0.0
13.829556,0.00174540065079248,0.0
13.831944,0.0017454006507924803,0.0
13.834328,0.0017454006507924803,0.0
13.836724,0.0017454006507924803,0.0
13.839112,0.0017454006507924803,0.0
13.841496,0.0017454006507924803,0.0
13.843892,0.0,0.0
13.84628,0.0,0.0
13.848664,0.0,0.0
13.85106,0.0,0.0
13.853448,0.0005346958372937392,0.0
13.855832,0.002280096488086219,0.0
13.858228,0.004956662698657019,0.0
13.860616,0.007633228909227819,0.0
13.863,0.008167924746521558,0.0
13.865403999999998,0.012846591703509212,0.0
13.867791999999998,0.0147317619811619,0.0
13.870175999999995,0.01568576669903627,0.0
13.872571999999998,0.01677954104377085,0.0
13.874959999999998,0.0168023802018669,0.0
13.877343999999995,0.0168023802018669,0.0
13.879739999999998,0.0168023802018669,0.0
13.882127999999998,0.0168023802018669,0.0
13.884508,0.016917767158580007,0.0
13.886903999999998,0.017265471540770384,0.0
13.889295999999998,0.021709925214411525,0.0
13.891676,0.026246926686669725,0.0
13.89408,0.03287857670396183,0.0
13.896463999999998,0.04118556638570722,0.0
13.898844,0.05275068759774211,0.0
13.901239999999998,0.06275550375621863,0.0
13.903627999999998,0.07368958961660424,0.0
13.906008,0.09062808185837115,0.0
13.908403999999996,0.11194096678744,0.0
13.910792,0.14801083518823255,0.0
13.913172,0.1839843640746695,0.0
13.915568,0.23373648904480868,0.010184479293156903
13.917956,0.29540487897909345,0.019916946723081107
13.920351999999998,0.3665681242505263,0.02954832933950323
13.922748,0.4524411311654396,0.038721230483850046
13.925135999999998,0.5529069692550693,0.047501590108317726
13.927516,0.6617967274952087,0.056407617812969456
13.929911999999998,0.7795297147664381,0.06534562344349215
13.932299999999998,0.9092033496719601,0.0741013241589624
13.934683999999995,1.045905104317259,0.0829377936059828
13.937079999999998,1.1849791509034429,0.09186856694972412
13.939467999999998,1.3333629572295407,0.10074518285625958
13.941844,1.4885425658699383,0.1095563636599861
13.944247999999998,1.6514963642126566,0.11824044384807501
13.946635999999998,1.8177082940856641,0.1269240524891458
13.949019999999996,1.9957458369820693,0.13542109558853685
13.951415999999998,2.1764843287591926,0.14389229723933303
13.953803999999998,2.3543367760583642,0.1523528099590598
13.956184,2.53335460220066,0.16071836302999357
13.958579999999998,2.69798753192357,0.16919733664585432
13.960967999999998,2.864020053772951,0.1775259349849414
13.963348,3.0226523688302183,0.17557866422377663
13.965743999999995,3.1688093404158986,0.17416424325000715
13.968132,3.3078456444631854,0.17279981764092997
13.970512,3.434174287613409,0.17186812282784547
13.972908,3.5465845650530703,0.17133028581773202
13.975296,3.653364419021556,0.170591079219589
13.977676,3.753954771011427,0.169759136811484
13.980072,3.840207448410155,0.16919816401032292
13.982464,3.9229243508827425,0.1684581787464403
13.984844,4.00089477361569,0.16758879968886212
13.98724,4.075189651795637,0.1666218433408121
13.989632,4.141245705422309,0.16572249989731627
13.992012,4.198364086361403,0.16496474775413
13.994408,4.252830636105892,0.16410667844490032
13.996796,4.298499282789666,0.16338006049527876
13.99918,4.343051668316426,0.16259519670483544
14.001576,4.383135217499399,0.1618561682499947
14.003964,4.418470391084863,0.16120299882248906
14.006344,4.462512815790295,0.1602611003365448
14.00874,4.502178951950556,0.1594389401617526
14.011128,4.536909721058205,0.1587613549649912
14.013507999999998,4.578205870912545,0.1578736615737357
14.015908,4.615125732221714,0.15707481474963905
14.018296,4.650834888717385,0.15632392228612849
14.020675999999998,4.68510102297408,0.15557974987128362
14.023072,4.714571559805022,0.15496127156928227
14.02546,4.74138836958349,0.1544035511513719
14.027843999999998,4.770766358615816,0.1537346435265557
14.03024,4.794557354289472,0.15320318849235523
14.032628,4.817696723657069,0.15267584828062014
14.035011999999998,4.832315833359802,0.15235957011663084
14.037408,4.850007978995591,0.15196231101772173
14.039796,4.86811943351196,0.15153123256826564
14.042175999999998,4.882366456162354,0.15120094283187108
14.044591999999998,4.895402773999251,0.15091771969192042
14.046979999999998,4.904434890343314,0.15074089283746916
14.049376,4.914957250754596,0.1504986143430786
14.051772,4.9257591504196,0.15023539176597692
14.05416,4.926550546352517,0.15022717006900027
14.056539999999998,4.927202172658574,0.15023024291060696
14.058936,4.932556848591767,0.1500790258661508
14.061324,4.929903121539292,0.15012473921669997
14.063703999999998,4.928320329673456,0.1501407027415533
14.0661,4.925434285195504,0.15015063232740228
14.068488,4.9225482407175525,0.15016068903978505
14.070867999999995,4.922875001799515,0.15007889457929102
14.073263999999998,4.921479201388781,0.15002453427391532
14.075651999999998,4.924087602470882,0.14987172158519232
14.078048,4.931910909859316,0.14958082831725417
14.080444,4.937871886128193,0.14932815319030213
14.082832,4.945834963143486,0.14902343970393161
14.085212,4.945697089374496,0.14886808139929578
14.087608,4.944116193366529,0.14871738418702043
14.089996,4.942954606239143,0.14853323903107654
14.09238,4.936625334633666,0.1484294095067422
14.094776,4.928061644856296,0.14833868942164155
14.097164,4.91898609839973,0.14823232224774394
14.099543999999998,4.905534263397991,0.14819975082696754
14.101948,4.895062916530691,0.14803740713447713
14.104336,4.88049482037194,0.14792689915156373
14.10672,4.858337630108102,0.1479834692997642
14.109116,4.839021158351842,0.14792067361964928
14.111504,4.821334700289662,0.14777793542831433
14.113884,4.805929882227619,0.14755948281652928
14.11628,4.790292746740097,0.14730109455837956
14.118668,4.772281423453822,0.14706445449795455
14.121047999999998,4.757110818675125,0.14670520830728462
14.123444,4.73542205497798,0.14647757687501908
14.125832,4.709077463481944,0.14633998056153846
14.128211999999998,4.6834317201202085,0.14614257357809066
14.130612,4.662489026385608,0.14578633750914957
14.133,4.645690303770702,0.14531945723707596
14.135379999999998,4.629171120409516,0.14482707082096946
14.137776,4.607856339622578,0.14443689911982127
14.140164,4.591476925888252,0.14392679491693705
14.142547999999998,4.581383353646897,0.14324469327166126
14.144944,4.570358615845763,0.14257976350754115
14.147327999999998,4.55905433879091,0.1419308295928614
14.149724,4.546399587295697,0.14133275514176324
14.15212,4.533325526919903,0.14076429290609285
14.154508,4.522905193596584,0.1401433019414633
14.156892,4.513927882512243,0.13951863461479053
14.159288,4.5066731329205965,0.138869080493117
14.161676,4.49927861370209,0.13823148438827584
14.164056,4.491976642282201,0.1376435256241306
14.166452,4.485326297168369,0.13705779234009718
14.168844,4.47462452873346,0.1366337788061814
14.171224,4.465505552164388,0.13619324424785076
14.173624,4.4530340004085405,0.13585587849598924
14.176012,4.440934535705029,0.1355460947010358
14.178396,4.421990151001107,0.13545873951714674
14.180792,4.404209249282441,0.13539183657332532
14.183184,4.389454161668587,0.13530721484942324
14.185564,4.382008628906099,0.13508520716559722
14.187963999999996,4.373724478382449,0.13493532203997724
14.190351999999995,4.359526573418166,0.13498436581671183
14.192732,4.344350281065862,0.13511885015088837
14.195131999999996,4.341558680244396,0.13498942850699616
14.197523999999998,4.340721958341104,0.13487706215995818
14.199904,4.347194791289178,0.13463236288418773
14.202299999999996,4.358835308715342,0.13431768935410496
14.204684,4.3668437117010095,0.13412689281735868
14.207064,4.372011396179099,0.1340561124628678
14.209464,4.374198592522749,0.13411490676203736
14.211848,4.380250220732373,0.13409130894989757
14.214232,4.386394396740616,0.13412044820733693
14.216628,4.400127666853944,0.1339970964973938
14.219012,4.417166290325805,0.13384089345531708
14.221391999999998,4.441514468649031,0.1335524934188411
14.223796,4.467165899584375,0.13327892442970726
14.226184,4.49761292794547,0.13290267958762314
14.228564,4.528199725933425,0.13251955162549392
14.23096,4.553711387241908,0.13225854098691733
14.233344,4.578291882990613,0.13202356396296075
14.235744,4.602080982806401,0.1317907792814832
14.238139999999998,4.629082888182102,0.13146899425979539
14.240524,4.661439469490997,0.13100746468390626
14.242904,4.684856482254445,0.13076070811132037
14.2453,4.710694904644892,0.13044063034640563
14.247688,4.736533327035338,0.1301324996896883
14.250068,4.756784756067115,0.12992019596157933
14.252471999999996,4.7813199258454455,0.12960009994449492
14.254859999999995,4.806786261183555,0.12926299099969943
14.25724,4.838538438014634,0.12877730047968874
14.259636,4.866146643726021,0.1283903037039266
14.262024,4.896176259064404,0.12793047964482648
14.264404,4.921410276977035,0.12756663292329454
14.2668,4.944642194143251,0.12724771301409005
14.269184,4.968013880936325,0.12692553459085643
14.271583999999995,4.99166510698312,0.12658658214215004
14.273979999999998,5.0147572545224754,0.1262918314699258
14.276367999999998,5.038221489114167,0.1260261812598134
14.278748,5.063548054825416,0.12572548131385552
14.281143999999998,5.088175772402364,0.12547945608426592
14.283531999999996,5.117459317778202,0.12516353020597776
14.285912,5.146044015019741,0.12489935464493315
14.288308,5.170996597820783,0.1247432942428799
14.290696,5.194598706181466,0.12462828596804519
14.29308,5.214708469728514,0.1246073523617616
14.295475999999995,5.229882866222948,0.12467778970087914
14.297864,5.249573320889414,0.12468723892824601
14.300244,5.269635862608219,0.12472422719375727
14.302647999999998,5.289838173953883,0.12475116030441413
14.305032,5.306827679739631,0.12485031737925135
14.307412,5.329032091831713,0.12484395421879833
14.309815999999998,5.350165568737155,0.12486268561081515
14.312203999999998,5.374511851202513,0.12481494216606298
14.314584,5.397415111428895,0.12476437751817701
14.316979999999996,5.4184560405357205,0.12474242100436028
14.319367999999995,5.436563703336351,0.12476908695708377
14.321748,5.454718587965224,0.12474338777084588
14.324147999999996,5.476505587034594,0.12462733005120005
14.326532,5.504066570917737,0.12437994782144633
14.328927999999998,5.530464071815626,0.12411177782461016
14.331324,5.554347615287898,0.12386691731341538
14.333707999999998,5.577859071707833,0.12359695692990796
14.336091999999995,5.6023489155157895,0.1232649619320099
14.338492,5.6284687730178256,0.12287270897678422
14.34088,5.6572895794005795,0.12240294700248665
14.343259999999995,5.687460860223692,0.1218915908589091
14.34566,5.716468658061549,0.12136581039181576
14.348048,5.740448541048178,0.12087541162510566
14.350431999999998,5.762845632168969,0.12039115055529218
14.352828,5.787012506610701,0.11984584397441983
14.355216,5.807175179559599,0.11937189084327592
14.357599999999998,5.825335751762081,0.1189299096037231
14.359996,5.838560956911949,0.11856582676962064
14.362384,5.854719428368013,0.11815993126628217
14.364763999999996,5.869295107958242,0.11776016911835338
14.367168,5.882148226055773,0.11737082014132605
14.369556,5.8917885385933895,0.11704316874251512
14.371935999999998,5.893560217772198,0.11683644523891015
14.37434,5.88811488989826,0.11675432800882211
14.376728,5.882809331651178,0.11666327041592879
14.379112,5.876712377471179,0.11657454889676995
14.381508,5.871965897731541,0.11644845677420489
14.383896,5.866148482805263,0.11634191648847272
14.386276,5.862472938252262,0.11619634105811164
14.388672,5.859216702579841,0.11602574254094157
14.39106,5.858102337280697,0.11581766029240216
14.393444,5.855125640861998,0.1156305335357826
14.395836,5.856153145936132,0.11538448638431142
14.398228,5.86132462212996,0.11507340383729019
14.400607999999998,5.861281192017456,0.11484702843697531
14.403004,5.8615173011586705,0.11460396041529723
14.405392,5.863243654367106,0.11431682084092566
14.407771999999998,5.865249546829261,0.11401101317170662
14.410168,5.863391007425443,0.11375487557429889
14.412556,5.867399000634015,0.11342362446102262
14.414939999999998,5.875550964962283,0.11302629625653549
14.417336,5.88398246854427,0.11260944467525191
14.419724,5.892693511379975,0.11217111925786317
14.422103999999996,5.903546424588958,0.11169375807192278
14.424499999999998,5.914539107424803,0.11120922584754195
14.426887999999998,5.924460855074009,0.1107433465179193
14.429271999999996,5.933032128282855,0.11031483779170285
14.431676,5.941323862237982,0.10990378112385951
14.434068,5.944680229140497,0.1095602440563964
14.436448,5.943752855296457,0.10929130602421053
14.438844,5.937750344772945,0.10909733772658471
14.441232,5.932399460555491,0.1089100187511387
14.443611999999998,5.927979741897815,0.10871338548036888
14.446016,5.919416052120444,0.10858061223456301
14.448404,5.911923297529714,0.10842923466361694
14.450788,5.902428442192565,0.1083053652198997
14.453184,5.896006622788472,0.10813542131719213
14.455572,5.892518069690575,0.10792822395757877
14.457952,5.890379991033036,0.10768554012002776
14.460352,5.879581883083771,0.10754448834137353
14.46274,5.869854710321147,0.10738530541483644
14.46512,5.862129638304938,0.10719881153211791
14.467523999999996,5.858268998154703,0.10696675785968715
14.469908,5.855619062817967,0.10670946886149833
14.472288,5.854831458600787,0.10643527763475531
14.474688,5.855394328823966,0.10612749437240987
14.477076,5.854653946435029,0.10580386172312772
14.479456,5.852470541807117,0.10547242086082616
14.481852,5.854291338672039,0.10508832783638089
14.48424,5.856112135536959,0.10470192244864995
14.486619999999998,5.864218773894852,0.1042215230640566
14.48902,5.873116808185662,0.10374167131924993
14.491408,5.881875072849612,0.10327472519680775
14.493792,5.890773107140422,0.10279854276013875
14.496188,5.905817213297344,0.10224175124859469
14.498572,5.92407412501418,0.10163559400437483
14.500956,5.938978461544242,0.10109272807882774
14.503356,5.9557451291938595,0.10053970965825906
14.505744,5.974094588709312,0.0999886573378305
14.508124,5.995097775277241,0.09941681169286488
14.51052,6.013027925912114,0.09888875305635242
14.512908,6.0309580765469875,0.09836286054302543
14.515287999999998,6.050750558301417,0.09782773682318847
14.517684,6.06840116968257,0.09732603736731231
14.520067999999998,6.079114313264694,0.09689996341706812
14.522451999999998,6.091689787966374,0.09646231364043349
14.524848,6.108921090466946,0.09599057862394268
14.527235999999998,6.128154493713935,0.09549674188734376
14.529619999999998,6.149529767334203,0.09497982779821817
14.532016,6.174117846514383,0.0944191617144453
14.534404,6.1916286882686755,0.09394044213798872
14.5368,6.207184651104795,0.09343745424773295
14.539196,6.2185040950226025,0.09294717353106421
14.541587999999996,6.23010307819413,0.09244125580848471
14.543968,6.2367666943130455,0.09198886665151335
14.546364,6.240497044125767,0.09156449612546058
14.548752,6.239571566139595,0.09117039934817991
14.551132,6.235061195541172,0.09079656629619459
14.553528,6.230690594569609,0.09041632426833932
14.555916,6.228601633598183,0.09000078662931557
14.5583,6.227583607813394,0.08957108862720693
14.560696,6.226565582028607,0.08914189842721261
14.563084,6.2199605628851495,0.08875026146630169
14.565468,6.211493212622136,0.08836893865598247
14.567864,6.209171934225233,0.08791786131862961
14.570252,6.2028464543354955,0.08750695625914252
14.572632,6.188512571460091,0.08717431693706822
14.575032,6.172828214144328,0.08686964251794141
14.57742,6.153931051268649,0.08660539197228055
14.5798,6.132892018019692,0.08636684081097709
14.582203999999996,6.11585718626357,0.08608825234244277
14.584592,6.10198793823912,0.0858154799954171
14.586972,6.090213338759704,0.08556170616541153
14.589368,6.077739891145987,0.08534487743149458
14.591756,6.066989005024967,0.08512366197388263
14.59414,6.0586123067027,0.08490753070326167
14.596536,6.055962371365963,0.08464836126004961
14.598924,6.0484696167752325,0.08447147050494541
14.601304,6.0416284884905584,0.08430445451680493
14.6037,6.029292914645832,0.08421129379159972
14.606088,6.015467096733887,0.0841541460882893
14.608472,6.002153135501139,0.08411364782340122
14.610868,5.991073592440285,0.08408649603969659
14.613256,5.98637243867102,0.08402694061484281
14.615636,5.98325407676759,0.08397140059780783
14.618036,5.982509902662915,0.08392193142329131
14.620424,5.992288088969522,0.08379727284405498
14.622804,6.003928606395685,0.08366201172980342
14.625204,6.013147714194852,0.08356734611378246
14.627592,6.024880779419633,0.0834719475190294
14.629972,6.040058967629807,0.08337186157669667
14.632368,6.055888782146038,0.08328319346266994
14.634756,6.075583028528244,0.08316782946992846
14.63714,6.099561015657002,0.08300389636651578
14.639536,6.123259463532041,0.08285608846338993
14.641924,6.1490997817803565,0.08268607515881327
14.644308,6.180666863014203,0.08248528911411422
14.646704,6.22480562723399,0.08215759719763241
14.649092,6.265871355520722,0.08185934477991202
14.651471999999998,6.313874551606483,0.0815046128326026
14.653872,6.3680238195583545,0.08109749806303297
14.65626,6.426317058629921,0.08065841731492003
14.658639999999998,6.48982520400782,0.08017489180510105
14.66104,6.554264514945497,0.07969845265542023
14.663428,6.6193554521892315,0.07924041194874493
14.665807999999998,6.686588259806244,0.07876434492787672
14.668208,6.752098505930559,0.07830443181920602
14.670596,6.8216129535477075,0.07782400549112295
14.67298,6.896342307471189,0.07729782446818116
14.67538,6.9732135317679464,0.07675897420300239
14.677768,7.049013820878067,0.0762393936042989
14.680148,7.12323131812235,0.0757206918494989
14.682544,7.194515549060439,0.07522591532941375
