Time,Force,Position
14.35898,0.0,0.0
14.361363999999998,0.0,0.0
14.36376,0.0,0.0
14.366148,0.0,0.0
14.368531999999998,0.0,0.0
14.370928,0.0,0.0
14.373316,0.0,0.0
14.375696,0.0,0.0
14.378092,0.0,0.0
14.38048,0.0,0.0
14.38286,0.0,0.0
14.38526,0.0,0.0
14.387644000000002,0.0,0.0
14.390028,0.003256053811021178,0.0
14.392432,0.007303503554960465,0.0
14.394816,0.013353054045316604,0.0
14.397196,0.021684244535810013,0.0
14.399591999999998,0.032017535772720276,0.0
14.401979999999998,0.045423862942685925,0.0
14.40436,0.05869042048579136,0.0
14.406764,0.07288814358867511,0.0
14.409152,0.08201073001208663,0.0
14.411532,0.0929956475550548,0.0
14.413928,0.1059826658444398,0.0
14.416315999999998,0.11882991450696459,0.0
14.4187,0.12874389686329424,0.0
14.421096,0.13679554810006722,0.0
14.42348,0.1479202352698956,0.0
14.425864,0.15811375687994564,0.0
14.428260000000002,0.16616540811671862,0.0
14.430648,0.17114402342043625,0.0
14.433044,0.17719357391079238,0.0
14.43544,0.18110125402787144,0.0
14.437824,0.17784520021685024,0.0
14.440207999999998,0.173797750472911,0.0
14.442604,0.16774819998255486,0.0
14.444992,0.15941700949206145,0.0
14.447372,0.14908371825515118,0.0
14.449768,0.13567739108518553,0.0
14.452156,0.12241083354208014,0.0
14.45454,0.10821311043919636,0.0
14.456936,0.09909052401578484,0.0
14.459324,0.08810560647281669,0.0
14.461704,0.07511858818343167,0.0
14.464099999999998,0.06227133952090686,0.0
14.466487999999998,0.053099453549983876,0.0
14.46888,0.04504780231321088,0.0
14.471284,0.033923115143382504,0.0
14.473672,0.02372959353333246,0.0
14.476052,0.015677942296559468,0.0
14.478448,0.010699326992841858,0.0
14.480836,0.005112333634171932,0.0
14.483216,0.0027381458354176005,0.0
14.48562,0.0045511774074627675,0.0
14.488008,0.0045511774074627675,0.0
14.490388,0.0045511774074627675,0.0
14.492784,0.004551177407462768,0.0
14.495172,0.004551177407462768,0.0
14.497552,0.004551177407462768,0.0
14.499952,0.004551177407462768,0.0
14.502336,0.004551177407462768,0.0
14.504715999999998,0.004551177407462768,0.0
14.507116,0.004551177407462768,0.0
14.5095,0.004551177407462768,0.0
14.511883999999998,0.004551177407462768,0.0
14.51428,0.003809081022056131,0.0
14.516668,0.0038090810220561314,0.0
14.519052,0.0038090810220561314,0.0
14.521448,0.003809081022056132,0.0
14.523836,0.003809081022056132,0.0
14.526216000000002,0.003809081022056132,0.0
14.528616,0.003346523890369915,0.0
14.531004,0.0018130315720451676,0.0
14.533384000000002,0.0,0.0
14.53578,0.0,0.0
14.538172,0.0026969753035803374,0.0
14.540551999999998,0.004742324301102774,0.0
14.542952,0.011583270724377022,0.0
14.54534,0.01935538270742959,0.0
14.547719999999998,0.02605655950384363,0.0
14.550116,0.029824469994062495,0.0
14.552504,0.03559448123069821,0.0
14.5549,0.04001401802697498,0.0
14.557292,0.04531749855478692,0.0
14.55968,0.05187700986647151,0.0
14.562064,0.058202307894809575,0.0
14.56446,0.06601595413249757,0.0
14.566844,0.0730363085793982,0.0
14.569223999999998,0.08485036459418142,0.0
14.571628,0.09889694292298949,0.0
14.574016,0.11848139692435511,0.0
14.576396,0.14527906626273152,0.0
14.578796,0.17980180761731648,0.0
14.581184,0.22456357841372449,0.013921630150255368
14.583564,0.2800762353311531,0.0271947259239934
14.585964,0.340709536759827,0.04054541077973794
14.588352,0.41525930804119415,0.05320009311698934
14.590732,0.4984180950703048,0.06532637969398002
14.593128,0.5952610345266316,0.07691413650403092
14.595516,0.7117944286494247,0.08777683108398532
14.597896,0.8508117741180193,0.09805308970845797
14.600292,0.999509070520996,0.10830250246627127
14.60268,1.1678042737918222,0.11814843177833667
14.605076,1.3489469075865723,0.12782952083494467
14.607472,1.5426121066811518,0.1372952447708753
14.609856,1.7505696543965008,0.146545284424401
14.61224,1.970585132560724,0.15559425353505787
14.614636,2.2042885548679023,0.164465260109341
14.61702,2.4419961786679143,0.17324728648835472
14.619404,2.682824060229225,0.1820155263761329
14.6218,2.9201614928347683,0.19082846491075978
14.624188,3.158666200141306,0.1994387670795191
14.626572,3.393030728043888,0.20797384673158056
14.628964,3.6170164568777867,0.20259809317159883
14.631352,3.8334641051505804,0.19777570050006377
14.633748,4.047448809541743,0.19272199681363514
14.636144000000002,4.247377274453353,0.18837378673605434
14.638528,4.43245810395249,0.1845626765790035
14.640912,4.603342924345214,0.18125883394906186
14.643308,4.753885663765414,0.17870962094899198
14.645696,4.884226091839947,0.17674599041902375
14.648076,5.004234942674041,0.17475776549208052
14.650472,5.106136130707505,0.1731625971998464
14.652856,5.1959359581795885,0.17166074087925143
14.65524,5.268232527328857,0.17045326352026902
14.657636,5.329683766700619,0.16937095094355326
14.660024,5.377588727414156,0.16848970890970638
14.66242,5.411947409469466,0.1677852367289625
14.664815999999998,5.441372620330036,0.1670825030658571
14.667204000000002,5.468657856675197,0.16630713544513726
14.669584,5.497108471863482,0.16540259462117043
14.67198,5.516107661827125,0.16472863621047582
14.674368,5.532732663992014,0.1640920980936005
14.676752,5.552850010970538,0.1633526219179744
14.679148,5.56803199089645,0.1627336458254088
14.681532,5.575996963769611,0.1623038631583708
14.683916,5.586243576642909,0.1618076591989093
14.686312,5.598352520635763,0.1612734985110838
14.6887,5.607248659068702,0.16082347456327475
14.691084,5.619357603061557,0.1602869506153129
14.69348,5.629464446307996,0.15979446118497118
14.695868,5.6387798936215185,0.15931392215237689
14.698252,5.644230909069067,0.1589153941107973
14.700648,5.647260514889617,0.15859653161547105
14.703036,5.6581587540689755,0.15809715437742483
14.70542,5.662399064703026,0.15773966177338591
14.707816,5.666127518657876,0.1573701411649824
14.710204,5.670507598918786,0.15700181323984966
14.712588,5.667019045820889,0.15681406624076505
14.714984,5.660457456789937,0.15670253750271884
14.717372,5.6526851629454855,0.15662857418520582
14.719752,5.645052638727893,0.15654496167733034
14.722148,5.634347078577247,0.1565361170930344
14.72454,5.619497547306906,0.15662781530294043
14.72692,5.605718951223204,0.15669234401311385
14.72932,5.594361764766498,0.15668033327575104
14.731704,5.581933643123154,0.15669456161991013
14.734088,5.568434586293176,0.1567360265896083
14.736484,5.5601504357695255,0.1566474371511039
14.738872,5.548513710059099,0.15665209159346458
14.741256,5.5439542217745625,0.15649143750311828
14.743652,5.537113093489889,0.15639561811594818
14.74604,5.53441593632491,0.15619811598227595
14.748424,5.5329294839734295,0.15596246888423296
14.75082,5.526787203823058,0.15581585743164622
14.753208,5.525300751471578,0.1555805340715131
14.755603999999998,5.524465925426154,0.1553473062947384
14.758,5.521117141955118,0.1551463176910003
14.760388,5.524473508857632,0.15475764056305627
14.762768,5.527969645387007,0.15435940614414578
14.765168,5.527880889304128,0.154022353535481
14.767556,5.529422146915327,0.15361746220334363
14.769936,5.531242943780249,0.15318972165091382
14.772336,5.534274445458669,0.15272378308778525
14.774724,5.538376882323727,0.15222998114925806
14.777104,5.541128844748428,0.1517841743793831
14.779504,5.543741037546267,0.15134924093360289
14.781892,5.546492999970966,0.15090338511165866
14.784272,5.547522400902969,0.15048528073388023
14.786672,5.549902276275333,0.15001782010337633
14.789056,5.544273748662028,0.14972954659290227
14.791436,5.540926861048859,0.1493758852519757
14.79384,5.53757997343569,0.1490223974615871
14.796228,5.533162150635884,0.1486956518140957
14.798608000000002,5.529675493395855,0.14835147184609643
14.801004,5.524326505036269,0.14804129119331894
14.803392,5.518186120743767,0.14773767949286498
14.805772,5.5159101683172365,0.14735545290150084
14.808167999999998,5.513075137383266,0.14701537962806588
14.810555999999998,5.511311041635935,0.14664975411282724
14.812936,5.51140927700816,0.14625037884153191
14.815332,5.513881700179139,0.1458345246476183
14.81772,5.520218555216092,0.14534551964003228
14.820116,5.523482374319989,0.14492233050808845
14.822512,5.528328985289723,0.14448890823249882
14.8249,5.534246531446095,0.14402957192426322
14.827279999999998,5.541095243162245,0.1435562310704658
14.829676,5.551668617117509,0.14302388946578748
14.832064,5.561403373311611,0.14255026719632186
14.834444,5.573791856558188,0.14204252702310596
14.83684,5.58883406685724,0.1414919761140184
14.839228,5.603177429021991,0.14099071304807664
14.841608,5.617892878239079,0.14051430649152505
14.844008,5.634191119322004,0.14002693523872314
14.846392000000002,5.648859346710848,0.13960215475610788
14.848776,5.664830826711809,0.13918484167815898
14.851171999999998,5.6833162641383845,0.138742414505693
14.853556,5.703896350109993,0.13830851633752173
14.855956,5.722986192014383,0.13793098823993605
14.858352,5.74230835134425,0.13758914344593257
14.86074,5.7638649288460115,0.13724365376739442
14.86312,5.783931262280555,0.13695485997723805
14.865516,5.808234114633408,0.1366329256177923
14.867904,5.83891535627785,0.13622403512994838
14.870288,5.869456828295432,0.13583007058729832
14.872692,5.901441322551988,0.13543871756422687
14.875076,5.930864637554688,0.13511870122914188
14.877456,5.955584902930252,0.13491691888596416
14.879852,5.980305168305816,0.13471430894674913
14.88224,6.003674959241021,0.1345546304131559
14.884624,6.031700577975119,0.13433064196966923
14.88702,6.061588527828774,0.13408108414970352
14.889404,6.09161624730929,0.1338243776918649
14.891787999999998,6.119502096416525,0.13361067283648376
14.894184,6.150321211829958,0.13334802480314406
14.896572,6.182351032056889,0.13305700142458973
14.898952,6.2143808522838215,0.13277047990820454
14.901348,6.241894614338721,0.13254190726145856
14.90374,6.27061908120712,0.13228526567983911
14.90612,6.300414483262157,0.1320109356119341
14.908516,6.327556158264719,0.13176774873935196
14.910904,6.353115041401446,0.13153388676743671
14.9133,6.370945060806225,0.1314200846047212
14.915696,6.387564375397504,0.1313379342063773
14.918084,6.4021815892423675,0.13128879711109454
14.920464,6.41786973827387,0.13122112025746557
14.92286,6.437981397678785,0.13106593298848618
14.925248,6.4637272722706145,0.13079663802467492
14.927632,6.493756887608997,0.13045271217032148
14.930028,6.526068142947518,0.1300663097181839
14.932416,6.557867541606842,0.12967667777944925
14.934796,6.589294853213828,0.129271086363086
14.937192,6.620210308141615,0.12885564845561467
14.93958,6.6554095038159575,0.1283671423678737
14.941964,6.693030109117297,0.12783462686997313
14.94436,6.7310700232992176,0.12728610893369746
14.946752,6.768318541548219,0.12674516211431486
14.949132,6.811852901290193,0.12611046777990076
14.951528,6.853664699539469,0.12549273227883428
14.953916,6.890029274056936,0.12492936102120193
14.956295999999998,6.930817358947818,0.12429438985785872
14.9587,6.973747314211975,0.123628182565755
14.961088,7.017236347983575,0.12292909056157013
14.963468,7.056768402090585,0.12224610332222881
14.965876000000002,7.096859534705034,0.12153451361820157
14.968264,7.133505544334091,0.12085276521981085
14.970644,7.165495726164256,0.12022460277574866
14.97304,7.1917591450088905,0.1196678742310229
14.975428,7.2120162616142744,0.11919490529539448
14.977812,7.22561544967435,0.11879731854090378
14.980208,7.232277169935396,0.11848941761539522
14.982596,7.237867955009806,0.11819952308781724
14.984976,7.244250136017133,0.11790835575719692
14.987372,7.245976489225567,0.11766541833503037
14.98976,7.241976079448472,0.11748671066364702
14.99214,7.2330403026187655,0.11736872712508202
14.994536,7.218517532430387,0.11730684837111566
14.996924,7.1944035673905065,0.1173519157590532
14.999304,7.16749610567129,0.11742581544129012
15.001704,7.144220758392571,0.117427691284826
15.004092,7.113216547381904,0.11751728816809584
15.006472,7.078487674132123,0.11764277375090651
15.008868,7.044969505695843,0.11774290190256193
15.011256,7.014244833938896,0.11781377257650746
15.013652,6.982728766249031,0.117884801320963
15.016048,6.949629906693332,0.11795975529553053
15.018436,6.918672917510909,0.11800083997195072
15.02082,6.888926633141984,0.11801767583802643
15.023216,6.860018966534221,0.11799065183794108
15.025604,6.831251069553318,0.11795818876763639
15.027984,6.807837848505608,0.11784157711900797
15.030384000000002,6.780560195591924,0.11777004242589183
15.032768,6.751699750812404,0.1177007418784052
15.035152,6.724050010846382,0.11760635791397417
15.037548,6.695608874947442,0.11751378926563563
15.039936,6.6705203142352785,0.11736206311241049
15.04232,6.651577825389224,0.1171227037326738
15.044716,6.637570703595783,0.11681944554501526
15.047104,6.626124761056199,0.11645773997645983
15.049484,6.610395077770064,0.1161626993644507
15.051884,6.59894913523048,0.11579735520419852
15.054272,6.5871311056385595,0.11540874447797296
15.056652,6.572799118621025,0.11503165008943562
15.059048,6.556232713431596,0.11465100426850584
15.061436,6.539806077869027,0.11426110237436994
15.063816,6.5275234134261515,0.11380945633945393
15.066216,6.515380518610136,0.11334979366337442
15.068604,6.5041687893538995,0.11288024122143593
15.070984,6.494400082336638,0.1124141378498696
15.07338,6.490777447185487,0.11186278222435701
15.075768,6.48515271128792,0.11133735863737894
15.078164,6.485813816883324,0.11072024838526193
15.080559999999998,6.486474922478728,0.11010248033707361
15.082947999999998,6.487275797700993,0.10947663962994802
15.085332,6.494222744789368,0.10877057673960597
15.087727999999998,6.498096655944687,0.10810385532950281
15.090115999999998,6.497966365607174,0.1074857266687978
15.0925,6.493831873776827,0.10691405160936442
15.0949,6.489278073065899,0.10636419316030382
15.097283999999998,6.489659639407582,0.10575513051136803
15.099668,6.484826299442932,0.10521554083543051
15.102064,6.4822273776501795,0.1046794707298672
15.104451999999998,6.479860773282901,0.10417013740106432
15.106836,6.477866255967961,0.10368177598171793
15.10924,6.474381494585803,0.10323102808858578
15.111624,6.468987180255844,0.10284317285814235
15.114004,6.4671777585381385,0.10243271475335988
15.1164,6.464297401633794,0.10203774442982727
15.118788,6.462348210289228,0.10163569987753628
15.121168,6.458908774877442,0.10127345646389531
15.123572,6.457843527264412,0.10091119426373016
15.12596,6.454356870024385,0.10059508277014714
15.12834,6.453523939836831,0.1002646651233603
15.13074,6.45627590226153,0.09991390427744111
15.133124,6.453393649499317,0.09965116683590687
15.135508000000002,6.455027454909134,0.09935980602892185
15.137904,6.461317088117842,0.09903304529440933
15.140292,6.473333484312083,0.09865616168096121
15.142672,6.488003607558796,0.09826721110461759
15.145067999999998,6.504396292298207,0.09787620619266692
15.147455999999998,6.5301006326354,0.0974179673904716
15.149836,6.556596368905512,0.09696211955370473
15.152235999999998,6.588679098534294,0.09646839429306006
15.154623999999998,6.619923210401914,0.09601560612615498
15.157004,6.654752214881789,0.09554330560916606
15.159400000000002,6.689581219361663,0.09507100509217713
15.161788,6.716773907908206,0.09470409355255767
15.164168,6.744338683507088,0.09435898635800638
15.166572,6.770413215038751,0.09405055232343483
15.168959999999998,6.794206106570276,0.09377714160605499
15.17134,6.816136666982246,0.09351876464038984
15.17374,6.83978978888691,0.09325639478792172
15.176124000000002,6.863954767470773,0.09301243529539518
15.178508,6.884347861987279,0.09283815440347866
15.180903999999998,6.909536553929537,0.09262608233760096
15.183288,6.936447807364491,0.09241251358684682
15.185668,6.9678751189714765,0.09218201173084323
15.188068,6.997951956138103,0.09198038143667685
15.190452,7.028028793304729,0.09178212026259897
15.192848,7.055823990471219,0.09161815130721779
15.195248,7.08268802207793,0.09146473202650063
15.197636,7.111554154431058,0.09129635535690404
15.200016000000002,7.140699826037906,0.09111973739195507
15.20242,7.171475511338834,0.09090497912140419
15.204804,7.2025307358934825,0.0906800679217545
15.207188,7.236798766008047,0.09042298166144852
15.209584,7.275769845749744,0.09009884644729427
15.211972,7.318093500678217,0.08973658929751809
15.214352000000002,7.360836464487273,0.08935573724678558
15.216748,7.40879433460266,0.08892706071638745
15.219136,7.457031743971768,0.08848772297144926
15.221516,7.5034068222213195,0.08806130047728959
15.223916,7.546336777485476,0.08764512704658722
15.226304,7.589965580883936,0.08719721112452335
15.228687999999998,7.629869722043283,0.08677187612405685
15.231084,7.665257805030597,0.08636854789120157
15.233472,7.691194462793267,0.08602365763730677
15.235855999999998,7.722625566115991,0.08562455445651021
15.238248,7.751914799065439,0.08524888358354514
15.240636,7.781623340895467,0.08485727891252078
15.24302,7.806536285299742,0.08449727074244807
15.245416,7.826793401905126,0.08416135025675149
15.247804,7.840113050711482,0.08387563753861633
15.250184,7.85850783619731,0.08355366035475802
15.252584,7.876250995377081,0.08322683657638848
15.254972,7.892271593064154,0.082905786444449
15.257352,7.909363125937867,0.08257746756640603
15.259752,7.923521392505384,0.08226929260498225
15.26214,7.939541990192456,0.08195466381028176
15.264524000000002,7.951837925640415,0.08165838351416228
15.26692,7.964925257021294,0.08136503063994062
15.269308,7.97894375396195,0.08106854767679743
15.271688,7.994964351649023,0.08075959328754695
15.274083999999998,8.011264488589818,0.0804403525278012
15.276471999999998,8.030637661463667,0.08009985172096133
15.278852,8.049079668777736,0.07976238752180827
15.281252,8.071665647211503,0.0793932053429703
15.283639999999998,8.085172287472961,0.07908772346005079
15.286036,8.097235905495443,0.07877220831976249
15.288432,8.108228588331288,0.07846695774382702
15.29082,8.119361040793992,0.07815568556614283
15.293204,8.133147220309171,0.07783939146556167
15.2956,8.151077370944044,0.077491686674242
15.297988,8.163792615272584,0.07718703441109308
15.300372,8.175297154787625,0.07689812779392728
15.302768,8.182517953556113,0.07664474377454453
15.305156,8.186665716391547,0.0764133096430469
15.30754,8.188671608853703,0.07619920300290585
15.309936,8.187884004636523,0.07599543552244221
15.312328,8.186956630792482,0.07579733931954427
15.314708,8.185237861015526,0.07559731537384894
15.317104,8.181936299372731,0.07539276257732647
15.319496,8.177563802543297,0.0751971238374529
15.321876,8.17584503276634,0.07499834433211097
15.324276,8.171332766310048,0.07480901333537736
15.326664,8.169753766159948,0.07460505195193921
15.329044,8.167103830823214,0.07440984685177
15.33144,8.165105521792537,0.0742214785276124
15.333828,8.164829774254553,0.07403230351753
15.336212,8.163762630783653,0.07384056242831027
15.338608,8.161904091379835,0.07364577555528465
15.341,8.158462760110183,0.07344597483807969
15.34338,8.155161198467386,0.0732412626053966
15.345776,8.150137075331898,0.07303637865992842
15.348164,8.144181786636628,0.07283409489667073
15.350548,8.14451233943433,0.07258802593877914
15.352944,8.144051496299113,0.07233866783827092
15.355332,8.147082997977533,0.07205387208269648
15.357716,8.151325204469453,0.07175560162124692
15.360112,8.151842748722258,0.07146704220218558
15.362504,8.149287257042007,0.07119668321334478
15.364884,8.14580059980198,0.07092826128003782
15.367284,8.137518345136199,0.07067729342836018
15.369672,8.121367457111612,0.07046359367421111
15.372052,8.105076799460164,0.07025463992515286
15.374456,8.084921709942742,0.07006092232247682
15.37684,8.05969148374585,0.06989585704053838
15.37922,8.034368709750341,0.0696988776986402
15.381624,8.006671747956075,0.06949152179024741
15.384011999999998,7.972316857616503,0.06930593209448267
15.386392,7.931583577985341,0.06913039949631465
15.388787999999998,7.883820282756535,0.06895546068771191
15.391176000000002,7.821018568944414,0.06882616396591451
15.393556,7.749464278041951,0.0686972006565307
15.39596,7.665572517436892,0.06857282350204809
15.398348,7.565059546382685,0.06848621896788179
15.400728,7.452860731931939,0.06841416649188398
15.403123999999998,7.327253512591959,0.06834864282922185
15.405512000000002,7.188237888362747,0.06829114149481699
