Time,Force,Position
15.241364,0.0,0.0
15.243752,0.0,0.0
15.246148,0.0,0.0
15.248544,0.0,0.0
15.250936,0.0,0.0
15.253316,0.0,0.0
15.255712,0.0,0.0
15.2581,0.0,0.0
15.26048,0.0,0.0
15.262876,0.0,0.0
15.265264,0.0,0.0
15.267644,0.0,0.0
15.27004,0.0,0.0
15.272428,0.0,0.0
15.274807999999998,0.0,0.0
15.277208,0.0,0.0
15.279596,0.0,0.0
15.281975999999998,0.0,0.0
15.284372,0.0018852534031094978,0.0
15.28676,0.004701672365997316,0.0
15.289156,0.008449256888663454,0.0
15.291552,0.014478481411466865,0.0
15.29394,0.016503504441436577,0.0
15.29632,0.018808066725126703,0.0
15.298716,0.023394269008954107,0.0
15.301104,0.027189075359863396,0.0
15.303488,0.03191504727055101,0.0
15.305884,0.034778688061681974,0.0
15.308272,0.03964442959922979,0.0
15.310652,0.044649940763637826,0.0
15.313048,0.04951568230118565,0.0
15.315436,0.05237932309231662,0.0
15.31782,0.0553827335103078,0.0
15.320216,0.0553827335103078,0.0
15.322604,0.0553827335103078,0.0
15.324984,0.0553827335103078,0.0
15.327384,0.0553827335103078,0.0
15.329772,0.0553827335103078,0.0
15.332152,0.053497480107198306,0.0
15.334548,0.050681061144310494,0.0
15.336936,0.04693347662164435,0.0
15.339332,0.04090425209884094,0.0
15.341728000000002,0.03887922906887123,0.0
15.344116,0.0365746667851811,0.0
15.3465,0.0319884645013537,0.0
15.348896000000002,0.02819365815044441,0.0
15.351284,0.0234676862397568,0.0
15.353664,0.02060404544862583,0.0
15.35606,0.015738303911078007,0.0
15.358448,0.010732792746669974,0.0
15.360828,0.005867051209122152,0.0
15.363228,0.003003410417991181,0.0
15.365612,0.0,0.0
15.367996,0.0,0.0
15.370392,0.0,0.0
15.37278,0.0,0.0
15.37516,0.0,0.0
15.37756,0.0,0.0
15.379948,0.0,0.0
15.382328,0.0,0.0
15.384724,0.0,0.0
15.387112,0.0,0.0
15.389496,0.0,0.0
15.391892,0.0,0.0
15.39428,0.0,0.0
15.396664,0.0,0.0
15.39906,0.0,0.0
15.401452,0.0,0.0
15.403832,0.0,0.0
15.406228,0.0,0.0
15.408616,0.0,0.0
15.411,0.0,0.0
15.413396,2.2922283552856944e-05,0.0
15.415788,0.00018561419396592548,0.0
15.418168,0.0012794716641573137,0.0
15.420564,0.004375429880765554,0.0
15.422956,0.009473488843790644,0.0
15.425336,0.015502713366594055,0.0
15.427732,0.022602873076035996,0.0
15.430124,0.03291583834539353,0.0
15.432508,0.04294926436103064,0.0
15.434904,0.0549847911230846,0.0
15.437292,0.06674077863141815,0.0
15.439676,0.07765814837859043,0.0
15.442072,0.08559502999132439,0.0
15.444464000000002,0.09534702089537184,0.0
15.446844,0.10621527295643172,0.0
15.449243999999998,0.11740839024158595,0.0
15.451636,0.1326510349899478,0.0
15.454020000000002,0.15566786944063046,0.0
15.456411999999998,0.18045259135438357,0.0
15.458796,0.20686543110434671,0.0
15.461176,0.2408897686462178,0.0
15.46358,0.2764024543974387,0.0
15.465964,0.31475396279836854,0.0
15.468344,0.35245194903537114,0.0
15.470752,0.388984556429249,0.010669563490004646
15.473135999999998,0.42542272016664046,0.021849950970606928
15.475516,0.46735343360621556,0.03239660913131852
15.477912000000002,0.5098413296953623,0.04286467540669431
15.480300000000002,0.5583808539941336,0.05295621473483107
15.48268,0.6065463953826982,0.06334894954694659
15.485076,0.6590410034881906,0.07358772441875103
15.48746,0.7157721305119941,0.08370458837937263
15.489856,0.7793009557079662,0.09358076269910533
15.492252,0.8441802553442973,0.10324928806405026
15.49464,0.9116679560627292,0.11257221026686628
15.49702,0.9816242882364018,0.12165674998363475
15.499412,1.0492536544395632,0.13062696871561072
15.5018,1.1031025287011533,0.1401905088642071
15.504196,1.1550437458728124,0.14979374090480688
15.506592,1.2064277803949004,0.15927151594127328
15.50898,1.2491064596548889,0.16887474798187307
15.511360000000002,1.2910881866384458,0.17839158461282176
15.51376,1.335306227651766,0.1873240651278303
15.516144,1.3812487260156519,0.19597790498618975
15.518528000000002,1.4291479991555804,0.19376698935180042
15.520932,1.4779331118849135,0.19095324268487973
15.523316,1.5182924086058678,0.18889757337777843
15.525696000000002,1.5544624082367544,0.18701812862680703
15.5281,1.584860318911737,0.18551521082307468
15.530484,1.6134903421236493,0.18374384658337253
15.532864000000002,1.6419352697383274,0.1818449456460955
15.53526,1.668844627315412,0.17995093050668323
15.537648,1.6947302715341017,0.17813046242623246
15.540028,1.718893354260095,0.17649707042485324
15.542432,1.7378415306797559,0.17537963560233585
15.544816,1.756370398218836,0.17442377310504237
15.547196,1.7758304313176942,0.17345359504669283
15.5496,1.805161198521777,0.17166699597381896
15.551988,1.838356397591833,0.1696584420446544
15.554367999999998,1.8722032229679468,0.1677134730059734
15.556764,1.9068414442769788,0.16569264214214202
15.559152,1.9434817663324275,0.16360727623460006
15.561532,1.9706234413349897,0.1623571379671499
15.563928,1.9953437067105544,0.16139142175596521
15.566316,2.017270475406784,0.16062089754752462
15.568696,2.037614452237178,0.15991743988578172
15.571091999999998,2.059541220933408,0.15913957780518925
15.573480000000002,2.0849603344432737,0.15808556057744722
15.575876,2.1082375775798625,0.15716597406631863
15.578272,2.1317943599701716,0.15618889737346853
15.58066,2.150555544934729,0.15553714708611585
15.58304,2.166523233219951,0.15504699020165108
15.585444,2.1746222881463666,0.15503886967382965
15.587832,2.1795557593411092,0.15512543705712706
15.590212,2.1850483090432933,0.15509349710306525
15.592608,2.1844420087076086,0.15535550003711318
15.594996,2.180390585386532,0.15577359827039616
15.59738,2.1724747301994816,0.15641479610158307
15.599776,2.1606944431464576,0.1572676565339207
15.602164,2.1461206594140987,0.15827018651813599
15.604544,2.1330371197489595,0.15910592424827702
15.60694,2.1178117097105424,0.16006513367839317
15.609328,2.1072893492992604,0.16066036071527812
15.611712,2.095463736275863,0.16124723175297767
15.614108,2.0824274184389666,0.16194793087838852
15.616496,2.070042726908128,0.16264638427948985
15.618875999999998,2.059799905750566,0.16318501258731496
15.62128,2.045552883100171,0.16395659324866346
15.623668,2.036380997129248,0.16440578506537196
15.626048,2.032004708584077,0.1645805007438024
15.628444,2.026557484852267,0.16483304734419643
15.630832,2.0220414266802362,0.16504102565502063
15.633212,2.028467037800067,0.16460692905789498
15.635608,2.0407591815322887,0.1638595839026913
15.637996,2.057055526757344,0.16289766107990877
15.640376000000002,2.0800098005277077,0.1615861473854266
15.642772,2.1029640742980713,0.16026087344185694
15.64516,2.1257785784415746,0.15895789661670673
15.647544000000002,2.1502230962791575,0.15750148277861364
15.64994,2.174807383743601,0.15599242781305375
15.652328,2.198180966394545,0.1546005699225851
15.654724,2.2187610523661543,0.15333069536407157
15.65712,2.2392013687109036,0.15211510574483578
15.659508,2.261224476921489,0.1508663920764023
15.661888,2.284598059572433,0.1494817575527793
15.664284,2.306388850357541,0.14813754367156878
15.666672,2.325525914090175,0.1469166199399024
15.669052,2.34359204263617,0.14573702187508428
15.671448,2.3579335089430513,0.14475984539045508
15.673836,2.3624042411447093,0.14432633533103167
15.67622,2.3687373044659226,0.14379556294056434
15.678616,2.3761413029737755,0.1431994434341287
15.681004,2.3740938762569845,0.1430733530580534
15.683383999999998,2.363758507300806,0.14344397156232602
15.68578,2.347277066478516,0.14417728921458467
15.688168,2.3310751649099477,0.14481672091470568
15.690564,2.318458155953632,0.1453056172209076
15.69296,2.306120686251037,0.14574676160103298
15.695344,2.288288770988389,0.14654814041770606
15.697728,2.2713880212855186,0.14731436292361813
15.700124,2.2526249404630923,0.1481782251327226
15.702512,2.235072564454164,0.14897011463988266
15.704892,2.213515986952402,0.15000455955971567
15.707288,2.187163812024888,0.1513272146490573
15.709676,2.161742802657153,0.15258462584206384
15.712052000000002,2.1371131892223363,0.1538288026122034
15.714456,2.1112728709740205,0.1552056252826018
15.716844,2.0885055886587605,0.15639784479319446
15.719224,2.0676006374630567,0.15748872499717254
15.72162,2.0527019885066036,0.15825018703734087
15.724008,2.0382226484307306,0.15892905922717948
15.726404,2.0214616683547217,0.15978685595138645
15.7288,2.0072146457043263,0.16058822203268344
15.731188,2.00004486047982,0.1609358705682103
15.733568,1.9987416078677045,0.1609265276307939
15.735968000000002,1.9931546145090346,0.16122308229564586
15.738356,1.9846343548441696,0.1616847360605811
15.740736,1.976905491112223,0.1621198122430236
15.743132,1.97918713111236,0.16194753379010668
15.74552,1.9836106414857744,0.16163536335717843
15.7479,1.9917588140983018,0.16114031408169446
15.7503,2.0036316489499426,0.1604761729182308
15.752688,2.020439850854195,0.15952694325834454
15.755072,2.046839247609952,0.15808493285224198
15.757468,2.0701656084326525,0.1568227500513784
15.759856,2.0972166314944674,0.15542170820832615
15.762236,2.1281320864222555,0.1538082783929505
15.764640000000002,2.157697066909684,0.15232622718987987
15.767028000000002,2.1861911122104747,0.1509310518412616
15.769408,2.2164077190039615,0.1495238229560263
15.771804,2.2482071176632847,0.14811242640644212
15.774192,2.284290257069162,0.1464575832173099
15.776572,2.32623992908743,0.14455677352648844
15.778968,2.3649767955457817,0.14289001516945563
15.78136,2.399057834205242,0.14143568420866054
15.78374,2.4331388728647028,0.13994957235100403
15.786136,2.4654973500314665,0.13849327996318733
15.788524,2.494922560892035,0.13716897784410265
15.790904,2.514057728766799,0.1364255732092862
15.7933,2.530911256641426,0.13584324491895788
15.795688,2.545762683769636,0.1353673871721668
15.798068,2.557820614218511,0.13501683803255732
15.800472,2.566945278361191,0.1348011429144359
15.80286,2.5704829491452013,0.13480433776820688
15.80524,2.578164591048905,0.13460708183191597
15.807636,2.5816097140342977,0.13451812299928917
15.810024,2.582261340340356,0.13452783490032433
15.812404,2.58654508108691,0.13431753501376345
15.814808,2.590828821833464,0.13410723512720257
15.817196,2.5904567347811263,0.13405575487462232
15.81958,2.5903641869825087,0.13396416552918117
15.821976,2.587478142504557,0.1339619493558032
15.824364,2.583009306160769,0.13397306590398192
15.826744,2.5792393179512816,0.1338877686379325
15.82914,2.579473531234629,0.13365466359514092
15.831528,2.581849614891252,0.13332867000378176
15.833912,2.5882299000407096,0.13285645090387382
15.836308,2.6007562570562777,0.13215366461604755
15.838696,2.6215705563112337,0.13111617481718563
15.841092000000002,2.6414536900064114,0.1300967654469686
15.843488,2.6626872981419476,0.1289996984330343
15.845876,2.684572532583542,0.12791936056909894
15.848256,2.708459867771553,0.1267672285109449
15.850651999999998,2.7334181381462024,0.1255820037973121
15.853036,2.758236638893992,0.12444754713980857
15.855416,2.7823562915074804,0.123396943443144
15.857812,2.8115510808004416,0.12218571337804898
15.8602,2.836462129346848,0.12117125543628988
15.862584,2.8615129475201146,0.12014064438824519
15.86498,2.8873551616263,0.11908391509370875
15.867364,2.911195274986068,0.118113385106546
15.86976,2.933824683532338,0.1172029981335708
15.872164,2.9503080202124963,0.11651598408830409
15.874552,2.967582752825573,0.115833745369484
15.876931999999998,2.9839263198788712,0.11519103711322522
15.879328,2.999478490999252,0.11456070611934831
15.881711999999998,3.0118178565597167,0.1140545283110504
15.884096,3.0192218550675687,0.11370226491592274
15.886492,3.0191765290971952,0.1135225004160376
15.888876000000002,3.0244858790600135,0.11315701845143022
15.891256,3.0277931282764152,0.11285076379216435
15.893656000000002,3.0307282904404795,0.11249969787112765
15.896044000000002,3.0340827614851245,0.1121032478333732
15.898424,3.033293261410076,0.11183355031451098
15.90082,3.028779099095914,0.11164286291446653
15.903208,3.027897051222247,0.1112947521836002
15.905604,3.024221506669247,0.11100792093829655
15.908,3.022687832489522,0.11065196288518375
15.910388,3.0231562590562153,0.1102462111789908
15.912768000000002,3.026185864876766,0.10972585329129093
15.915164,3.0270736003240404,0.10927021483904872
15.917552,3.0310343717043686,0.10873098995864083
15.919936000000002,3.039139114204392,0.10806796242240936
15.922332,3.0451019863311384,0.10747441532654864
15.92472,3.0499939232712454,0.10691833522757699
15.9271,3.0513935153977165,0.10649034158057842
15.929496,3.055214517151186,0.10596284724249415
15.931883999999998,3.0610376196510716,0.10538508269257651
15.934268,3.0733788810694054,0.1046832578049688
15.936664,3.0806450058082677,0.10412777106651021
15.939051999999998,3.091123936107045,0.10348015843850988
15.941436,3.1003921615923233,0.10288130391184623
15.943832,3.106959438196884,0.102410673018478
15.94622,3.1167395203613597,0.10183766760718076
15.9486,3.1285217032722525,0.10121285546797949
15.951,3.136020145436591,0.1007211749949935
15.953384000000002,3.1363015805481815,0.10041944746856267
15.955768,3.1304369437936606,0.10028301475119568
15.958163999999998,3.1207078751731654,0.10023075429722215
15.960552000000002,3.111350893605009,0.10022269764844928
15.962948,3.1064174224102654,0.10006760228462598
15.965344,3.0994818504691066,0.09996033857486616
15.967732,3.0896130122217516,0.09991608420802006
15.970116,3.08402791472095,0.09974415992485876
15.972512,3.078582586847009,0.09955603869725489
15.974896,3.078631704533122,0.09919610817651432
15.977276000000002,3.0794722181521523,0.09884063399684202
15.979684,3.0772396958381276,0.098560278608167
15.982068,3.070071806471491,0.0983852913237759
15.984448,3.0598308811717994,0.0982863682711051
15.986848,3.0460976110584705,0.09830856218890946
15.989232,3.0330159672512,0.09834758117029409
15.991616,3.024357833817344,0.09824760638796995
15.994012,3.0167706355701274,0.09811577305922525
15.9964,3.008624358815469,0.09804528740049478
15.998780000000002,3.0052736794865624,0.09788722505466563
16.001176,3.0128646694495185,0.09749367402210156
16.003563999999997,3.0275328968383635,0.09692999922486199
16.005944,3.044854851279683,0.09633572631009284
16.008344,3.0596628482953885,0.0957595483541776
16.010731999999997,3.069255939004761,0.09531937126072984
16.013112,3.0799199649007725,0.09485340539537017
16.015507999999997,3.096170984155454,0.09430856765666906
16.017896,3.1090694282233593,0.09387564873600289
16.02028,3.1227592682241827,0.09344857929610532
16.022675999999997,3.1364491082250066,0.09303358478399912
16.025064,3.149207782666052,0.09263922004614022
16.027459999999998,3.1656911193462105,0.09219557901403352
16.029856000000002,3.1860388878923427,0.09168904456890052
16.032244,3.214534829051002,0.09101478304243313
16.034624,3.2461038061427177,0.09027728581227085
16.037024000000002,3.282236063234707,0.08942534532893512
16.039412,3.316086680326559,0.08865947846193052
16.041792,3.3492384492841096,0.08797187571851618
16.044188,3.387884663801714,0.08716417844400147
16.046576,3.4235976120131233,0.08641505849887761
16.048955999999997,3.4550268194779776,0.08578266011816285
16.051356,3.4873871925026116,0.08515878509114276
16.053744000000002,3.519887335154105,0.0845283670859563
16.056123999999997,3.552759564857936,0.08393775724718198
16.05852,3.591218787920437,0.08328796784868898
16.060912000000002,3.6273963709828,0.08269875613795434
16.063291999999997,3.6577074214327734,0.08219838519445792
16.065692,3.6880184718827467,0.0816980142509615
16.068080000000002,3.7194004575193587,0.08118557068476612
16.070459999999997,3.747429867969194,0.08075632321936065
16.072856,3.771175537672476,0.08041137805159819
16.075243999999998,3.791196545136644,0.08010308538220322
16.077624,3.8093552214812556,0.07981694467413132
16.080019999999998,3.8258838841317884,0.07961129713073337
16.082408,3.842552316409181,0.07939884877689193
16.084804,3.8557284038729374,0.0792772587549751
16.087200000000003,3.8719775272697494,0.0791129632059932
16.089588,3.8917189954801974,0.07887229698312286
16.091968,3.9033122910781186,0.07875123002323987
16.094368000000003,3.918909788168873,0.07858193746769196
16.096752000000002,3.935066363767068,0.07836965410382975
16.099136,3.9509434001115427,0.07818529072606228
16.101532,3.965097874963321,0.07800449644421831
16.103920000000002,3.983024233882456,0.07773051903966499
16.106299999999997,3.9967140738832794,0.07745790541998084
16.1087,4.010451135712345,0.07711429852051918
16.111088000000002,4.023583793063597,0.07668052005673655
16.113472,4.029826204444065,0.0762447218969794
16.115868,4.024894629107191,0.07587848974510511
16.118256000000002,4.014702821493612,0.07544473392732541
16.120635999999998,4.004325918282797,0.07487261055689602
16.123044,3.988688782795277,0.0742211486419549
16.125428,3.964438839844274,0.07355638209596622
16.127812,3.9284105056981167,0.0728527225844459
16.130208000000003,3.8788339970358656,0.07218583251956075
16.132596,3.8181307234845177,0.07148659621585415
16.134976,3.739223447618184,0.07085203936199504
16.137376000000003,3.643974500556421,0.07026014199567841
16.139764,3.5423943860313134,0.06957138960496344
16.142148,3.423681204377858,0.06890547967779743
16.144544000000003,3.296215445634061,0.06816732134670744
16.146932,3.15576059088161,0.06733350010768757
16.149316,3.0112089868377088,0.06636288428169698
16.151712000000003,2.8534812953300506,0.06537738395188951
16.1541,2.6912375456503606,0.06427897135630165
16.156484,2.5262928470899535,0.06324487529672325
16.158880000000003,2.3599504522609442,0.06238932557860936
16.161268,2.201848777843079,0.06138281668148281
16.163648000000002,2.0558522557023324,0.06024679939886664
16.166044,1.9177696928907664,0.05924549114971577
16.168432000000003,1.7845280534753265,0.05841706108356338
16.170816000000002,1.6629250356281808,0.057674896201568425
16.17322,1.555661588230048,0.05686790077066641
16.175607999999997,1.4609679279599874,0.0561698096031357
16.177988,1.3841987307511923,0.05545630138167393
16.180383999999997,1.3207907166033879,0.05488853097902423
16.182775999999997,1.2793113670096825,0.0542301253053108
16.185156,1.254545775663744,0.05360309525302884
16.187551999999997,1.2414188058860995,0.053107046735007324
16.189943999999997,1.2456572206622796,0.05269113303892243
16.192324,1.2596719258871976,0.05244363432469199
16.194719999999997,1.2863961878670487,0.052342598914994154
16.197108,1.3194516173102442,0.052428874740517585
16.199492,1.3671261564561725,0.05253849050600665
16.201887999999997,1.4254156038119998,0.052764545087492176
16.204276,1.4864985478471624,0.05298185226650734
16.20666,1.5555898948679923,0.05303375197674518
16.209055999999997,1.6221200626349643,0.05327972720805543
16.211444,1.6857169640957415,0.053604278857371
16.213828,1.746799908130904,0.05384581259370373
16.216223999999997,1.8073709954868689,0.0539848184632972
16.218615999999997,1.865428125417219,0.054077123811237714
16.220996,1.9184101186680969,0.0542755608357214
16.223396,1.967295362627524,0.05438045183510817
16.22578,2.009662447668503,0.05450223480919769
16.228164,2.048212322671752,0.05448271293572218
16.230559999999997,2.0787537946893333,0.05457785291435116
16.232948,2.105570604467801,0.05467534547151922
16.235328000000003,2.134296967194069,0.054625897320806985
16.237727999999997,2.159857746188664,0.054502150379272064
16.240112000000003,2.185465747011502,0.0542483016220078
16.242496000000003,2.2119123655955018,0.05389157862769257
16.244892,2.2379868971271644,0.053466053930899114
16.247284,2.2587067527256335,0.05315192368522635
16.249664000000003,2.274631010898352,0.05287136095034532
16.25206,2.2924176001906265,0.052586858171091426
16.254452,2.30433765687051,0.05235443258308981
16.256832000000003,2.3205414542969485,0.05204601577524306
16.259228,2.3366054820965267,0.05175679124758711
16.261615999999997,2.3556027762022995,0.05144763073059132
16.264000000000003,2.3715270343750166,0.05117754939545506
16.266396,2.3825159254951225,0.05094978781239591
16.268783999999997,2.3917822551225316,0.050706502413729204
16.271168000000003,2.4027711462426375,0.05048068124697135
16.273567999999997,2.4117579366163264,0.05027279795375845
16.275956,2.421256583669213,0.050117223766098506
16.278336000000003,2.4282412732964858,0.04992624206555247
16.280732,2.431780839938365,0.04970333557459356
16.283119999999997,2.4299657306470515,0.04958109535925039
