Time,Force,Position
15.270884000000002,0.0,0.0
15.273268000000002,0.0,0.0
15.275664,0.0,0.0
15.278052,0.0,0.0
15.280432,0.0,0.0
15.282828000000002,0.0,0.0
15.285216000000002,0.0,0.0
15.2876,0.0,0.0
15.289992000000002,0.001280819223598647,0.0
15.29238,0.005494904753392465,0.0
15.29476,0.009708990283186282,0.0
15.297168,0.016064946186257163,0.0
15.299556,0.026564873209021955,0.0
15.301936,0.0352024691122301,0.0
15.304332000000002,0.039975633149464763,0.0
15.306720000000002,0.04595950200019816,0.0
15.309104,0.05194337085093156,0.0
15.311496000000002,0.05764770044794454,0.0
15.313884000000002,0.06642506597801291,0.0
15.316264,0.07706476262763791,0.0
15.318664000000002,0.08542281927712564,0.0
15.321052000000002,0.09578297667303022,0.0
15.323448,0.10721406925557334,0.0
15.325844,0.1174344570246177,0.0
15.328232,0.1287257799803006,0.0
15.330612000000002,0.13601290144314981,0.0
15.333008,0.14423118846577737,0.0
15.335396,0.1524494754884049,0.0
15.337776000000002,0.15938694328743375,0.0
15.340176,0.16152881366071084,0.0
15.342564,0.1635309144071277,0.0
15.344944000000002,0.16138904403385063,0.0
15.34734,0.15203016660782426,0.0
15.349724000000002,0.1457443251148533,0.0
15.352104,0.1422519803012173,0.0
15.354512,0.136477995487444,0.0
15.356896,0.13256634179322735,0.0
15.359280000000002,0.12921376660645154,0.0
15.361684,0.12043640107638315,0.0
15.364072,0.10979670442675815,0.0
15.366452,0.10143864777727044,0.0
15.368848,0.09370978404532343,0.0
15.37124,0.0838390499400994,0.0
15.37362,0.07438762471545599,0.0
15.376016,0.06479642986395234,0.0
15.378404,0.06135130687855948,0.0
15.380788,0.053901982400332935,0.0
15.383184,0.04568369537770541,0.0
15.385572,0.037465408355077875,0.0
15.387952000000002,0.034020285369685016,0.0
15.390352,0.03178586719779089,0.0
15.392736,0.027571781667997078,0.0
15.395120000000002,0.02827062980229813,0.0
15.397516,0.026408298682741492,0.0
15.399904,0.028689938682878766,0.0
15.402284000000002,0.031111348309876247,0.0
15.40468,0.030739261257538765,0.0
15.407064000000002,0.03316067088453625,0.0
15.40946,0.04086710122796607,0.0
15.41186,0.0485735315713959,0.0
15.414244,0.0552090267281872,0.0
15.416628,0.05534879635504742,0.0
15.419024,0.054697170048989524,0.0
15.421412,0.05562833560876784,0.0
15.423792,0.05669927079540637,0.0
15.426192,0.05655950116854616,0.0
15.42858,0.05949276747474134,0.0
15.43096,0.06305522669847725,0.0
15.433356,0.06568652036243486,0.0
15.435744,0.0643360459220759,0.0
15.438124000000002,0.0609834707353001,0.0
15.440528,0.06375453402611791,0.0
15.442916,0.06482546921275643,0.0
15.4453,0.0695285188398912,0.0
15.447696,0.07115853253397056,0.0
15.450084,0.07772391328066196,0.0
15.452464,0.08736232996040873,0.0
15.45486,0.09071490514718453,0.0
15.457248,0.09127398365462536,0.0
15.459632,0.0927642277218445,0.0
15.462028,0.09318353660242515,0.0
15.464416,0.09560494622942262,0.0
15.4668,0.10161124846867317,0.0
15.469204,0.10896802514828267,0.0
15.471592,0.11539363626811386,0.0
15.473972,0.11688388033533302,0.0
15.476368,0.11758272846963408,0.0
15.478756,0.1164192454843785,0.0
15.481136,0.11618692805890121,0.0
15.483532,0.11702554582006248,0.0
15.48592,0.11958672507392018,0.0
15.4883,0.12279953063383577,0.0
15.4907,0.12373069619361408,0.0
15.493088,0.12023835137997808,0.0
15.495468,0.11860833768589872,0.0
15.497864,0.11083225212570857,0.0
15.500252,0.09949370734178253,0.0
15.502648,0.09136796811777206,0.0
15.505044000000002,0.0831024592669014,0.0
15.507432,0.0739057848562524,0.0
15.509816,0.06747827787855198,0.0
15.512212000000002,0.06272611056530483,0.0
15.514600000000002,0.05834603030439516,0.0
15.51698,0.052568253774883396,0.0
15.519380000000002,0.05018837840252134,0.0
15.521768000000002,0.057492245680279955,0.0
15.524148,0.06912517967496662,0.0
15.526544,0.08457532370738362,0.0
15.528932,0.10076964184447557,0.0
15.531316,0.11677696852646416,0.0
15.533712,0.1319456774472915,0.0
15.5361,0.1441338982336805,0.0
15.53848,0.16307259536399502,0.0
15.540876,0.18890153846509522,0.0
15.543268,0.21039951899139822,0.0
15.545648,0.23878774548848694,0.0
15.548044,0.2719944619931842,0.0
15.550432,0.3122311940955274,0.0
15.552816,0.35763561067595984,0.008968729986835344
15.555216,0.4062056109880648,0.01767753577403245
15.557604,0.45479994054655615,0.026385843916671085
15.559984,0.5071661541724038,0.03470447066592973
15.562384000000002,0.5610226118654709,0.042682961365775235
15.564772,0.6169283921331977,0.050398058187797176
15.567152,0.6663632353107194,0.05842674930503137
15.569548,0.7099787677040941,0.06650589092910172
15.571936,0.750056629313459,0.07458503255317209
15.574316,0.7923235831243439,0.08221777118803662
15.576716,0.8358484635769708,0.0896488900254512
15.579104,0.8824936017908962,0.09682164085828114
15.581484,0.9279752570195658,0.10414897187701495
15.58388,0.9725729685167004,0.11159296441385406
15.586272,1.01083951255049,0.11914585731283327
15.588656,1.0423555802403546,0.1269081560130481
15.591052,1.0776907538258182,0.13444898299646518
15.593444000000002,1.107346386253995,0.1420703417427709
15.595824,1.1320213256591858,0.1497639107761408
15.598224000000002,1.142728781667702,0.15829897191634262
15.600608,1.1479890139444082,0.15797984635092216
15.602992,1.1483611009967456,0.15809891296637987
15.605388,1.1470106265563866,0.15840501551620725
15.607776,1.1439375906233313,0.15885304173968848
15.610156,1.1334152302120497,0.1602223128701131
15.612556,1.1211703083080713,0.16165287789020127
15.614944,1.1106479478967892,0.16303788531411517
15.617324,1.1002653571123673,0.16437244223119288
15.61972,1.0918848670743624,0.1653699061473009
15.622112,1.0762873699836084,0.16743348153494897
15.624492,1.0616210384526326,0.16920445710443044
15.626892000000002,1.0412279439361265,0.17165941149699243
15.62928,1.026189525352813,0.1732202486582066
15.63166,1.0143639123294153,0.1743113172615693
15.634060000000002,1.0051920263584921,0.17518332580248383
15.636448,0.9970910755742081,0.1759560882424708
15.638828,0.9884310462824828,0.1768959511979843
15.641228000000002,0.9797710169907573,0.17786676767068274
15.643616000000002,0.9748356499381453,0.17843759313217342
15.645996,0.9789796210578392,0.1778646345004421
15.648400000000002,0.9826117354983355,0.17722058800875573
15.650788000000002,0.9873147851254702,0.1763901878088972
15.653168,0.9932285395661036,0.17532069723476126
15.655572,0.9978390413946213,0.17429145926170025
15.657956000000002,1.0064537447159727,0.17262990155421484
15.66034,1.0102728506115726,0.17155848442033647
15.662744,1.0166531357610298,0.16995425780020332
15.665128,1.0231731905373473,0.16829643753832027
15.667512000000002,1.0266202093806094,0.16712776204963778
15.669908,1.0323488682240087,0.16544148539770565
15.672292000000002,1.0300691240817408,0.16501568104850858
15.674676000000002,1.0333763732981427,0.16379279978910405
15.677072,1.0294666154617953,0.16381169451843874
15.67946,1.0232752176253106,0.16424969534793912
15.68184,1.017083819788826,0.16466383892169528
15.684244,1.0127547530718979,0.1648391599804158
15.686632,1.0067031248622733,0.16519751505513516
15.689012000000002,1.0005117270257884,0.16564481440758716
15.691408,0.9891054228829714,0.16700961776238205
15.693796,0.9754174787400169,0.1687504947163909
15.696180000000002,0.9605188297835636,0.16074493678666232
15.698576,0.9461320375063081,0.1527474645838661
15.700964,0.9336075763486096,0.15457980541079352
15.703344,0.9193133318699713,0.14684239041111466
15.705740000000002,0.9067416488840293,0.14891625103373146
15.708128000000002,0.8976150888834803,0.15074968956404178
15.710508,0.8879294503754904,0.15275599017122643
15.712904000000002,0.8759621718673631,0.14500011189196138
15.715292000000002,0.8642744326129566,0.1370921818404655
15.717676,0.8556597292916052,0.1389898277084271
15.720072000000002,0.8531910978363646,0.13988502905706285
15.722460000000002,0.8488601352615671,0.14099648084340513
15.724856,0.8486731438064637,0.14138945578669343
15.727248,0.8498366267917193,0.141445416000393
15.729636,0.8480668434707799,0.14198424988962302
15.732016000000002,0.8462970601498403,0.14250681789938885
15.734412,0.8474605431350957,0.14256499420487495
15.736800000000002,0.8495551916801297,0.14248594827171496
15.73918,0.8567249769046359,0.14150548752511066
15.741576000000002,0.8649656973157805,0.14033399466472332
15.743964000000002,0.8753482881002023,0.14880720270403436
15.746344,0.8894555411237373,0.15691060490950767
15.748744000000002,0.9004897582142168,0.1553926691996258
15.751128,0.9156679464243904,0.1633036822429468
15.753524000000002,0.9281924075820893,0.1614972316508659
15.755924,0.9431382783667855,0.1592605978953391
15.758308,0.9572927532185637,0.1571158748501548
15.760688000000002,0.9775932999364526,0.16437093178718915
15.763092,1.0005475737068161,0.17148113542211177
15.76548,1.0222911426636812,0.16861442159493717
15.76786,1.0458970427401026,0.16574769166433825
15.77026,1.0654987413236905,0.16331496873767107
15.772648,1.0829585695340014,0.16121207985953032
15.775032,1.0989281536770927,0.15946793745661214
15.777428,1.1176912344995196,0.1573458442480459
15.779816,1.134312444948669,0.1555308662210357
15.7822,1.1489315546514018,0.15405161708357756
15.784596,1.1656925347274116,0.15231860560664667
15.786984,1.181382579616783,0.15082745719746932
15.789368,1.198283329319653,0.1492389257932254
15.791764,1.213973374209024,0.1478142342703426
15.794148,1.2214226986872507,0.14711537586039306
15.796532,1.2319450590985326,0.14606849068496855
15.798928,1.2344590165241474,0.14589926180448828
15.801316,1.2384159961887375,0.14569780354585768
15.8037,1.2378096958530538,0.14615659815671417
15.806096,1.2370636258905097,0.14666634909261544
15.808484,1.2315219585022137,0.1476381049696064
15.810864000000002,1.224117959994361,0.14875471414870906
15.81326,1.2136409255534528,0.15025383744309964
15.815648,1.1962264233135158,0.15257576883786947
15.818028000000002,1.1840268273799113,0.15425643193166097
15.820428,1.1738293321927238,0.1557094293398276
15.822812,1.1652618506996155,0.15680133923281747
15.825196000000002,1.1581846132737266,0.15756671433890998
15.827592,1.1524578502881964,0.15811913455451612
15.829976000000002,1.1448687561831097,0.15886416867082656
15.832372,1.1354173309584663,0.15974700341947862
15.834768,1.1230326394276278,0.16095882748456067
15.837156,1.1065039767770952,0.16266519513561029
15.83954,1.093048350059618,0.16398609137813805
15.841936,1.088112983007006,0.1645014255473291
15.844324,1.0813152848348375,0.16515860108908767
15.846708,1.0817345937154181,0.1650146509075708
15.849104,1.081642045916801,0.16481280573827775
15.851492,1.0854611518124007,0.16396812226669463
15.853872,1.0887684010288026,0.16305721029995102
15.856268,1.0927272765512623,0.1621464693870149
15.858656,1.0977570872603606,0.16111402593605356
15.861036000000002,1.1084211131563722,0.15934400291205794
15.863436,1.1241602757318556,0.15688331643476414
15.865824,1.138968272747561,0.1546445490454203
15.868204000000002,1.1539160393901262,0.1524232511543884
15.8706,1.1624381949128608,0.1509052624982322
15.872988,1.1668163793159012,0.1498814096292023
15.875372000000002,1.169332232599385,0.14900923599223637
15.877768,1.1726394818157868,0.14806821329835423
15.880156,1.1750155654724104,0.14721139839894803
15.882540000000002,1.1784625843156724,0.14617694076348456
15.88494,1.1849826390919902,0.14473289700485925
15.887328,1.191642463495168,0.1433236123520318
15.889708,1.1917841289798972,0.14254348425401422
15.892108,1.1908548592779877,0.141893765609136
15.894492,1.1877837192028022,0.14151582858464362
15.896876,1.1827104783811988,0.14135412155331717
15.899272,1.175076058305738,0.14159922287377574
15.90166,1.168093264536335,0.14185959636435003
15.904056,1.1613900100206527,0.14202098738374144
15.906448,1.1516137195719154,0.14254691835845507
15.908836,1.135132278749626,0.14399056829459386
15.91122,1.11678850680778,0.1455935548681651
15.913616,1.0933695981864615,0.14792003998527625
15.916008,1.0691592936322252,0.1502051594866232
15.918388,1.0530971616905167,0.15154705376567776
15.920784,1.0398285264281428,0.1526347641071394
15.923172,1.0282824526584657,0.15362156361965928
15.925552,1.021951285195121,0.15390060209207918
15.927948,1.0153405784780556,0.15429901961769993
15.930336,1.0158071091868794,0.15389239427286439
15.93272,1.0152027047090646,0.153615444961249
15.935116,1.0084522283651391,0.154011728270032
15.9375,1.0072887453798836,0.15392600632627815
15.939884,1.0081273631410448,0.15363443914810362
15.942288,1.0081745849692878,0.1533708270173001
15.944676,1.013157173850143,0.15262764606772558
15.94706,1.0192106979176367,0.15174280686947444
15.949456,1.0271265531046871,0.1507262935194667
15.951844,1.0346230994111567,0.14985018559626784
15.954228,1.0431905809042652,0.1487977343758579
15.956624,1.0551106375841492,0.14720710808625334
15.959016000000002,1.071034895756867,0.14524446753424586
15.961396,1.0925461472882545,0.14262555777720684
15.963796000000002,1.1149885643794208,0.14001059865709758
15.966184000000002,1.1343579455375314,0.13790891223352847
15.968568,1.1535875570687817,0.13590948070658743
15.970964000000002,1.1760299741599478,0.13365005695073387
15.973352000000002,1.193537024198502,0.13198441083140539
15.975732,1.2151880453567496,0.12996283575371653
15.978132000000002,1.2297618290891084,0.12870747530426815
15.980520000000002,1.244335612821467,0.12745211485481978
15.9829,1.2678489650992715,0.12550023065892502
15.985296000000002,1.2877774247648233,0.1238222666818416
15.987684000000002,1.3054242444302375,0.1223745635935583
15.990068,1.325724791148126,0.12082280598654717
15.992464000000002,1.3409502011865428,0.11969170920438883
15.994852000000002,1.357246546411598,0.11848838787851736
15.997236,1.3718203301439567,0.11738366014300582
15.999632000000002,1.3869531923837564,0.11612553513826097
16.002024000000002,1.4039483857431125,0.11476476318131715
16.004404,1.4226661405951653,0.11337904025589438
16.006808,1.435749680260305,0.11250993959777796
16.009196,1.4491127591791653,0.11160901026327537
16.011580000000002,1.458983493284389,0.11101306804382167
16.013972,1.4697853929493916,0.11037905740119366
16.016364,1.477002400002141,0.10987558146941227
16.018744,1.478724961494837,0.10982111513780977
16.021144,1.4810991492935919,0.10979242743836781
16.023532,1.478398200412874,0.1100978624573253
16.025916000000002,1.473555381158879,0.11058843599874596
16.028312,1.4677813963451056,0.11113317885980205
16.0307,1.4539990085456649,0.11220304385537966
16.03308,1.4395177726119228,0.11349433527528656
16.03548,1.4263870111185402,0.1146373777769307
16.037868,1.4112541488787402,0.11590020592368075
16.040248000000002,1.3981233873853574,0.11705323532710991
16.042648,1.3859237914517528,0.11810850117179307
16.045032,1.370511389958233,0.11947852873187574
16.047412,1.3538882836512143,0.12098431687680171
16.049816,1.3363340117844171,0.12252625785384076
16.052204,1.3169174087980635,0.12413790558842973
16.054584000000002,1.3031350209986228,0.12521753324995216
16.05698,1.2862795972661267,0.12650910788629033
16.059368,1.2744993102131028,0.1274430471737868
16.061748,1.2639297279735777,0.12822021455764124
16.064152,1.2581557431598045,0.12873571802627823
16.066536,1.258527830212142,0.1288328516090007
16.068916,1.25889991726448,0.12892999004191763
16.071316,1.2614138746900943,0.12886253733252165
16.073700000000002,1.2659299328621256,0.1286493395161005
16.07608,1.271237386967075,0.12841824494624843
16.07848,1.2786867114453015,0.12797882520579756
16.080864000000002,1.2893488414834438,0.12725100154344154
16.083244,1.3017335330142823,0.12647630434209145
16.085652,1.3103935623060077,0.12588092879398294
16.088036,1.3187740523440126,0.12536001977554204
16.09042,1.3240815064489622,0.12509869750910865
16.092824,1.3353952627931622,0.12436714470086546
16.095212,1.3475004150702803,0.1236018959053678
16.097592,1.3625388336535935,0.12266136960860138
16.099992,1.3765063170502683,0.12180114368356054
16.10238,1.3861900597003889,0.12135577250142483
16.10476,1.396944737537148,0.12080361154545285
16.107156,1.4021124220152374,0.12058812709326815
16.109544,1.403787761679691,0.12073592776985598
16.111924000000002,1.403461000597727,0.1210282797777203
16.11432,1.4002009732095684,0.12149530977926837
16.116704000000002,1.3989430465678265,0.12182179905677136
16.119084,1.400059307724839,0.12210720632166733
16.121488,1.4050400007478248,0.12217093725316559
16.123876,1.4121625641440878,0.12207807796817034
16.126260000000002,1.4220786242196861,0.12185447837222035
16.128656,1.4322742235490045,0.12158587749601159
16.131044,1.4395365565721276,0.12147711840787759
16.133424,1.4563900844467546,0.12089850902843725
16.135828,1.473523151575102,0.12024543311932935
16.138216,1.4923787801961452,0.11952670633348368
16.140596000000002,1.509092538443912,0.11899166199901115
16.142992,1.5275288581843751,0.1184108701771342
16.14538,1.5410298108722258,0.1181004738345726
16.147764000000002,1.557464029866272,0.11764259292917963
16.15016,1.5725477744199594,0.11728466734584739
16.152548,1.590564785279842,0.11679482411710679
16.154928,1.6118871494982572,0.11620514228510788
16.157324,1.6345599881570307,0.11544701565115278
16.159712,1.6569532875620845,0.11474469450885812
16.162096000000002,1.6724091191681092,0.11440732097754892
16.1645,1.6869337852143556,0.11413519431230516
16.166888,1.7000154290216258,0.11387117236115792
16.169272,1.7104433457764212,0.11371715977351177
16.171668,1.720731492904357,0.11360973512449099
16.174056,1.7302282440993741,0.11352061247531633
16.176436,1.7342305497343387,0.11379878740740733
16.178832,1.7411661216754983,0.1139316898616516
16.18122,1.7434458658177663,0.114245991383336
16.183604,1.7477277107064513,0.11446184395170891
16.186,1.7525686341025775,0.11456507808708945
16.188388,1.7567579311926451,0.11464590452903974
16.190772,1.761646076417014,0.1145930099750663
16.193168,1.7693277183207177,0.1144410673600123
16.195556,1.7770093602244212,0.1142974148561681
16.19794,1.7932584836212335,0.11371217340363449
16.200336,1.8022905999652967,0.11346110583029538
16.202724,1.8140236651900772,0.11300657030531346
16.205104000000002,1.828550227094193,0.11247756497812035
16.207504,1.8464293641850842,0.11177722350955029
16.209888,1.8732480698214213,0.11067919057007325
16.212268,1.8977851354576212,0.1097082086289124
16.214676,1.9169675251606284,0.10898991651748334
16.21706,1.9357306059830548,0.10834781210544278
16.219444,1.9515604204992867,0.10782846910120915
16.22184,1.968041861321576,0.10734560884770071
16.224228,1.9908091436368363,0.10653973752322055
16.226608,2.0115743252056797,0.10583237739818667
16.229012,2.032199737147663,0.10516675661661193
16.2314,2.0516144442761477,0.1045984186331513
16.23378,2.0715410080838303,0.10409465135252835
16.236176,2.090117097451153,0.10368522724055458
16.238564,2.109205043497674,0.10335001982657085
16.240944,2.1293639247308334,0.10297462401617179
16.243344,2.1485916404042147,0.10263659604761545
16.245728,2.1596711834650684,0.10262219559464195
16.248112,2.1782472728323916,0.10227836308130285
16.250508,2.191468686266522,0.10217181602230471
16.252892,2.2000342719017607,0.10218385724496701
16.255276000000002,2.2013828504842503,0.10247144617334641
16.257672,2.20273142906674,0.10275253311997035
16.26006,2.2047788557835313,0.1029258007672396
16.262456,2.214043289553071,0.10282582881429284
16.264852,2.2255893633227486,0.10261543421576294
16.26724,2.2400687033986206,0.10231473793504563
16.26962,2.2498922156756014,0.10212505129663131
16.272016,2.257713627206166,0.10201018931729174
16.274408,2.26553503873673,0.10189366492017612
16.276788,2.2713543495208772,0.10184347593122407
16.279184,2.273448998065911,0.10188356315358403
16.281572,2.2707480491851935,0.10206420662525464
16.283956,2.268326639558196,0.10220287136299674
16.286352,2.260318236572529,0.10248845838637811
16.28874,2.2496561065343865,0.10282135765292097
16.29112,2.237131645376688,0.1032029315888314
16.293524,2.226469515338546,0.10354376622159818
16.295912,2.2116634141807094,0.1040396766865546
16.298292,2.2012808233962877,0.10432532823690409
16.300696000000002,2.192620794104562,0.10459045346577307
16.303084000000002,2.191317541492446,0.10454923026889848
16.305464,2.1881519577607733,0.10455507709657381
