Time,Force,Position
16.938644,0.046333944103744494,0.0
16.941032,0.03783611782739655,0.0
16.943412000000002,0.029198521924188404,0.0
16.945808,0.02363396195403563,0.0
16.948196,0.015136135677687691,0.0
16.950580000000002,0.00957157570753492,0.0
16.952976,0.006940282043577322,0.0
16.955364,0.004169218752759513,0.0
16.957744,0.002329321021720025,0.0
16.96014,0.002329321021720025,0.0
16.962528,0.002329321021720025,0.0
16.964908,0.002329321021720025,0.0
16.967304000000002,0.0024466572600630823,0.0
16.969692000000002,0.0007465291558838044,0.0
16.972076,0.00011733623834305717,0.0
16.974472000000002,0.00011733623834305718,0.0
16.976856,0.00011733623834305718,0.0
16.979252,0.00011733623834305718,0.0
16.981648,0.00011733623834305718,0.0
16.984036,0.00011733623834305718,0.0
16.986416000000002,0.00011733623834305718,0.0
16.988812,0.00011733623834305718,0.0
16.9912,0.00011733623834305718,0.0
16.993584000000002,0.00011733623834305718,0.0
16.99598,0.00011733623834305718,0.0
16.998368,0.00011733623834305718,0.0
17.000752000000002,0.00011733623834305718,0.0
17.003148,0.0001173362383430572,0.0
17.005532,0.0001173362383430572,0.0
17.007912,0.0001173362383430572,0.0
17.010312,0.0001173362383430572,0.0
17.012696000000002,0.0001173362383430572,0.0
17.015092,0.0,0.0
17.017496,0.0,0.0
17.019884,0.0,0.0
17.022264,0.0,0.0
17.024664,0.0,0.0
17.027052,0.0,0.0
17.029432,0.0,0.0
17.031828,0.0,0.0
17.034216,0.0,0.0
17.036596,0.0,0.0
17.038992,0.0,0.0
17.04138,0.0,0.0
17.04376,0.0,0.0
17.046156,0.0,0.0
17.048544,0.0,0.0
17.050928,0.0,0.0
17.053332,0.0,0.0
17.05572,0.0,0.0
17.0581,0.0,0.0
17.060496,0.0,0.0
17.062884,0.0,0.0
17.065268,0.0,0.0
17.067664,0.0,0.0
17.070052,0.0,0.0
17.072432,0.0030506025445382287,0.0
17.074828,0.009314010648992049,0.0
17.077216,0.016648353940084397,0.0
17.0796,0.03185133058998394,0.0
17.082004,0.051989674292495514,0.0
17.084392,0.07119685243522876,0.0
17.086772,0.08826216020468494,0.0
17.089172,0.10625863353391944,0.0
17.091556,0.12132184055695878,0.0
17.09394,0.13517434276649937,0.0
17.096336,0.15275150721515326,0.0
17.098724,0.16897819722344817,0.0
17.101108,0.18050183760460836,0.0
17.103504,0.19197825615752537,0.0
17.105892,0.20391930956139692,0.0
17.108272,0.21963035117475568,0.0
17.110668,0.2351071795047679,0.0
17.113056,0.2540744567905469,0.0
17.115436,0.2794654493382879,0.0
17.117836,0.31034899158821244,0.0
17.120224,0.3426035458091439,0.0
17.122604,0.37234224674659155,0.0
17.125008,0.4065025621995843,0.008996762749592567
17.127396,0.4334911965702016,0.018611165085653504
17.12978,0.45437908504508207,0.02917783574661325
17.132176,0.48383255915520157,0.03896695571380398
17.134564,0.5202688270347238,0.048545744569327816
17.136944,0.5586127520041766,0.058234323087867454
17.139348000000002,0.6039394707430322,0.06780631729987578
17.141736,0.6528038602658977,0.0774380286610899
17.144116,0.7013414887067997,0.0869762004707738
17.146512,0.7569091327453475,0.09612033927994981
17.1489,0.8271431083148713,0.10449237356757461
17.15128,0.8993791846308119,0.11287139442132357
17.153676,0.9719420220287159,0.12121858909311402
17.156064,1.0400832449110753,0.12956326575967245
17.158448,1.1076672851438627,0.13793999429856094
17.160844,1.1732511204881027,0.14611465323829526
17.163232,1.227895182398349,0.1545897258201273
17.165612,1.2793283346065494,0.1628218681270354
17.168008,1.3227549796869515,0.17129369394383548
17.170396,1.3668351469312805,0.17958652736590236
17.17278,1.4044915989136475,0.17895194664580114
17.175176,1.4417306378733037,0.1776272735942842
17.177564,1.4792038901163065,0.17542021966846177
17.179944,1.5051782904178745,0.17432677767583474
17.18234,1.525660141017259,0.17344388225457147
17.184728,1.5443741041535732,0.1723341025502149
17.187108000000002,1.5570364390802631,0.17153827765786184
17.189504,1.5692341391559979,0.17052417945512596
17.191892,1.5749609021415283,0.1699265634295178
17.194272,1.5757995199026897,0.16967983424848004
17.196672,1.5625308846403159,0.17068798503220067
17.199056,1.549309471206185,0.17146184648588
17.20144,1.537950388891611,0.17205040864461904
17.203836,1.5271031632562349,0.1726820018018587
17.206224,1.5201203694868322,0.1729620967079336
17.208608,1.5104366268367115,0.17360007390895987
17.211004,1.509412913478316,0.17352360198047698
17.213392,1.5041054593733665,0.17387260448241432
17.215776,1.5035936026941688,0.1738339604168262
17.218172,1.5035936026941688,0.17383396041682622
17.22056,1.505875242694306,0.17359155620673192
17.22294,1.5049440771345277,0.17366144365732517
17.22534,1.5066666386272243,0.17355891217241018
17.227728,1.5121138623590338,0.17315606761991337
17.230108,1.5157913027699044,0.1730420747467791
17.232508,1.5182580383672755,0.17308269136903387
17.234896,1.5247289754574804,0.17274360477545372
17.237280000000002,1.5282666462414902,0.17267156442558085
17.239676,1.5379503888916113,0.1719947141216466
17.242064,1.5491243756089512,0.17112815391274372
17.244448000000002,1.5636509375130667,0.16980789588480194
17.246844,1.5732421323645704,0.16894784699944054
17.249232,1.5764549379244859,0.1685924663264853
17.251616000000002,1.5811579875516206,0.1680102250978555
17.254012,1.5799945045663653,0.16797101481137033
17.2564,1.5803212656483288,0.16769850743544037
17.258784000000002,1.5745019548641814,0.16803597136427126
17.26118,1.569893348893533,0.1682319404900702
17.263568,1.565005203669164,0.16849487146196498
17.265948,1.5546698347129855,0.16919255806377168
17.268344,1.5389797898236142,0.17052700704043272
17.270732,1.5291562775466334,0.17129047471282433
17.273116,1.5180295126575367,0.172026920796061
17.275512,1.507461826275881,0.17259962855001798
17.2779,1.5063927869471117,0.17217891869179527
17.28028,1.5066742220587013,0.17157847208588284
17.28268,1.5068158875434308,0.1710289575749331
17.285068,1.5076091793342181,0.17047737463771473
17.287448,1.5030477951918126,0.17045322293785942
17.289844000000002,1.495645692541829,0.17081167408258446
17.292232000000002,1.491409173623518,0.17103832083401277
17.294616,1.4928994176907373,0.17083040540901934
17.297012000000002,1.4996971158629062,0.1702758605988587
17.299400000000002,1.504725030714135,0.1700102960353693
17.30178,1.5153399389240343,0.16933398467138472
17.304176000000002,1.5252559989996322,0.1688345109512616
17.306568000000002,1.5388967213143432,0.16805070326755614
17.308948,1.5522579043753344,0.1673190354342668
17.311344000000002,1.5626858211301298,0.16682775970207384
17.313732,1.5784211919898747,0.16594897353672602
17.316116,1.6040272969548441,0.16419479190866687
17.318512000000002,1.6274915315465366,0.1627483958992222
17.3209,1.651327853190566,0.16140859400161467
17.323284,1.67739859300649,0.16007225207538583
17.325680000000002,1.6934588290903294,0.15962476711225956
17.328068000000002,1.7070976555471713,0.1594345881558624
17.330448,1.7158011149514012,0.15961092368549729
17.332844,1.7262743576765707,0.15952721055404556
17.335232,1.7399604059616558,0.15914131136464077
17.337612,1.7534141368212637,0.15863096808181987
17.340012,1.7637022839491991,0.15824910390657765
17.3424,1.7741302007039947,0.15787110974135773
17.34478,1.7829753255929546,0.15755220222579766
17.347176,1.7930311552954128,0.15710741061165595
17.349564,1.7990827835050371,0.1569642926882446
17.351948,1.807695590968519,0.15655479584758702
17.354344,1.8135149017526664,0.1563162446888897
17.356732,1.8239900403357048,0.15580773049853017
17.359112,1.840331711531134,0.15492101987278337
17.361512,1.854671281980146,0.15418214102007055
17.3639,1.861002449443491,0.15400588401045034
17.36628,1.8684045520934742,0.15375708664175503
17.368676,1.8758066547434578,0.15351194549027736
17.371064,1.8784131599676894,0.1535422603439041
17.373448,1.8856754929908126,0.15331953944899404
17.375868,1.8968022578799093,0.1528698928574591
17.378256,1.9097913538885627,0.1522849612322264
17.38064,1.9200795010164982,0.1519835805382642
17.383036,1.9335804537043493,0.15147261948481258
17.385424,1.9486641982580364,0.15091854318334041
17.387808,1.9643995691177816,0.15036478739516387
17.390204,1.9731974721784977,0.15024612472025
17.392596,1.9829265407989924,0.15007995423683262
17.394976,1.9947974797927641,0.14977337813930205
17.397372,2.011743555466008,0.14915616404760046
17.399764,2.027339156698893,0.14869004692040652
17.402144,2.0440056931184163,0.14814138225748524
17.40454,2.0570873369256866,0.14776949142334564
17.406928,2.0649540744266246,0.14773282326251563
17.409312,2.0731003511812833,0.14764142646103967
17.411708,2.087392699802052,0.14718795585567135
17.414096,2.1007538828630428,0.14679184810070522
17.41648,2.114394605177754,0.14635357046081177
17.41888,2.1321792986121593,0.14566781292830613
17.421268,2.1431662938743963,0.14531069376167663
17.423648,2.1524307276439365,0.1450259837365207
17.426048,2.167049837346669,0.1444207681879094
17.428436,2.185301061489898,0.14354742607724452
17.430816,2.197126674513296,0.14307848911073093
17.433216,2.207089956417137,0.14268686634385463
17.435604,2.2159823031343393,0.14235341864664233
17.437988,2.2308809520907924,0.14168505955949887
17.440384,2.2457796010472455,0.14102810556685155
17.442772,2.2566740485108645,0.1405940677874511
17.445152,2.2637040641085107,0.1403561565486766
17.447552,2.267009417467044,0.14027069559403899
17.44994,2.2681729004522992,0.1403129928235125
17.452324,2.2693363834375546,0.140355290052986
17.454720000000002,2.2690568441838344,0.14040592553895456
17.457108,2.2686375353032537,0.1404819774761481
17.459488,2.2612807586236436,0.14092776309506366
17.461888000000002,2.250199319704921,0.14155249721566632
17.464276,2.236976010412921,0.1423148853296666
17.466656,2.2208194348147257,0.1432235915279224
17.469056000000002,2.213090571082779,0.14361798172505752
17.47144,2.201637045111719,0.1441945753270642
17.473824,2.185248152088047,0.14501322510341336
17.47622,2.1665776190642374,0.14597007751537044
17.478612000000002,2.1483263949210083,0.1468896207569344
17.480992,2.1322170411510566,0.14767049089509512
17.483392000000002,2.119739801821601,0.14815916595332868
17.485780000000002,2.1061916273055066,0.14869888050388233
17.488164,2.0919918264833544,0.14922097566947784
17.490560000000002,2.079002730474701,0.14965706041146487
17.492948000000002,2.066153404092908,0.15006646672329418
17.495328,2.0582394447637262,0.15022510144702728
17.497728000000002,2.052746895061543,0.15020415590958303
17.500116000000002,2.0443210790531645,0.1503408622715565
17.5025,2.041761795657176,0.15016935365794226
17.504896000000002,2.03855088595513,0.1499889630544422
17.507284000000002,2.038552781812999,0.14959813627828347
17.509668,2.0402772391635646,0.14913552562519414
17.512064,2.043212401327629,0.14857055661688398
17.514452000000002,2.0480098946112504,0.1479133702434792
17.516836,2.049175273454375,0.1475622339061368
17.519232,2.0522029834170565,0.1471113615446084
17.521620000000002,2.0570930244992947,0.14657011848651505
17.524004,2.060912130394894,0.14609786663716537
17.5264,2.0685956681564672,0.14541374183931843
17.528788000000002,2.075208270731402,0.14480878850299986
17.531172,2.0812617947988956,0.14432999264705934
17.533568,2.0845218221870545,0.1439795510413427
17.535956,2.0864313751348544,0.1437507760579888
17.53834,2.0904827984559313,0.14338897152142252
17.540736,2.0916009554708133,0.14317812990581905
17.543124,2.0939298172991934,0.14288187418648307
17.545504,2.0990521758069085,0.14247350406683834
17.547904,2.109249670994096,0.14178749414696218
17.550288000000002,2.11544296468845,0.14132057675585366
17.552672,2.123498589502361,0.14077800933122417
17.555072,2.1311349054356907,0.14031076768388376
17.55746,2.1399819261825197,0.13975141305534855
17.559844000000002,2.1477580117427095,0.13925362749754883
17.562244,2.1548824709968417,0.1387510263514325
17.564632,2.1616348431986365,0.13818456586619615
17.567028,2.172531186520125,0.1374030196555926
17.569428000000002,2.182216825028115,0.13671331461327588
17.571816000000002,2.196046434655799,0.13581323935274936
17.5742,2.210155583537203,0.134897967607436
17.576596000000002,2.224264732418607,0.13398269586212264
17.578988,2.2355803846206763,0.13317901953285294
17.581368,2.247966972009384,0.13230190470834186
17.583768,2.2615642642115903,0.13133497099214544
17.586156,2.2696671108537445,0.13068802472004037
17.588536,2.2794925189885946,0.12997220900616224
17.590936,2.2831718552573337,0.12958122531745614
17.593324,2.283778155593018,0.12935417810612493
17.595708000000002,2.2805200240627284,0.1292939994789501
17.598108,2.2774016621592996,0.1292100158221426
17.600496,2.2724209691363133,0.12919714993627082
17.60288,2.2647865490608523,0.12927357897217584
17.605276,2.2572918986122517,0.12932296620070027
17.607664,2.2539412192833455,0.12915287978498804
17.610048,2.2495196047678006,0.12904126498559404
17.612448,2.2448184509985354,0.1289776653037127
17.614836,2.2359733261095758,0.129122751029639
17.61722,2.228478675660975,0.12915915710081607
17.619616,2.215257262226844,0.1294218906377028
17.622004,2.195750007299743,0.13001922169617436
17.624388,2.174520190879945,0.1306727512788333
17.626784,2.1543613096467853,0.1312693916727505
17.629176,2.133922889159906,0.13192732020316633
17.631556,2.1122737638595273,0.13267831153828122
17.633956,2.0919751129995077,0.13335909534095225
17.636348,2.074749498072543,0.1338666543145384
17.638728,2.0616678542652727,0.1341509398040795
17.641128000000002,2.0467238793384457,0.13452150692817932
17.643516,2.038298063330067,0.13460917096781033
17.645896,2.0335969095608015,0.1345437536081638
17.6483,2.0324806484037894,0.134357370593221
17.650684000000002,2.0369513806054464,0.13395482707363585
17.65306,2.045007005419357,0.1334501265849435
17.655464000000002,2.0487788894867136,0.13318396863331403
17.657852000000002,2.0552045006065445,0.13284380794309814
17.660232,2.0634924428459325,0.1324370131944792
17.662636,2.072571781018238,0.1320159950860876
17.665020000000002,2.0782985440037685,0.13178891694546038
17.6674,2.087330660347831,0.13149072691297023
17.669796,2.103300244490923,0.13086819710340067
17.672184,2.1208526204998512,0.13021166223098649
17.674564,2.1390566228148367,0.12957399895415853
17.676968000000002,2.1643378625557115,0.12863134312874697
17.679352,2.191900742296723,0.1275497962884273
17.681732,2.2242592194634874,0.1262815783971628
17.684136,2.256617696630251,0.12506267741838903
17.686524000000002,2.2905589656628513,0.12387147199633093
17.688904,2.3292958321212036,0.12250800482504876
17.691304,2.3623059355940255,0.12140258811762421
17.693692000000002,2.392243003133792,0.12045707471806354
17.696072,2.4184554084344447,0.11964301671928901
17.698476,2.442945252242402,0.11889119990800079
17.700860000000002,2.46035785862447,0.11841751760863425
17.70324,2.4768392994467585,0.11795688370808782
17.705644,2.4914584091494913,0.11755904987252933
17.708032,2.507148454038863,0.11712434180410188
17.710412,2.524188973368593,0.1166057214046475
17.712808,2.544442298258239,0.11593737600790704
17.715196,2.5652547016553253,0.11519567392682303
17.717576,2.5840650043059954,0.11454816455761987
17.71998,2.608090213262998,0.11372129654238142
17.722364,2.6342572925932775,0.11282740255186349
17.724744,2.6504138681914724,0.11228171090908502
17.727148,2.668293005282364,0.11172713707759153
17.729536,2.682447480134142,0.11127116896210269
17.731916000000002,2.6928772927468065,0.1109052533062396
17.73432,2.700653378306997,0.11059212153230094
17.736704,2.703633866441435,0.11040469581371776
17.739084000000002,2.706893893829593,0.11017952487131671
17.741488,2.7095022949116943,0.10993788116644607
17.743876,2.712250465620656,0.10967594804705724
17.746256,2.717140506702894,0.10934216756862138
17.748652,2.7307377989051003,0.10868904606514669
17.75104,2.7496897670404996,0.10785251175142138
17.753420000000002,2.769992209616257,0.10695167423162387
17.755816,2.7896430258859573,0.10605520060247695
17.758204,2.807943367715298,0.10523611338489888
17.760584,2.825312543984862,0.10444275552895373
17.76298,2.8402603106274267,0.10375600427570138
17.765368,2.852274810963798,0.10313842430685369
17.767748,2.856420677941361,0.10272661176534735
17.770152,2.8560504867468928,0.10238972079687564
17.77254,2.861966137045395,0.10185734254269345
17.77492,2.8630861899181466,0.10143376660338946
17.777324,2.867930905030011,0.10094386521043354
17.779712,2.8754293471943497,0.10041692396411582
17.782092000000002,2.8787838182389947,0.10000425473010843
17.784488,2.88213828928364,0.09958518285775037
17.786876,2.88814648738076,0.09913173089252462
17.789256,2.8932235199181013,0.09869217573654926
17.791652,2.9001628835749993,0.09821706909248977
17.79404,2.9009561753657866,0.0979219932013143
17.79642,2.8931819856634653,0.09790843139793745
17.798816000000002,2.88098428558773,0.09804683028932537
17.801204000000002,2.865294240698358,0.0983233892223078
17.803584,2.848253721368628,0.09866309363525566
17.805988,2.8277680790535054,0.0990473274475365
17.808376,2.8074222063652425,0.09940986268139355
17.810756,2.7905686784906156,0.09963088494924002
17.81316,2.7782784306162633,0.09967747800800458
17.815544,2.767990283488328,0.09967528851058548
17.817924,2.75835376266645,0.09969131023677132
17.82032,2.747646306657934,0.09973624658592722
17.822708000000002,2.740943052142252,0.0996793555370172
17.825088,2.7285130346410402,0.09973810721523026
17.827492,2.713429290087353,0.09982949890622458
17.82988,2.703700221466858,0.09975259435211754
17.83226,2.700908620645393,0.09950813162191953
17.834656,2.692110717584677,0.09941323423592761
17.837044,2.6861063112032952,0.09926804730845772
17.839424,2.6802416744487743,0.09910514016027769
17.841820000000002,2.6754479728808915,0.09890736712127214
17.844208000000002,2.6689317098203125,0.09872483781010893
17.846588,2.662555216386593,0.09852403149166887
17.848988000000002,2.6595312981396497,0.0981948445655314
17.851372,2.6515720128400946,0.09799395103566258
17.853752,2.6502706560858478,0.09763955652838044
17.856156000000002,2.6499004648913806,0.09726812828278857
17.858544000000002,2.6465970073907172,0.09697151938970497
17.860924,2.640592601009336,0.0968203895897429
17.86332,2.635519360187733,0.09665094444655431
17.865704,2.63044611936613,0.09648097474577595
17.868084,2.623091238544389,0.09640116039670152
17.870488,2.611871925856676,0.09640818901483819
17.872876,2.6055879802215745,0.09629043881680358
17.875256,2.602097531265808,0.09611968676670588
17.877652,2.597256607869682,0.09602058507984873
17.88004,2.5856179863013877,0.09607149276268613
17.882424,2.580265206226064,0.09593344925578307
17.88482,2.5749124261507403,0.09579513362288467
17.887208,2.5691403371948365,0.09570998825264268
17.889588,2.566441284171988,0.0955410816802088
17.891984,2.5724022604408647,0.0951919392480715
17.894368,2.5783632367097415,0.09483959648184027
17.896752,2.5841844433517576,0.09450997289842718
17.899156,2.5980140529794413,0.09397631592901845
17.90154,2.6097017922338486,0.0935223139359982
17.903924,2.618828352234397,0.0931867626807512
17.90632,2.6244625674213102,0.09298025433031246
17.908704,2.6293053866753056,0.09277044484165232
17.911084,2.6368019329817756,0.09253417098464384
17.913488,2.6472317455944405,0.09223462764163448
17.915876,2.6605948245133004,0.09187071497580898
17.918256,2.6763320912309148,0.09150902930531911
17.920656,2.6897877179483918,0.09123749685779341
17.923044,2.7051056757854255,0.09094444623640174
17.925424,2.71921292880896,0.09069759101448059
17.92782,2.736905074444748,0.09040785698508996
17.930208,2.753246745640177,0.09019431491796316
17.932588,2.772521683141801,0.08993257200403416
17.934988,2.7903535984044496,0.08964985039796557
17.937372,2.809908075159794,0.08936730479924329
17.939756,2.825737889676026,0.08914687411340792
17.942152,2.844500970498452,0.0888739055481963
17.944536,2.8601910153878234,0.08867069953795853
17.946932,2.8738789595307783,0.08851657367337452
17.949328,2.8877066733005927,0.0883495909446676
17.951716,2.903955796697405,0.08809285107521374
17.9541,2.9295637975202435,0.08761651569258261
17.956496,2.957173899089498,0.08710097948400712
17.95888,2.982130273606279,0.08661626273765308
17.961264,3.003082446630226,0.086211200058784
17.96366,3.0212411229748377,0.08584405531757988
17.966048,3.0398191082000308,0.08543314688816801
17.968428,3.0557433663727482,0.08503562817707734
