Time,Force,Position
16.988512,0.0,0.0
16.9909,0.0,0.0
16.99328,0.0,0.0
16.995676,0.0,0.0
16.998064,0.0,0.0
17.000448,0.002816335837431011,0.0
17.002844,0.006563837234640341,0.0
17.005232,0.00910063381835093,0.0
17.007616,0.013919070402198792,0.0
17.010012,0.021810542919102036,0.0
17.0124,0.0306331809957836,0.0
17.014784,0.038384883885826636,0.0
17.01718,0.04520542121609134,0.0
17.019568,0.056030160039189765,0.0
17.021948,0.06513233736959174,0.0
17.024344,0.07302380988649498,0.0
17.026732,0.08263784389609466,0.0
17.029111999999998,0.09225187790569433,0.0
17.031512,0.09786171042246031,0.0
17.0339,0.10254037737944796,0.0
17.036279999999998,0.1062878787766573,0.0
17.03868,0.10882467536036788,0.0
17.041068,0.11201309825013638,0.0
17.043452,0.11534129076676508,0.0
17.045844,0.11852971365653357,0.0
17.048232,0.11783086552223253,0.0
17.050615999999998,0.11592131257443274,0.0
17.053016,0.11338451599072216,0.0
17.055404,0.1085660794068743,0.0
17.057783999999998,0.10067460688997106,0.0
17.060184,0.09185196881328948,0.0
17.062572,0.08410026592324645,0.0
17.064951999999998,0.07727972859298174,0.0
17.067352,0.06657037672659641,0.0
17.06974,0.06158778784574123,0.0
17.072124,0.060749170084579966,0.0
17.07452,0.054183789337888574,0.0
17.076908,0.047618408591197176,0.0
17.079288,0.046267934150838234,0.0
17.081688,0.04277558933720221,0.0
17.084072,0.039143474896706,0.0
17.086456,0.03886393564298558,0.0
17.088852,0.036070438963650614,0.0
17.09124,0.032742246447021915,0.0
17.093624,0.029553823557253424,0.0
17.09602,0.027436335854123466,0.0
17.098412,0.025598387404713926,0.0
17.100792,0.025598387404713926,0.0
17.103192,0.025598387404713926,0.0
17.10558,0.025598387404713926,0.0
17.107964,0.025598387404713926,0.0
17.11036,0.025598387404713926,0.0
17.112748,0.025598387404713926,0.0
17.115132,0.02548300044800082,0.0
17.117528,0.02136341199845401,0.0
17.11992,0.014310557242712027,0.0
17.1223,0.011261903979803747,0.0
17.124699999999997,0.008213250716895467,0.0
17.127088,0.003953892640488445,0.0
17.129472,0.009996041560766705,0.0
17.131867999999997,0.02320607984768185,0.0
17.134259999999998,0.0410228282473762,0.0
17.13664,0.07024398493201842,0.0
17.139039999999998,0.10898283611190479,0.0
17.141427999999998,0.15856701706929818,0.01248546839144568
17.143812,0.21685465743092153,0.02455171990608621
17.146212,0.2869187931298302,0.03583889928624153
17.1486,0.3695508200989424,0.04651613093457593
17.150983999999998,0.4648905079651183,0.05671154310549171
17.15338,0.570935755981941,0.06669799979711422
17.155772,0.6926219312020225,0.07617937789589213
17.158151999999998,0.8223599395202761,0.08567801183746707
17.160552,0.9616400250039209,0.09505704989611649
17.16294,1.1099503309737593,0.10431421843543953
17.165324,1.2667790007505935,0.11344644329660182
17.16772,1.4294723072819486,0.12256205006207725
17.170112,1.5961679194482685,0.1317370712358999
17.172492,1.7679839942644344,0.14082908254144966
17.174888,1.947341941357444,0.14970799081482342
17.177276,2.1232886274245537,0.15851879204449407
17.17966,2.2944416119237814,0.16732860716648756
17.182056,2.4574955414965935,0.17621918858064448
17.184444,2.608865523530737,0.1852091915734627
17.186828,2.7504611109740127,0.19420034648364398
17.189224,2.8796285767739445,0.19074154458132275
17.191612,2.9986495609306707,0.18772132466906993
17.193991999999998,3.1024489267647186,0.18558839600831978
17.196392,3.1935878535299462,0.18399844181908145
17.19878,3.271786801972633,0.18284037370279874
17.201164,3.3381167072794167,0.18187678860093417
17.20356,3.3893647638903834,0.18134958941924043
17.205948,3.4311179651642014,0.18082454647088914
17.208327999999998,3.459883966287235,0.1805295797396659
17.210728,3.481109990991295,0.18024948880695899
17.213116,3.49288648632858,0.180130675931137
17.215495999999998,3.500148819351703,0.17993983733355917
17.217896,3.5087635226730547,0.1794319391366525
17.220284,3.513049159277478,0.17899048402380136
17.222663999999998,3.5096531539781974,0.17877871388255853
17.225064,3.502579708268047,0.1786184688455866
17.227452,3.4962051106921974,0.17837744845963405
17.229836,3.493183088303124,0.17797571808498547
17.232232,3.497238303339939,0.17729002299412236
17.234624,3.5018053750559517,0.1766186944922703
17.237008,3.50930571307816,0.17583599563816438
17.239404,3.5163867422197876,0.17509297529996828
17.241792,3.5264010376676107,0.17422482708470505
17.244176,3.5397206864739665,0.1732897661574288
17.246572,3.552481256772881,0.17241811128558718
17.24896,3.56761601487055,0.17150188843620026
17.251344,3.5806089025949417,0.1706809695685636
17.25374,3.5976059918121672,0.1697084908990612
17.256128,3.6203298440149227,0.1685263768049357
17.258508,3.6437053225237364,0.16736895760546275
17.260904,3.6693624410326864,0.16610595032171005
17.263292,3.6919465236085824,0.16496885646512582
17.265676,3.7047996417061135,0.16419303469002716
17.268075999999997,3.7135560105121943,0.1634988322891291
17.270464,3.7220800618927985,0.16275494328737808
17.272844,3.7319545877137603,0.16193940229430315
17.275243999999997,3.7415967961092456,0.1610890528882107
17.277628,3.7495164430120345,0.160288996853701
17.280012,3.7490555998768182,0.15975008745742936
17.282408,3.7494333745027637,0.15912025792253703
17.284799999999997,3.74846067468835,0.1585662871609554
17.28718,3.7514921763667695,0.15787098524078746
17.289576,3.7581085706574426,0.1570870915935603
17.291964,3.759649828268644,0.15648747643384717
17.294348,3.76398458255918,0.15580953233577804
17.296744,3.76524630091666,0.15524084119117482
17.299128,3.764226379274003,0.15476401277610605
17.301512,3.758363638377351,0.1545186028213271
17.303912,3.748356926361006,0.1544275457032773
17.3063,3.731272976918771,0.1545939710357117
17.30868,3.7111159915434806,0.1548731975820905
17.31108,3.694823438034163,0.15502352254097346
17.313468,3.6838383386297964,0.1550411052551125
17.315848,3.6783004629572384,0.15490501596494427
17.318248,3.6720637391503805,0.1548460748272633
17.320636,3.6663388720227195,0.15480331336076314
17.32302,3.6557711856410635,0.15499375194677104
17.325415999999997,3.64306162888613,0.1552723808501834
17.327804,3.635939065489868,0.1553841502599278
17.330188,3.6281176539593036,0.1555713213019187
17.332583999999997,3.6217864864959584,0.15566717681396725
17.334972,3.6126618223532785,0.15584208408877254
17.337352,3.599672726344625,0.15613498413613747
17.339751999999997,3.5876147958957496,0.15640595314835
17.34214,3.573694534327318,0.15672592114444434
17.34452,3.564849409438359,0.15686500196847641
17.346919999999997,3.5630815219752887,0.15675951893352938
17.349307999999997,3.565876914512493,0.15645828901648087
17.351688,3.5723969692888105,0.1560515806617194
17.354087999999997,3.5861340311178775,0.1553770879390293
17.356475999999997,3.604526920745836,0.1545735580506489
17.35886,3.6177049040674625,0.1539615652198443
17.361255999999997,3.6298119522024503,0.153393124454678
17.363643999999997,3.6413599218299963,0.15289373451894486
17.366028,3.6529078914575424,0.15238884699453928
17.368423999999997,3.660032350711675,0.15206375990752663
17.370811999999997,3.6719524073915584,0.1515866748838763
17.373196,3.6877368959374155,0.15098761752326859
17.375591999999997,3.701099974856276,0.15050751928346304
17.377983999999998,3.7141835145214164,0.15005620839097278
17.380364,3.7265682060522543,0.14968609920510553
17.382759999999998,3.738393819075652,0.1493726793543716
17.385151999999998,3.749800123218469,0.14910090593846367
17.387532,3.7621375929210643,0.1488006710425161
17.389931999999998,3.770331091503966,0.14864938959607804
17.392324,3.7730301445268153,0.14872805354522053
17.394703999999997,3.7711659175493892,0.1490065461415994
17.397119999999997,3.7650179498254093,0.14945357299474427
17.399507999999997,3.756216255048954,0.14996383160968044
17.401892,3.74578454657842,0.15056944382459567
17.404287999999998,3.7281358310551367,0.15144252017104012
17.406675999999997,3.715422482584465,0.1521556083683258
17.40906,3.7056424004199884,0.15276647281145042
17.411455999999998,3.6932085912030383,0.1534416901429999
17.413843999999997,3.6827768827325036,0.15404929966822173
17.416228,3.6747665838889674,0.15454916301562585
17.418628,3.6667562850454303,0.15504270705391082
17.421015999999998,3.6564643462017568,0.1556308371341438
17.423396,3.6483142777313597,0.15613359567880872
17.425791999999998,3.6443081803806567,0.15648263006843302
17.428179999999998,3.6381602126566763,0.15691410021774027
17.430564,3.637227151239029,0.15715517806660065
17.432964,3.63722525538116,0.15737161668995703
17.435351999999998,3.6349417195231535,0.15768621606201347
17.437732,3.637453781090899,0.15785565423692222
17.440127999999998,3.6402453819123655,0.157995453430787
17.44252,3.6426648956814933,0.15810193860438032
17.4449,3.648948841316595,0.15808078510061424
17.447295999999998,3.6568155788175334,0.15803436602454562
17.449688,3.664030690012413,0.15798519409209996
17.452067999999997,3.6784628082600426,0.15765848217592676
17.454468,3.691963760947893,0.15736554346961829
17.456856,3.6997379506502135,0.15725507007941192
17.459235999999997,3.7096540107258122,0.15705801397232014
17.461636,3.718499135614772,0.15690489020020187
17.464028,3.7273442605037315,0.15675176642808358
17.466407999999998,3.734606593526855,0.1566254592878495
17.468808,3.745361271363614,0.1563454073009512
17.471204,3.756395488454093,0.1560425555166265
17.473588,3.762494338491962,0.1559041537438537
17.475984,3.7691522670372697,0.15570438588165209
17.478372,3.7725973900226624,0.15563060090448572
17.480756,3.778603692261913,0.1554345385649
17.483152,3.793037706367411,0.15494236086319052
17.48554,3.809613590846187,0.1543810853859782
17.487924,3.828191576071379,0.15375017815524625
17.49032,3.8522167850283813,0.15299158321198478
17.492708,3.8723775621194103,0.15234501746721824
17.495092,3.8926781088372993,0.15168897629024883
17.497487999999997,3.912978655555188,0.1510329351132794
17.499876,3.928483604847325,0.150516237471955
17.50226,3.941846683766185,0.15007481926624067
17.504655999999997,3.959213964177879,0.14950305828914287
17.507044,3.978443575709129,0.14889441817826443
17.509424,3.99781295686724,0.14827090763634612
17.511823999999997,4.016390942092433,0.14765585386009333
17.514211999999997,4.0357603232505435,0.14703414949587879
17.516592,4.0489836325425435,0.14661347300327365
17.518991999999997,4.056340409222153,0.14636225372602985
17.521379999999997,4.063045559595705,0.1461040228615488
17.523764,4.069610940342396,0.14585820917628153
17.526176,4.071520493290195,0.14573324890185047
17.528564,4.06914630549144,0.14576485312356843
17.530943999999998,4.057832549147241,0.14607063234635947
17.53334,4.0420027346310095,0.14648004089329944
17.535732,4.02552129380872,0.14688598404058573
17.538111999999998,4.002661463694842,0.1474438220552881
17.540508,3.9830144391408804,0.1478885155875252
17.542896,3.9637867234674986,0.1482842348091613
17.545279999999998,3.9437676118611993,0.14869109385876308
17.547676,3.927892471374594,0.14895866119860193
17.550064,3.91257640939543,0.1491732857887365
17.552448,3.89432708111007,0.14947474285001347
17.554844,3.8714219250258184,0.14989205650271814
17.557232,3.8477253730086485,0.15032067635515417
17.559616,3.824820216924398,0.15074083944192462
17.562012,3.798050628974173,0.15127845248468463
17.5644,3.77593686882284,0.15169868048511706
17.566779999999998,3.7572682316569,0.15205942034655934
17.56918,3.738040515983519,0.152488949149164
17.571568,3.7225374625492513,0.15281248238423614
17.573947999999998,3.714251416167733,0.15288633818714992
17.576348,3.7081072401594914,0.15288155248117696
17.578732,3.702754460084168,0.15286779161384922
17.581115999999998,3.7000554070613196,0.152790288355776
17.583512,3.7000100810909458,0.1526498302303322
17.5859,3.7055517484792415,0.1523549431843132
17.588283999999998,3.711745042173596,0.15206791129457217
17.59068,3.7156566958678123,0.15187594515016672
17.593068,3.7215704503084455,0.15162005783650895
17.595447999999998,3.7238520903085828,0.1515268238158098
17.597844,3.726645586987918,0.15145194224502198
17.600232,3.7351658466527833,0.15121535647277684
17.602611999999997,3.7444775022505667,0.1509652847179939
17.605012,3.758305216020381,0.15061047357037918
17.6074,3.774135030536613,0.15019664576647002
17.609779999999997,3.7938292769188178,0.14966457970793662
17.61218,3.810869796248548,0.14919377128697678
17.614568,3.8301919555784147,0.14863461686327628
17.616947999999997,3.8571504308416125,0.14780200638830543
17.619343999999998,3.8795928479327784,0.1470804604989874
17.621731999999998,3.899474085770087,0.14649092811840353
17.624115999999997,3.9230799858465084,0.14582191033192143
17.626511999999998,3.9525524185353205,0.1449947163507026
17.628899999999998,3.979743211223995,0.14425314211084328
17.63128,4.005863068726032,0.1435585578128054
17.633675999999998,4.030911991041429,0.14291541368426983
17.636067999999998,4.05409858223727,0.14232111025155797
17.638448,4.079799130858725,0.1416892581310295
17.640843999999998,4.100796629853045,0.14122977219417843
17.643231999999998,4.124075768847503,0.14068358561456243
17.645616,4.147215138215102,0.1401479586871997
17.648016,4.16355680941053,0.13979517374413733
17.650403999999998,4.181481272471796,0.13942389266090585
17.652787999999997,4.19488967736103,0.13915356319763134
17.655184,4.205225046317208,0.1389754127548248
17.657572,4.217562516019804,0.13874622300368739
17.659952,4.231902086468817,0.13846238298308688
17.662347999999998,4.242237455424995,0.13828873394301927
17.66474,4.2467988395674,0.1383252893883703
17.667119999999997,4.255596742628115,0.138298329230614
17.669515999999998,4.26532581124861,0.13825206770439305
17.671903999999998,4.27198184393605,0.13829295456961527
17.674287999999997,4.274493905503795,0.13844953480142946
17.676683999999998,4.281941334124152,0.13848445155634745
17.679071999999998,4.290180158677428,0.1385131322079317
17.681455999999997,4.29441478173787,0.13864232050240197
17.683851999999998,4.297438699984813,0.13881531329824745
17.686239999999998,4.297948660806141,0.1390211234728828
17.688623999999997,4.308236807934076,0.13893274335606112
17.691019999999998,4.321737760621927,0.13875673730048238
17.693407999999998,4.339941762936913,0.13842978316193888
17.695791999999997,4.36280159305079,0.13800847014888085
17.698188,4.386080732045249,0.13755431919905242
17.70058,4.409871727718905,0.13711497073248322
17.702959999999997,4.434593888952339,0.13665364028976007
17.705356,4.456243014252718,0.13627685218132896
17.707748,4.476541665112737,0.1359548324976218
17.710127999999997,4.501496143771648,0.1355420493963649
17.712528,4.525798996124502,0.13511878596341415
17.714916,4.546796495118822,0.13473600727013338
17.717299999999998,4.565000497433808,0.13440822507304878
17.719696,4.579479837509681,0.1341500790478863
17.722088,4.594378486466133,0.1338557430123095
17.724467999999998,4.603969681317637,0.1336503869053392
17.726864,4.611046918743527,0.13347658784694236
17.729252,4.621476731356191,0.13320029071719033
17.731635999999998,4.63740098952891,0.13276760359815332
17.734032,4.655746657328624,0.13225453706236162
17.73642,4.665944152515813,0.131948532429107
17.738804,4.6692041799039705,0.13179937970335928
17.7412,4.669111632105354,0.13174825674397664
17.743588,4.666784666134842,0.13170185985335275
17.745972,4.661524433858135,0.13171643690536944
17.748368,4.656031884155954,0.13169122239517594
17.75076,4.6501672474014315,0.13163727871268832
17.75314,4.645141228408073,0.1315151118257077
17.75554,4.641093596802733,0.13131383407720826
17.757928,4.633088985532805,0.13113803721527137
17.760308,4.626854157583816,0.13087806096970003
17.762708,4.621830034448325,0.13057886618274406
17.765096,4.618156385753193,0.13022927275058388
17.767476,4.619697643364393,0.12975289305896787
17.769876,4.620167965788956,0.1293032488321981
17.772264,4.6222210800793535,0.12884194430559875
17.774648,4.62506559030267,0.1283747491589624
17.777044,4.62576823015271,0.127963332592981
17.779432,4.619253862950001,0.1277229051393448
17.781812,4.608967611679935,0.12760989814815474
17.784208,4.599612525969647,0.12748087029173014
17.786596,4.590909066565418,0.12735887427351303
17.788975999999998,4.578201405668354,0.12732811227751623
17.791376,4.567728162943183,0.12729198607210024
17.793764,4.5609795824571275,0.1271884875414247
17.796143999999998,4.558607290516242,0.12702460570315258
17.798544,4.5576780208143335,0.12686206799268457
17.800932,4.553768262977986,0.12682367150166118
17.803312,4.547297325887782,0.12687539128388545
17.805708,4.541850102155971,0.1269633995473582
17.808096,4.536635195849638,0.1270911250721125
17.81048,4.5289988799163075,0.1272983637671604
17.812876,4.51936046323656,0.12755083596390585
17.815264,4.506509240996899,0.1278851300359896
17.817648,4.493658018757237,0.128221744863431
17.820048,4.479084235024878,0.12858195809593959
17.822436,4.466512552038936,0.12889461453311862
17.824816,4.45594296979941,0.1291624401091071
17.827212,4.446304553119663,0.12941891579511108
17.829604,4.438156380507136,0.12961450429128446
17.831984,4.432010308641026,0.12976391138373897
17.834384,4.430939373454388,0.12979267103377212
17.836772,4.432801704573943,0.12975817604960255
17.839152,4.431218912708107,0.12976895661840884
17.841552,4.427913559349575,0.12980188103724122
17.84394,4.416599803005375,0.13001941877597242
17.84632,4.405146277034315,0.1302473047733125
17.848716,4.399047426996447,0.13033098232323184
17.851108,4.399326966250166,0.1303076887781613
17.853488,4.400677440690526,0.1302559559248165
17.855884,4.398815109570969,0.1302899042538616
17.858276,4.402679541436944,0.13021080875340602
17.860656,4.411711657781006,0.13006639768279107
17.863056,4.421395400431127,0.12992716756977807
17.865444,4.433081243827664,0.1297428443648566
17.867824,4.44541871353026,0.1295623872388371
17.870224,4.45482291692666,0.12944580151029142
17.872612,4.462085249949784,0.12938652752947133
17.874996,4.474422719652379,0.12920850847895562
17.877395999999997,4.4876913549147535,0.12901349732135717
17.87978,4.501239529430847,0.1287987311877489
17.882164,4.511202811334688,0.1286412803800317
17.88456,4.518512366186055,0.12852025176247936
17.886948,4.531548684022952,0.1282911901692878
17.889332,4.545655937046486,0.12803657579082608
17.891728,4.565257635630073,0.12762720536480257
17.894116,4.584347477534464,0.12720186245579015
17.8965,4.5951493771994665,0.12697406336529668
17.898895999999997,4.597570786826464,0.12689491410812698
17.901284,4.599620109401124,0.12678653865075964
17.903668,4.60516177678942,0.126570695635425
17.906063999999997,4.606327155632545,0.12641532561421318
17.908452,4.601533454064662,0.12632757336481273
17.910836,4.593434399138247,0.12627098442838403
17.913231999999997,4.586406279398471,0.12618574632935123
17.915619999999997,4.583242591524667,0.12602500812298112
17.918004,4.581010069210642,0.12584795531446677
17.920399999999997,4.579848482083256,0.12564299025682105
17.922787999999997,4.574542923836176,0.1255370637153375
17.925172,4.575103898201486,0.12531535365986166
17.927567999999997,4.572963923686078,0.125191803712925
17.929955999999997,4.57054440991695,0.125090312554668
17.93234,4.57478282469313,0.12486940644501433
17.934739999999998,4.570221440550724,0.1248211929890244
17.937127999999998,4.562726790102124,0.12483040179395113
17.939511999999997,4.553090269280246,0.12489199079367196
17.941907999999998,4.542522582898591,0.124968355077491
17.9443,4.540941686890624,0.12479860969747794
17.946679999999997,4.544715466815849,0.12449428438025224
17.94908,4.547418311554436,0.12421681547683246
17.951468,4.548258825173466,0.12397053667662901
17.953851999999998,4.547888633978998,0.12376088511953631
17.956248,4.549380773904086,0.12351864880786602
17.958636,4.556739446441565,0.12315936064225591
17.961019999999998,4.5613046222997085,0.1228485188330371
17.96342,4.5613537399858215,0.12260393368060035
17.965808,4.559820065806098,0.12236650819487555
17.968192,4.5587057005069545,0.1220951448673603
17.970588,4.559081579275031,0.1217626226434572
17.97298,4.549726493564743,0.12161654702057882
17.975364,4.541210025615617,0.12140243784309653
17.97776,4.533904262479989,0.12114995391907961
17.980152,4.519800801172192,0.12102584260184196
