Time,Force,Position
16.731128,0.3536441315827207,0.0
16.733516,0.33329825889445786,0.0
16.735896000000004,0.31109005508663834,0.0
16.738296,0.29689025426448634,0.0
16.740684,0.2837613886289728,0.0
16.743068,0.2735657892996544,0.0
16.745464,0.26271856366427815,0.0
16.747852,0.2515917987751814,0.0
16.750236,0.23725222832616913,0.0
16.752632,0.22477498899671347,0.0
16.755020000000002,0.20643121705486744,0.0
16.757404,0.1830895816264323,0.0
16.7598,0.16188981657127427,0.0
16.762188000000002,0.14455448338208968,0.0
16.764572,0.12721915019290508,0.0
16.766968,0.1148191840563325,0.0
16.769356000000002,0.10628364978573343,0.0
16.77174,0.09760834588827413,0.0
16.774140000000003,0.09025346506653388,0.0
16.776528,0.08129862191535418,0.0
16.778908,0.07206423951045407,0.0
16.781308000000003,0.06376102266533226,0.0
16.783696,0.05825130249954541,0.0
16.786076,0.05045994233362129,0.0
16.788472,0.0435997477274755,0.0
16.790864,0.034737452374912846,0.0
16.793244,0.025595617768629775,0.0
16.79564,0.017524718348985235,0.0
16.798028000000002,0.01052475411597923,0.0
16.800412,0.0024538546963346897,0.0
16.802808,0.00024948788908049445,0.0
16.8052,0.00024948788908049445,0.0
16.80758,0.00024948788908049445,0.0
16.809976,0.0002494878890804945,0.0
16.812364000000002,0.0002494878890804945,0.0
16.814748,0.0002494878890804945,0.0
16.817144,0.0002494878890804945,0.0
16.819532000000002,0.0002494878890804945,0.0
16.821916,0.0,0.0
16.824312,0.0,0.0
16.826700000000002,0.0,0.0
16.829084,0.0,0.0
16.831484000000003,0.0,0.0
16.833868000000002,0.0,0.0
16.836252,0.0,0.0
16.838652000000003,0.0,0.0
16.84104,0.0,0.0
16.843420000000002,0.0,0.0
16.845820000000003,0.0,0.0
16.848208,0.0,0.0
16.850592,0.0,0.0
16.852992,0.0,0.0
16.855380000000004,0.0,0.0
16.857764000000003,0.0,0.0
16.86016,0.0,0.0
16.862552,0.00237998311514209,0.0
16.864932000000003,0.011555768544583605,0.0
16.867331999999998,0.03325411927385468,0.0
16.86972,0.061748272317425155,0.0
16.872100000000003,0.09997149398149022,0.0
16.874499999999998,0.1439195827732162,0.011932895457121994
16.876884000000004,0.19666557462565845,0.022934143074437544
16.879268000000003,0.25541597285948203,0.03364754348527979
16.881664,0.3183084463551302,0.04436576401872004
16.884052000000004,0.3877644047396006,0.054680291668601534
16.886436000000003,0.46178174726647636,0.06489354874988137
16.888832,0.5403604739357573,0.07501729248961812
16.891220000000004,0.6212189447473064,0.08535292932407718
16.893604000000003,0.7067785693281209,0.09556297679474181
16.896,0.7961081821184225,0.10574077627038135
16.898388000000004,0.887624991252375,0.11597831163809133
16.900768,0.9858922767302533,0.1257813090891679
16.903168,1.087464915566664,0.13540370348881034
16.905552,1.1915515118286897,0.14489088418037982
16.907936,1.2945671729040766,0.1544716028758158
16.910332000000004,1.3959942467972397,0.16401725213479648
16.91272,1.4914169143090212,0.17352836263074192
16.915100000000002,1.5721751461476963,0.1832280702149631
16.917500000000004,1.64706874123185,0.1928620151513382
16.919884000000003,1.7113021021357306,0.20256172273555934
16.922268000000003,1.772743862218146,0.2001059177299317
16.924664,1.8252479496129845,0.19861058063406037
16.927052000000003,1.874541127305777,0.1972193150357084
16.929436000000003,1.9215545608563014,0.1957059022395601
16.931836000000004,1.9606540350776447,0.19473734515400914
16.934224,1.9967749170224187,0.1938073251711859
16.936604000000003,2.0269839403844285,0.1931086535122472
16.939004000000004,2.058917421097004,0.1919123824517261
16.941392,2.088943244719649,0.19067877502756964
16.943776,2.1172011808792237,0.18934802707421172
16.946172000000004,2.1452740214415646,0.18783248700022945
16.94856,2.1618007882342276,0.1870334765918835
16.950940000000003,2.1753017409220785,0.18636349894642987
16.953339999999997,2.1845661746916187,0.1859103083302047
16.955724000000004,2.1930392125282405,0.18547442787526724
16.958108000000003,2.201000393685665,0.18502016918815226
16.960507999999997,2.2093808837236697,0.18449254048979424
16.962896,2.217249517082477,0.18391619259580866
16.965276000000003,2.223116049694867,0.18349023790628785
16.967672,2.228842812680398,0.18308482668549736
16.970060000000004,2.22656117268026,0.1833009439230206
16.972444000000003,2.2204151008141495,0.18382424204349335
16.97484,2.2102648274552052,0.1846674522556775
16.977228000000004,2.201697345962097,0.1854042686110176
16.979612000000003,2.1940610300287675,0.18609202289610272
16.982011999999997,2.1844226133490205,0.18693537993596632
16.9844,2.1787883981621077,0.18745789148376368
16.986780000000003,2.167519967788281,0.1884879814914139
16.989176,2.1550408326009562,0.18960134392487188
16.991564000000004,2.140419827040354,0.19087438582051597
16.993948000000003,2.12672998703953,0.19203929476668344
16.996347999999998,2.1176959748375985,0.19295143466615053
16.998736,2.1091738193148637,0.19387848748136097
17.001116000000003,2.1054472612178814,0.19447695615477914
17.003512,2.1037228038673152,0.19493674400669156
17.005900000000004,2.10185857688989,0.19542221766284182
17.00828,2.0992029539795456,0.19593273656121532
17.01068,2.101622467748674,0.19607846485828373
17.013068000000004,2.1075343263314386,0.19592410763175605
17.015452000000003,2.1161471337949207,0.19550306086043537
17.017848,2.1323962571917323,0.19445853720589962
17.020236000000004,2.153208660588819,0.19298069385546995
17.022620000000003,2.1716468761871512,0.19153876633170264
17.025028,2.18226368025492,0.1905313035686557
17.027416000000002,2.189714900591016,0.1896290945833313
17.0298,2.1978649690614125,0.18857906891444914
17.032196,2.2016387489866385,0.18779652767760435
17.034584000000002,2.2055995203669676,0.18682655809939042
17.036968,2.2061151687619036,0.18605847967785105
17.039364,2.2067705867837,0.18526011031835204
17.041752000000002,2.2014197025662456,0.18494719000596838
17.044136,2.1960688183487918,0.1846353914094312
17.046536000000003,2.186993271892224,0.18459807118303143
17.048924,2.1708404880097674,0.18517038958485163
17.051304000000002,2.154547934500451,0.1857705406430233
17.053704000000003,2.1371844458044955,0.18647700677948412
17.056092,2.1173995474815426,0.18746328052061872
17.058472000000002,2.093051369158315,0.18891654470248356
17.060872000000003,2.0642796804616736,0.19080182835580922
17.063264000000004,2.033598438817232,0.19294268876914822
17.065644,1.9980743779187955,0.19561575377341223
17.068044,1.962642864818976,0.19836569413397023
17.070432000000004,1.933869280264465,0.20058441684058292
17.072816000000003,1.9142675816808774,0.2021265998109315
17.075212,1.9041173083219332,0.20294730583575543
17.077600000000004,1.8930358694032106,0.20383151466042937
17.079984000000003,1.8858188623504615,0.20442379877014613
17.08238,1.8819072086562447,0.20484670696641433
17.084768000000004,1.882139526081722,0.20492962034256854
17.087152000000003,1.8803697427607826,0.2051703288099783
17.089551999999998,1.877808563506925,0.205462184202338
17.09194,1.878599959439843,0.20542602689384487
17.094320000000003,1.8826041609326767,0.20509201622275847
17.096719999999998,1.8908921031720645,0.20433567520319693
17.099108,1.9013219157847296,0.2033946518387335
17.101488000000003,1.9146849947035893,0.20222598013737592
17.103887999999998,1.931121109555505,0.2007740173442893
17.106276,1.9476969940342803,0.19922590399959222
17.10866,1.9644126481399162,0.19758361480817335
17.111060000000002,1.981687380752993,0.1958079428708483
17.113447999999998,2.002454458179706,0.19360637751092755
17.115831999999997,2.0237806141138592,0.1913097073147957
17.118228000000002,2.0420337341149573,0.18937220256318946
17.120616,2.0564224222500824,0.18784286118265303
17.122999999999998,2.0642929514667587,0.18683933614647236
17.125396000000002,2.073466733295551,0.1858255617717577
17.127788000000002,2.0783567743777893,0.18518841894911545
17.130167999999998,2.0825951891539694,0.18457066000538658
17.132564000000002,2.081339158370097,0.18443730306613418
17.134956000000003,2.082224997959501,0.18411690627567054
17.137335999999998,2.0931213412809897,0.18303170242962172
17.139736,2.0977318431095076,0.1824681668483679
17.142128,2.105927237550278,0.1817132439186147
17.144512,2.1157054238568853,0.18091191222784225
17.146912,2.1234815094170756,0.18026914029184724
17.149300000000004,2.1312575949772654,0.17964788733317402
17.151684000000003,2.1348897094177617,0.17931928912011477
17.15408,2.1415948597913133,0.1787660321457673
17.156468000000004,2.154026773150395,0.17786456411262858
17.158852000000003,2.1661791472557566,0.17702128549359933
17.161248,2.1749789461743423,0.17644558021099999
17.16364,2.183638975466067,0.17591006520040875
17.166020000000003,2.1924387743846525,0.17534931321626218
17.168419999999998,2.1975139110641253,0.1749972348623738
17.170816000000002,2.201098803676378,0.17480175375179935
17.1732,2.2031009044227954,0.17466238515449517
17.175596,2.209386745915766,0.17418916422698433
17.177984000000002,2.2133909474085995,0.17391104386089146
17.180368,2.223541220767544,0.1731835092894238
17.182768000000003,2.2383473219253798,0.17221709748535827
17.185160000000003,2.2437945456571895,0.17193088113463553
17.187544000000003,2.2521750356951946,0.171446025410398
17.189964000000003,2.254409453867089,0.17139219122407168
17.192348000000003,2.256643872038983,0.17134132220848672
17.194724,2.257527815770518,0.1714195588585092
17.197116,2.255338723568998,0.17170423052912775
17.1995,2.261158034353145,0.17147703086911015
17.201880000000003,2.2707020073764053,0.17107139267249213
17.204292000000002,2.275450382973914,0.17093660843208586
17.20668,2.281921320064119,0.17073581205512828
17.20906,2.296680199393712,0.17004393324450434
17.211475999999998,2.3091574387231675,0.16951163255294394
17.213860000000004,2.3204239732391247,0.16906792845345955
17.21624,2.335415169994195,0.16843204636665907
17.218643999999998,2.352548237122542,0.16763787310320752
17.221032,2.3727543401839446,0.1666652127668794
17.223412000000003,2.389747637685432,0.16591473873792212
17.225816000000002,2.4067409351869182,0.1651472661268098
17.228203999999998,2.4201493400761525,0.16455888416289427
17.230584,2.4247579460468014,0.16445425887756449
17.232988,2.4317879616444467,0.16415164245968478
17.235371999999998,2.4432414876155066,0.1635610649678628
17.237752,2.4603292287734804,0.16258375688602011
17.240147999999998,2.474623473252119,0.16174830566845652
17.242536,2.491199357730895,0.16074957110846766
17.244916000000003,2.5107085085158656,0.1595965967047332
17.247312,2.5231404218749476,0.15886779277711852
17.249699999999997,2.5301251115022194,0.15839144478930137
17.25208,2.5368302618757714,0.15795317106163945
17.254483999999998,2.536737714077154,0.15785698664871764
17.256867999999997,2.5263551232927317,0.15835518678047739
17.259248,2.517323006948669,0.15874477744670457
17.261644000000004,2.5102929913510232,0.15902455996987303
17.264032,2.5014006446338213,0.15939192791115372
17.266416,2.4935792331032576,0.1596887607551069
17.268812000000004,2.481613850452999,0.16022738514629944
17.2712,2.4737924389224353,0.16051749501556012
17.273592,2.469183832951787,0.1606101404284743
17.275996,2.462945213287059,0.16086516578201748
17.278384000000003,2.4659257014214973,0.160596993627075
17.280763999999998,2.474632952541465,0.1600677145500892
17.283160000000002,2.4799876284746576,0.15976361528156513
17.285548,2.477985527728241,0.1598636432886007
17.287928,2.474912491795186,0.16002819299600665
17.290332,2.4716996862352705,0.16021217076541985
17.292720000000003,2.463039656943545,0.16061558997347464
17.295096,2.455869871719039,0.16089696075811377
17.2975,2.450282878360369,0.16114031428230086
17.299888000000003,2.447396833882417,0.16116763511603324
17.302267999999998,2.4518675660840743,0.16077195622145832
17.304672000000004,2.4607618086591465,0.16007967954431188
17.30706,2.4716581519806353,0.1592925878552088
17.309440000000002,2.482834034555844,0.15847263335141654
17.311836,2.495080852317691,0.15758509230998294
17.314224000000003,2.5073276700795386,0.15671137642043612
17.316603999999998,2.5238582285879407,0.1555888398145145
17.319000000000003,2.537175981536427,0.15467371286477805
17.321384000000002,2.5512851304178312,0.15377362990152313
17.323764000000004,2.5698177896726495,0.1526117818939537
17.326168000000003,2.5800625066880807,0.1518932565516907
17.328556,2.5853718566508994,0.15141503407222848
17.33094,2.588539336240441,0.1510478903051399
17.333336000000003,2.5957110173228166,0.1504837480283548
17.335720000000002,2.6050245687784686,0.14979609777321323
17.338104,2.6124757891145642,0.1491831077055233
17.3405,2.623372132436053,0.14844650986030605
17.342883999999998,2.638784533929573,0.14756050273785112
17.345264,2.652194834676676,0.14676957750504013
17.347672000000003,2.66383535210284,0.14615156216838543
17.350056000000002,2.67705866139484,0.14553204592928892
17.35244,2.6938668632990925,0.14481607817803288
17.354836,2.7093245907629866,0.1442085528298084
17.357224000000002,2.7214297430401047,0.143777423215112
17.359603999999997,2.7343262912501416,0.14333728985311056
17.362008000000003,2.747222839460178,0.14290550112871694
17.364392000000002,2.757558208416356,0.14264207302002138
17.366776,2.7661710158798387,0.14241843228358636
17.369172,2.76891729073093,0.1424274401361383
17.371560000000002,2.7713840263283016,0.14247657083945378
17.373939999999997,2.777994733045367,0.14234010059612784
17.376344000000003,2.782463569389155,0.14230407591863428
17.378728000000002,2.7881431105464425,0.14219439318567156
17.381107999999998,2.795684982823286,0.14202228330622782
17.383512000000003,2.806020351779465,0.14176125244578625
17.3859,2.8200803829747567,0.14137968190158315
17.38828,2.8392155508495205,0.14080533811640542
17.390676,2.855557222044949,0.14034037720465004
17.393064000000003,2.874040763613656,0.1397802004416431
17.395448000000002,2.8938747796227204,0.13913776537071104
17.397844,2.9090529678328942,0.13865197635757925
17.400228,2.9223688249235114,0.13823996162114324
17.402608,2.9338223508945718,0.13788025355959457
17.405008000000002,2.952353114291521,0.13726979321131194
17.407396,2.9707441080616106,0.13668242712488135
17.409776,2.9880641666450605,0.13614342634628374
17.412171999999998,3.0095281963482057,0.13546098300849138
17.41456,3.0367189890368795,0.1346170135754792
17.416956,3.0688451487781663,0.1336038105120224
17.419352000000003,3.1001799125865346,0.13261837193965534
17.42174,3.1284416404618476,0.13173845746042015
17.424120000000002,3.158985008337298,0.13074300973061184
17.426520000000004,3.189528376212748,0.1297475620008035
17.428904000000003,3.221282448901697,0.1287244569944215
17.431288000000002,3.249032320097813,0.12784517031634163
17.433684,3.2731972986816755,0.12705778533722295
17.436072000000003,3.2916355142800082,0.12644791862654553
17.438451999999998,3.3068609243184244,0.12595286363023486
17.440848000000003,3.320875629543343,0.1255159376861257
17.443236,3.333679629954762,0.12513657602044986
17.445616,3.3451331559258226,0.12482268745077188
17.448024000000004,3.348718048538075,0.12474305978850077
17.450408000000003,3.3564469122700222,0.12452068158799755
17.452792000000002,3.3561673730163015,0.12455317704956978
17.455188,3.3563071426431614,0.12453705714964731
17.457572,3.3541652722698845,0.12461667471630707
17.459956,3.3452257037244393,0.12489231692078627
17.462360000000004,3.3325614729398803,0.1252524940443884
17.464748,3.316963975849126,0.12569405623409777
17.467128000000002,3.300295543571733,0.12617079470440237
17.469524,3.2876313127871746,0.12652563542754894
17.471912000000003,3.276969182749032,0.12681466163097493
17.474296000000002,3.2667263615914712,0.1270548125670721
17.476692,3.251548173381298,0.1274320510074365
17.479080000000003,3.2395827907310397,0.12769522299222702
17.48146,3.2286883432674203,0.12792091626775495
17.48386,3.2187250613635787,0.12812528960651773
17.486244,3.211322958713595,0.1282101202136388
17.488624,3.203269229757554,0.12828601547289234
17.491024000000003,3.1896285074428423,0.12850312759176827
17.493412,3.1784091947551287,0.12861291156663873
17.495792,3.174267119493304,0.12849796677295866
17.498192000000003,3.166400381992366,0.12847444724630383
17.50058,3.1620259893050644,0.12829985989088483
17.50296,3.154718330311568,0.12821098859658192
17.505356,3.153044886504984,0.12789139426006854
17.507744000000002,3.153792852325397,0.12745522285361763
17.510128,3.153609652586032,0.1270417377950681
17.512532,3.1555683232199443,0.12654853470033497
17.514916,3.15580443236116,0.12608309225434372
17.5173,3.1513847137034845,0.12573506721278077
17.5197,3.144171498366473,0.12545727803827594
17.522088000000004,3.13760990933552,0.12518879640014274
17.524468,3.137194392170678,0.12472040904974209
17.526871999999997,3.1337058390727806,0.12435266935027779
17.52926,3.1299377467211618,0.12401725836235977
17.531640000000003,3.126029884742684,0.12369796959145403
17.534044,3.122773649070264,0.12338958056569707
17.536428,3.1224506797040386,0.12300176130679186
17.538812,3.1340005451894544,0.12227949831210387
17.541207999999997,3.144479475488232,0.1215943286611777
17.543596,3.1566809672797054,0.1208965071597638
17.545976000000003,3.168742689444319,0.12021156980996384
17.548372,3.180804411608933,0.11953191977313427
17.550760000000004,3.1959391697066017,0.11876052689019356
17.55314,3.207861122244356,0.118109479519829
17.555543999999998,3.2224368018345837,0.11742240722416107
17.557932,3.2339394454917567,0.11681206704767942
17.560312000000003,3.241437887656095,0.11630969604834927
17.562716,3.250798660939991,0.11576448703877623
17.565103999999998,3.263604557209279,0.11516522567052985
17.567484,3.2759911445979872,0.11460966063374894
17.569879999999998,3.288517501613555,0.11404565557487155
17.572268,3.2899624197104003,0.11379514814180795
17.574652,3.2915471074341056,0.11352713407667615
17.577047999999998,3.2934113344115317,0.1132275228287792
17.579436,3.2952755613889577,0.11292791158088225
17.581816000000003,3.2942065220601884,0.11270470131164156
17.584212,3.2892730508654457,0.1125784275808309
17.586604,3.2792644429912308,0.11259400362568879
17.588984000000004,3.2720493317963504,0.11255118925726569
17.59138,3.2600386231757184,0.11261704394167737
17.593767999999997,3.249750476047783,0.11266023220587555
17.596152000000004,3.2399741855990447,0.11272866260612747
17.598548,3.2296388166428662,0.11285537777391504
17.600935999999997,3.219163678059828,0.11299673300475477
17.603316,3.204544568357095,0.11325545456883761
17.605712000000004,3.1967231568265313,0.11335795005267253
17.6081,3.1975617745876925,0.11326786700740543
17.610480000000003,3.20040249309527,0.11312894792176224
17.612884,3.204733455670067,0.11291612777270124
17.615271999999997,3.214279324551197,0.11256470497561076
17.617652,3.219541452685772,0.11233641007511615
17.620048000000004,3.236396876418268,0.11185604665725696
17.622436,3.257116732016738,0.11130044482217885
17.624816000000003,3.2795591491079037,0.11073455229080889
17.627212,3.3010704006392926,0.11018275396030043
17.629604,3.324304213663376,0.10960532593962106
17.631984000000003,3.349260588180157,0.10900406330901394
17.634388,3.3739374234432176,0.10843812704439651
17.636772,3.394330517959723,0.10799662829384195
17.639156,3.4164461739689256,0.10752989357897332
17.641556,3.4385618299781275,0.1070679910136413
17.643943999999998,3.4586753852409133,0.10665383249984972
17.646324,3.4781373141976406,0.10622939804380574
17.648724,3.49666807759459,0.10581984866503695
17.651108,3.517200941737956,0.10535568991602201
17.653492,3.5350800788288477,0.1049376689545733
17.655887999999997,3.5461615177475703,0.10467391577017583
17.658276,3.5540301511063777,0.10450299717027366
17.660656000000003,3.561619245211465,0.10436503446317758
17.663055999999997,3.5619913322638026,0.10440571481500674
17.665444,3.5665073904358335,0.10434199950100694
17.667824000000003,3.567298786368752,0.10434083652699468
17.67022,3.565017146368615,0.10441121560447952
17.672608000000004,3.563526902301396,0.10447932375344086
17.674992000000003,3.565249463794093,0.10446459213427871
17.677388,3.5695332045406465,0.10435624763544564
17.679776000000004,3.5739567149140616,0.10423482573999689
17.682156,3.5750748719289427,0.10412810147555368
