Time,Force,Position
19.490244,0.17022001543592447,0.0
19.492628,0.1938693456248507,0.0
19.495008,0.21942822876157672,0.0
19.497408,0.24619781671180152,0.0
19.499796,0.26938251204977326,0.0
19.502176,0.2900532499621304,0.0
19.504572,0.3075584041428151,0.0
19.50696,0.32883544239085627,0.0
19.509344,0.34587596172058643,0.0
19.511748,0.36720022179687073,0.0
19.514136,0.38787285556709716,0.0
19.516516000000003,0.40747455415068506,0.0
19.518916,0.4260053175476344,0.0
19.521304,0.44253398019816687,0.0
19.523684000000003,0.4561293765425042,0.0
19.526084,0.4706559384466199,0.0
19.528472,0.4843911044178174,0.0
19.530852,0.4989176663219331,0.0
19.533248,0.50664653005388,0.0
19.535636,0.5123732930394101,0.0
19.53802,0.5139560849052465,0.0
19.540416,0.5116744449051093,0.0
19.542808,0.5069713952779745,0.0
19.545188,0.4997543882252253,0.0
19.547592,0.4956104171055314,0.0
19.54998,0.48732247486614355,0.0
19.55236,0.4819677989329509,0.0
19.554764,0.47246915188006433,0.0
19.557148,0.4657640015065127,0.0
19.559528,0.454123484080349,0.0
19.561928,0.4423431970273252,0.0
19.564312,0.42641893885460747,0.0
19.566696,0.4060711703084754,0.0
19.569092,0.38358153138906625,0.0
19.57148,0.3621628276562956,0.0
19.57386,0.34581926060299717,0.0
19.576256,0.3324089598558939,0.0
19.578644,0.31792772392215224,0.0
19.581028,0.30437765354818885,0.0
19.583424,0.29110712242794584,0.0
19.585812,0.2803977705615605,0.0
19.588192,0.2715507498147318,0.0
19.590596,0.2640542035082621,0.0
19.592984,0.2568371964555128,0.0
19.595368,0.2554867220151538,0.0
19.597764,0.2594909235079876,0.0
19.600152,0.26377466425454166,0.0
19.602532,0.27392493761348613,0.0
19.604928,0.2860773117188475,0.0
19.607316,0.3005113258243461,0.0
19.6097,0.31680767104940133,0.0
19.612096,0.3392500881405673,0.0
19.614484,0.3671869507917862,0.0
19.616864,0.39805707974920024,0.0
19.619268,0.42664556870647696,0.0
19.621652,0.44922775542450316,0.0
19.624036,0.46873690620947406,0.0
19.626432,0.4853127906882497,0.0
19.628816,0.5046821718463603,0.0
19.631196000000003,0.5239117833776107,0.0
19.633596,0.5404404460281431,0.0
19.635984,0.555106777559119,0.0
19.638364000000003,0.5667000731570394,0.0
19.64076,0.5786654558072973,0.0
19.643148,0.5830417443524686,0.0
19.645544,0.5822031265913074,0.0
19.64794,0.5828075310691222,0.0
19.650328,0.5776851725614067,0.0
19.652708,0.5677672166279396,0.0
19.655112000000003,0.561853462187306,0.0
19.6575,0.5522150455075592,0.0
19.659884,0.5387121969618391,0.0
19.662276,0.5233470172965621,0.0
19.664664,0.5076097505789477,0.0
19.667048,0.4960164549810273,0.0
19.669444,0.48456292900996706,0.0
19.671832,0.47310940303890675,0.0
19.674212,0.4635182081874032,0.0
19.676608,0.45113351665656454,0.0
19.678996,0.43967999068550423,0.0
19.681376,0.4298564784085233,0.0
19.683776,0.42389739799751597,0.0
19.686164,0.4179383175865086,0.0
19.688544,0.4142608771756384,0.0
19.690948,0.41016412788418766,0.0
19.693336,0.40900064489893206,0.0
19.69572,0.4036006429953656,0.0
19.698116,0.39899203702471703,0.0
19.700504,0.3962457621736252,0.0
19.702884,0.38642224989664425,0.0
19.70528,0.37832129911235973,0.0
19.707664,0.37794921206002224,0.0
19.710044,0.3833038879932149,0.0
19.712452,0.38781994616524634,0.0
19.714836,0.3923360043372777,0.0
19.71722,0.4005767247484225,0.0
19.719616,0.4089572147864274,0.0
19.722008,0.41747747445129246,0.0
19.724388,0.43228357560912856,0.0
19.726788,0.44387687120704905,0.0
19.729176,0.45397992273775034,0.0
19.73156,0.46007877277561793,0.0
19.733956,0.4723236946795963,0.0
19.736344000000003,0.4844288469567144,0.0
19.738724,0.499607035166888,0.0
19.741124,0.5127831226306447,0.0
19.743512000000003,0.5283333978931557,0.0
19.745896,0.5458857739020836,0.0
19.748292,0.5651607114037079,0.0
19.750680000000003,0.5890914767042238,0.0
19.753064,0.6134415508853204,0.0
19.75546,0.627920890961193,0.0
19.757848000000003,0.6345315976782582,0.0
19.760228,0.6438432532760414,0.0
19.762628,0.6500818729407691,0.0
19.765016000000003,0.6553893270457187,0.0
19.7674,0.6616279467104464,0.0
19.7698,0.6660042352556175,0.0
19.772188,0.6659570134273746,0.0
19.774568,0.6715440067860444,0.0
19.776964,0.6806233449583502,0.0
19.779352,0.691704783877073,0.0
19.781736,0.6957089853699068,0.0
19.784132,0.6961282942504875,0.0
19.78652,0.69575620719815,0.0
19.7889,0.6956636593995331,0.0
19.7913,0.6958506508546365,0.0
19.793688,0.6963171815634601,0.0
19.796068,0.6925471933539729,0.0
19.798468,0.6871944132786496,0.0
19.800856,0.6854265258155791,0.0
19.803236,0.6907358757783979,0.0
19.805632000000003,0.7008408231669685,0.005443741504628882
19.80802,0.7086641305554019,0.010887483009257765
19.8104,0.7155562723840568,0.010887483009257763
19.812804,0.7196549175333768,0.010887483009257765
19.815192,0.7266868289888919,0.01640051409163298
19.817572,0.7385143378701591,0.02165864229170468
19.819968000000003,0.7474085804452308,0.02165864229170468
19.822356,0.7549523485799438,0.027036109694403645
19.82474,0.7588640022741604,0.0326586238773086
19.82714,0.7630551952220973,0.038093773506172435
19.829528,0.7720419855957862,0.04340186347000046
19.831912000000003,0.7796783015291161,0.04902437765290541
19.834308,0.7870350782087256,0.05470728936449807
19.836696,0.7950434811943929,0.06045100877017009
19.839080000000003,0.8019809489934218,0.06619472817584211
19.841476,0.8046346760458966,0.0661947281758421
19.843864,0.8095228212702654,0.0661947281758421
19.846248000000003,0.8153421320544127,0.0661947281758421
19.848644,0.816365845412808,0.0661947281758421
19.851036,0.8123144220917311,0.0661947281758421
19.853416000000003,0.8076113724645966,0.06075098667121322
19.855812,0.8047706539570184,0.055307245166584335
19.8582,0.8057943673154138,0.06117382728369884
19.86058,0.8086804117933657,0.06704040940081334
19.86298,0.8107750603383996,0.06712628070946419
19.865368,0.8099364425772383,0.06746705490041857
19.867748,0.8152438966821878,0.07276390298436991
19.870148,0.8156159837345253,0.07292762273686362
19.872536,0.8185492500407204,0.07266842312126286
19.874916,0.8192008763467783,0.072717117975335
19.877316,0.8192008763467783,0.07271711797533502
19.879704,0.8261383441458071,0.07212800101555736
19.882084,0.8312134808252796,0.07163632399323128
19.88448,0.8384304878780288,0.07092600181068658
19.886868,0.8456474949307781,0.07021567962814186
19.889252,0.8557977682897225,0.0752990815917741
19.891648,0.8660878112755273,0.08043277890430603
19.894036,0.8742359838880549,0.0856722314988956
19.89642,0.8801025165004452,0.09125996769626661
19.89882,0.889042085045891,0.09672606971743807
19.901208,0.8947688480314211,0.10238306355060656
19.903592,0.8947688480314211,0.10238306355060656
19.905988,0.8931860561655849,0.09651648143349206
19.908376,0.8905323291131101,0.09064989931637757
19.91076,0.8866678972471366,0.08505099692535148
19.91316,0.8858765013142185,0.08506258159579619
19.915548,0.8840141701946618,0.08518462166459162
19.917932,0.8860162709410786,0.08500004462997618
19.920332,0.8850851053813003,0.08506360084107362
19.92272,0.8861560405679388,0.0849430709254418
19.925104,0.8897409331801918,0.0847686782741457
19.9275,0.8906720987399701,0.08471891341148843
19.929892,0.8968181706060808,0.08423641342381316
19.932272,0.8980288754195797,0.08408964312327152
19.934668,0.8961665443000231,0.08419514989393168
19.937056,0.8987277235538808,0.08385860029646622
19.939436,0.903710312434736,0.08325528619958335
19.941832,0.9128368724352851,0.08235673481327817
19.944224,0.9263869428092485,0.0809976393803769
19.946604,0.9408681787429902,0.07966401760632143
19.949,0.9582826809829272,0.07811272043292083
19.951388,0.9815637158352546,0.08213073483861877
19.953768,1.0062877729265578,0.08613708792160793
19.956172,1.035155801137555,0.09000885850388748
19.95856,1.0598798582288584,0.09405072363115145
19.96094,1.0815308793871061,0.09248210169694465
19.963344,1.0983863031196022,0.09118024500510123
19.965732000000003,1.1113772949861247,0.09006250914531731
19.968112,1.1234371212928689,0.08892570103169606
19.970516,1.1281873927482469,0.08805649945618145
19.972904,1.1226948430460633,0.0877375737301959
19.975284,1.1121271566644075,0.08275394136972589
19.97768,1.093551067297084,0.07804520666813458
19.980068000000003,1.0799103449823726,0.07315857974554893
19.982448,1.0717640682277143,0.06801967575176149
19.984844,1.0573319499800853,0.06327282338559467
19.987232,1.0414095876652367,0.05874244016994563
19.989616,1.0224141894173329,0.054401538961661236
19.992012000000003,1.0040704174754866,0.050172898197191486
19.994396,0.9805117392273083,0.0460404179500755
19.99678,0.9561616650462117,0.04193472129030759
19.999176,0.9298094901186984,0.03791670688460966
20.001564,0.9021540625790692,0.033910353801620496
20.003944,0.8724965342930232,0.03003858321934095
20.006344,0.8446087893279168,0.02599671809207698
20.008732,0.8147189436163933,0.02195485296481301
20.011112,0.7865516593975665,0.017837821503909636
20.013508,0.761457411111795,0.013598947243116343
20.015896,0.7415308473041127,0.009308884578335952
20.01828,0.7323589613331898,0.00481477158654637
20.020676,0.7303568605867728,0.0
20.023064,0.7342212924527464,0.0048147715865463694
20.025444,0.7486080847300017,0.009300917894051706
20.02784,0.7599218410742018,0.01387762262848404
20.030228,0.7666723174181274,0.018648340360681692
20.032608,0.7764958296951082,0.023319802574348365
20.035004,0.7839451541733349,0.027980293587269098
20.037392,0.7884612123453663,0.03284906143219524
20.039776,0.790323543464923,0.03771566310832149
20.04218,0.7947470538383372,0.037715663108321494
20.044568,0.798099629025113,0.037715663108321494
20.046952,0.7994501034654721,0.037715663108321494
20.049348,0.7993103338386118,0.037715663108321494
20.051736,0.7971684634653347,0.037715663108321494
20.054116,0.799402881637229,0.037715663108321494
20.056516,0.8027082349957615,0.037715663108321494
20.0589,0.808015689100711,0.037715663108321494
20.06128,0.8151854743252172,0.037715663108321494
20.063676,0.8239852732438028,0.04215771381585177
20.066064,0.8297592580575761,0.046405309248831204
20.068444,0.8362320910056504,0.050469605590543185
20.070848,0.8405630535804478,0.0497676357441321
20.073236,0.8383758572367968,0.049379407635765336
20.07562,0.8363284305200059,0.04893562775802548
20.078016,0.8393561404826874,0.048149696809678115
20.080404,0.8393108145123134,0.047576152795150026
20.082784,0.8436417770871106,0.04691655263559038
20.085184,0.8538392722742981,0.04591864023657798
20.087572,0.8658990985810424,0.04485449901530266
20.089952,0.8815438175000399,0.04854665876881096
20.092352,0.8999820330983721,0.05219707892471653
20.094736,0.9217728238834801,0.05571511089056435
20.09712,0.945565715415005,0.05921576776027277
20.099524,0.9692188373196698,0.06277112590426097
20.101912,0.9890075273583612,0.06634505775905478
20.104296,1.0109380877703293,0.0698259397078182
20.106692,1.033148187436018,0.07321749952896571
20.10908,1.05335618635529,0.07660905935011321
20.11146,1.0683492789682296,0.07561091549116455
20.113860000000003,1.0807811923273112,0.07489928348789619
20.116248,1.0915830919923137,0.0744470707991597
20.118628,1.1054580275903714,0.07385418616758584
20.121024,1.1202641287482076,0.07324008061130255
20.123412,1.1410765321452943,0.07241464965833948
20.125796,1.1560224029299904,0.07181203013812297
20.128192,1.1749724752075204,0.07103461474641407
20.13058,1.1923397556192141,0.07027573560844774
20.13296,1.2059823737917947,0.06962588995725003
20.135364000000003,1.2177626608448184,0.06902292379396296
20.137752,1.225818285658729,0.06850821017442549
20.140132,1.2312201834201646,0.06801263531233273
20.142536,1.2363425419278804,0.06760499738640643
20.144924,1.2417444396893162,0.06713907114520061
20.147304,1.2525010133839445,0.0664620348246739
20.149700000000003,1.2631178174517126,0.0658036966662369
20.152092,1.2714529815193436,0.06527686182407481
20.154472,1.2797881455869744,0.06477012622949997
20.156868000000003,1.2881233096546054,0.06426339063492512
20.159256,1.2965982433490966,0.06371098890473681
20.161636,1.3094966874170024,0.06295792918813226
20.164036,1.3240251451789875,0.062036890374760484
20.166424,1.3337580055152207,0.061215752791714255
20.168804,1.3442822617843715,0.060426801949987535
20.1712,1.3469378846947153,0.059826241701938565
20.173588,1.3557395794711702,0.05905192126531629
20.175968,1.3614682383145693,0.05837129538720383
20.178372,1.3619819908516362,0.05784482597187442
20.18076,1.359422707455648,0.05739131134831672
20.18314,1.358446215925496,0.056986787381540796
20.18554,1.3593320555149004,0.05656622188242978
20.187928,1.3600781254774443,0.056173487138801804
20.190308,1.3606844258131285,0.05581997373374009
20.192708,1.357938150962037,0.05561960475088062
20.195092,1.3499769698046127,0.05558222435371338
20.197476,1.3441576590204651,0.055467484676352104
20.199872,1.3406199882364553,0.05524283180722162
20.202260000000003,1.3357318430120864,0.0551201181308338
20.20464,1.3349876689074114,0.05488510056379159
20.207036,1.336105825922293,0.05464000281208917
20.209424,1.3341509470041197,0.054473426953666235
20.211804,1.3307058240187268,0.054428789480753435
20.2142,1.331544441779888,0.05425346564750246
20.216588,1.331591663608131,0.054053238609414994
20.218972,1.3353635476754875,0.05383969845866158
20.221368,1.3339205254365116,0.05375696477255158
20.223756,1.3348989128245328,0.05355441735400268
20.22614,1.3428147680115834,0.05324731548605214
20.228536,1.3567369254378845,0.052834800171397744
20.230924,1.3701472261849876,0.05234198727926001
20.23332,1.381555426185674,0.05188609269417191
20.235716,1.3957571228656953,0.05142728302378628
20.238104,1.4071653228663814,0.05097138843869818
20.240488,1.420855162867205,0.05041142675242688
20.242884,1.4314719669349731,0.049894532552724816
20.245272,1.4402264398831848,0.049388350470942095
20.247656,1.448841143204536,0.04892701620582432
20.25006,1.4555935154063309,0.04845821489339324
20.252448,1.45326654943582,0.04815606349536677
20.254828,1.4512191227190292,0.0477971353177656
20.257224,1.4460986600691832,0.04749516178094905
20.259612,1.4413975062999176,0.047099862311246424
20.261996,1.4321330725303776,0.04688825179518618
20.264392,1.4216579339473387,0.04673742903417665
20.26678,1.4125332698046589,0.04649298291975826
20.269164,1.4075525767816728,0.04615926064646989
20.27156,1.3982881430121326,0.04593631046651745
20.273948,1.387301147749896,0.04568161628321274
20.276332,1.3760346132339392,0.04548731690690433
20.278728,1.364348769837402,0.04537655034186724
20.281116,1.3565273583068376,0.04524593818941556
20.2835,1.3451210541640204,0.045076479582858694
20.285896,1.3355770811407601,0.044909335806329304
20.288284,1.32617287774436,0.044708836279128125
20.290664,1.3217040414005716,0.044463135162778424
20.29306,1.321099636922757,0.04420305271162213
20.295452,1.3162114916983882,0.04404284521855651
20.297832,1.3154673175937133,0.04380779812146986
20.300232,1.3176564097952335,0.043538488970208386
20.30262,1.3175638619966166,0.04335481844595633
20.305,1.319333645317556,0.043170564782397634
20.3074,1.3206841197579149,0.04308013736560488
20.309788,1.322174363825134,0.04295363269733388
20.312172,1.3238043775192134,0.04279200119745461
20.314568,1.3239441471460738,0.04276012772168454
20.316952,1.317798075279963,0.042876522951362635
20.319336,1.3155164352798256,0.04297132456061393
20.321732,1.308811284906274,0.04322924125151935
20.32412,1.2993126378533877,0.04348044960585122
20.326504,1.2891623644944432,0.04366420090346296
20.3289,1.2691413570302745,0.04399240988288072
20.331288,1.2508429110588024,0.044357150486376194
20.333672,1.2336154002739685,0.044678387099472264
20.336068,1.2141062494889978,0.0451050422432487
20.338456,1.1958078035175257,0.045440403737121125
20.340836,1.1724342208665814,0.04586312465529129
20.343236,1.1554862493354683,0.046088149598486054
20.345624,1.134114767430941,0.046486060692393485
20.348004,1.1190291270193844,0.04670435946358767
20.3504,1.1040832562346883,0.046895375533245943
20.352788,1.0902083206366306,0.047060099613433576
20.355172,1.076473154665433,0.047194243867734
20.357568,1.066742190187069,0.047269629713248384
20.35996,1.0579423912684836,0.047348175564543474
20.36234,1.0464888652974231,0.04738691153333675
20.36474,1.0391793104460567,0.04733493531957737
20.367128,1.0290762589153555,0.047276282681853195
20.369508,1.0233967177580685,0.04703904381657751
20.371904,1.0197192773471984,0.046767168237384325
20.374292,1.0186955639888031,0.04654088938537192
20.376676,1.02847375029541,0.04617258574580932
20.379072,1.038251936602017,0.045804282106246735
20.38146,1.0468194180951254,0.045514062338666554
20.38384,1.0592513314542071,0.045185617630110406
20.38624,1.0686102088802336,0.04494045228809694
20.388628,1.0778293166794,0.04471498272946069
20.391008,1.082764683732012,0.04464741961393547
20.393404,1.0893300644787032,0.04438078978736367
20.395792,1.090540769292202,0.044307390623687826
20.398176,1.0946847404118958,0.04420557499736972
20.400572,1.097757776344951,0.04413695812226136
20.402964,1.1000394163450884,0.04402809192341112
20.405344,1.1013898907854471,0.04392043009802412
20.40774,1.1038113004124446,0.043781125654797616
20.410128,1.1062327100394422,0.043637274343179405
20.412508000000003,1.1114476163457747,0.04350738708735563
20.414908,1.1191764800777217,0.04345646478213241
20.417296,1.12569463899617,0.043481646704812325
20.419676000000003,1.1311418627279795,0.04354123944659787
20.422072,1.1317934890340373,0.04361858399277301
20.42446,1.128720453100982,0.043677848163600534
20.426844000000003,1.1265785827277048,0.04374057803460316
20.42924,1.1227141508617315,0.043761677451490656
20.431628,1.116987387876201,0.043775525119745466
20.434012000000003,1.1089789848905338,0.043899920910363044
20.436412,1.1021812867183653,0.04395906118472063
20.4388,1.0935212574266402,0.04402146849665555
20.441184,1.086304250373891,0.04420350269181066
20.44358,1.0790872433211416,0.04439489913184284
20.445972,1.0658639340291416,0.044713596699744965
20.448352,1.0549222647372793,0.04490308419444007
20.450748,1.0466343224978911,0.04513210462911118
20.453136,1.0363442795120865,0.04539436984147576
20.45552,1.024703762085923,0.045779915169434374
20.457916,1.0137148709658172,0.04627203849186777
20.460304,0.9980701520468199,0.04675942405439629
20.462688,0.9820533460754851,0.04707405256676903
20.465092,0.9660365401041502,0.047388681079141765
20.46748,0.9489487989461769,0.045189075082021996
20.469864,0.937727590400594,0.04547215371951212
20.47226,0.925155907414652,0.04589120432538994
20.474648,0.9107218933091534,0.04631150340744868
20.477032,0.9002920806964885,0.04663483136868068
20.479428,0.8909332032704622,0.04690987837568929
20.48182,0.8889311025240454,0.04694733793267059
20.4842,0.8878601673374068,0.04698675442242298
20.486600000000003,0.8886515632703249,0.04703061040668889
20.488988,0.8878601673374067,0.04698675442242298
20.491368,0.8861376058447102,0.04694204943689961
20.493768000000003,0.8884192458448475,0.0468002799330893
20.496156,0.8864171450984306,0.04684977671991707
20.498536,0.8784087421127633,0.044434797749600255
20.500932,0.8693294039404573,0.0420194680091753
20.50332,0.8575963387156765,0.03951250077099582
20.505704,0.8502867838643103,0.036908418876648794
20.5081,0.8440481641995827,0.03429511068641221
20.510488,0.8373902356542742,0.031780876176919715
20.512872,0.8285904367356888,0.029266641667427217
20.515268,0.8208615730037417,0.029266641667427217
20.51766,0.8074059462862646,0.026757355170549505
20.52004,0.7965114988226452,0.024148761156668943
20.522436,0.7837547202394691,0.021535452966432347
20.524828,0.769647467215934,0.01902616646955464
20.527212,0.7495339119531483,0.016565160926900312
20.529608,0.7243452200108905,0.014234763317199951
20.531996,0.7010188591881894,0.011904365707499595
20.53438,0.6798343687387652,0.009532788104341746
20.53678,0.6585101086624809,0.007205066485449812
20.539168,0.6419814460119485,0.004835129313180149
20.541552,0.6235904522418594,0.0024651921409104874
20.543948,0.6121369262707991,0.0
20.546336,0.6069692417927097,0.0
20.54872,0.6025929532475386,0.0
20.551116,0.6023606358220613,0.0
20.553508,0.5947715417169745,0.0
20.555892,0.5898361746643624,0.0
20.558288,0.5862512820521094,0.0
20.560676,0.5852275686937141,0.0
20.56306,0.579408257909567,0.0
