Time,Force,Position
18.947864,0.4703176162240276,0.0
18.950244,0.45220616170765887,0.0
18.952639999999995,0.43609680793770705,0.0
18.955028,0.4189165189811166,0.0
18.957408,0.39465899259863707,0.0
18.959812,0.36933053102951907,0.0
18.9622,0.3460041702068179,0.0
18.96458,0.32384129236937237,0.0
18.966984,0.3023300408379847,0.0
18.969372,0.28649833046388407,0.0
18.971752,0.27527522606043187,0.0
18.974156,0.2653081524408522,0.0
18.976544,0.2531519866197524,0.0
18.978924,0.24760652751571788,0.0
18.98132,0.24839223587502823,0.0
18.983704,0.24978234871215335,0.0
18.986084,0.2572713115871461,0.0
18.98848,0.2688570237535896,0.0
18.990868,0.2822578452113466,0.0
18.993248,0.3026886822667495,0.0
18.995644,0.3265174204793022,0.0
18.998032,0.3508107935428094,0.0
19.000408,0.37477740552435296,0.0
19.002804,0.40055912679721006,0.0
19.005192,0.432672015533412,0.0
19.007572,0.4687418839342045,0.009501402746105716
19.009968,0.5084891927458671,0.018884875945934576
19.012352,0.5498192934233661,0.028172825471951293
19.014732,0.5903579981679468,0.037657841590893595
19.017128,0.6258687880612984,0.04720935133815141
19.019512,0.6550484104913052,0.05722730751971711
19.021892,0.6829720021374394,0.06694304770977
19.024304,0.7112223548655371,0.0768168085480565
19.026692,0.7336533968094876,0.08692956837256588
19.029088,0.7533381639023462,0.09694752455413157
19.031492,0.7774936631968625,0.10651178625041678
19.03388,0.79690078689387,0.11615813181897065
19.03626,0.8143530316727039,0.12580447738752454
19.038664,0.8302697064139446,0.1353818659129752
19.041048,0.8414380055576768,0.14511328891573427
19.043428,0.852560978731035,0.15427876661116785
19.045832,0.8632193170534387,0.16337919513136048
19.04822,0.8720625460845288,0.1726850495227511
19.0506,0.8809529969438621,0.18185052721818468
19.053004,0.8855143810862673,0.1913027053298633
19.055388,0.885979015937222,0.19171254097721957
19.057772,0.8846285414968632,0.19207665170440982
19.060168,0.8813231881383304,0.19246467901467032
19.062552,0.8813704099665736,0.19214514059116158
19.064932,0.8795553006752601,0.19211495215730068
19.067336,0.8806734576901418,0.19154917408741362
19.069724,0.8788583483988285,0.19152491208973688
19.072104,0.8799765054137102,0.19096635367506987
19.074496,0.8823053672420906,0.1901009555317173
19.076884,0.8830514372046349,0.1894078293101492
19.079264,0.8805847016072633,0.18939094715741508
19.081668,0.8804921538086464,0.1891280747886901
19.084056,0.8816103108235281,0.1885883304846771
19.086436,0.8813779933980508,0.18839441515905525
19.088832,0.8830080070921302,0.18790201653138594
19.09122,0.8780726400395181,0.18881888597741978
19.0936,0.8728577337331858,0.17971845745722714
19.096004,0.8708556329867689,0.1800885799021137
19.098388,0.8689933018672124,0.1803752803183588
19.100768,0.8739286689198245,0.17957964435221122
19.103172,0.8810059063457133,0.17832494810428035
19.10556,0.887151978211824,0.17723390632279232
19.10794,0.8948808419437709,0.17604186769892458
19.11034,0.8966034034364674,0.17583966842515686
19.112724,0.9013990008622192,0.17509495962793645
19.115108,0.9080569294075277,0.17412671972866725
19.117504,0.9132246138856168,0.17346099282613334
19.119892,0.9194632335503448,0.17268707091923524
19.122271999999995,0.9255620835882122,0.1719809897547998
19.124668,0.9325920991858583,0.17114009800721164
19.127056,0.9406930499701428,0.17007665667606997
19.129436,0.944277942582396,0.16959435526535785
19.131832,0.9443704903810131,0.1698507822364767
19.13422,0.9499574837396829,0.16906530243110865
19.1366,0.9546133115385746,0.1684242714504797
19.138996,0.9666259160170756,0.1664474538512287
19.141384,0.9807803908688537,0.1743076180850282
19.143764,0.9927929953473547,0.17249180548255055
19.146168,1.0054572261319137,0.17076972325897816
19.148556,1.0093216579978872,0.17027257064066983
19.150936,1.0142570250504992,0.1696228288771464
19.153332,1.0213342624763884,0.1686854261111309
19.155719999999995,1.0218933409838293,0.16845918908149907
19.1581,1.0267361602378242,0.16754016129182808
19.160504,1.0323703754247375,0.16661397093989425
19.162892,1.035722950611513,0.16608443704807224
19.165272,1.0453613672912598,0.16464209553508194
19.167668,1.048853712104896,0.16405521933894798
19.170055999999995,1.0562104887845054,0.16306173322962203
19.172436,1.059283524717561,0.16263726426086736
19.174832,1.0634274958372547,0.16206475486471303
19.17722,1.0746487043828379,0.16058305422076316
19.1796,1.0890827184883365,0.158561354593781
19.182008,1.0961599559142254,0.15764432092515288
19.184396,1.1013748622205581,0.15690649176449156
19.186776,1.102306027780336,0.15680776260428286
19.189172,1.1032371933401144,0.15671666597226008
19.19156,1.1040285892730326,0.15667574816887112
19.19394,1.1012350925936976,0.1569524526627725
19.19634,1.1041683588998927,0.15661230956596028
19.198724,1.104959754832811,0.15656846494168716
19.201108,1.1014674100191748,0.15711729573383892
19.203503999999995,1.1049125330045677,0.15682255030879588
19.205888,1.1070071815496016,0.15679304675423517
19.208284,1.1073792686019392,0.15690558034772706
19.210684,1.1112437004679125,0.15649897043453503
19.213072,1.113757657893527,0.15634872742700323
19.215452,1.1224176871852525,0.15551516573057128
19.217856,1.1233488527450308,0.1554335657975754
19.220244,1.1325679605441972,0.15440897499074926
19.22262,1.1407161331567246,0.15353242461132277
19.225016,1.1437891690897801,0.15321749582309765
19.227404,1.149283614649833,0.15261404725964378
19.229784,1.154917829836746,0.151907735382413
19.232188,1.1644164768896328,0.1508482014305658
19.234576,1.1739151239425194,0.1497487561562065
19.236956,1.1775472383830154,0.14921446282386852
19.239352,1.1823900576370105,0.14851066037978816
19.24174,1.1890952080105621,0.14761930398411077
19.244119999999995,1.1930068617047787,0.14698919898864385
19.246524,1.2021334217053277,0.14580775260086531
19.248912,1.2155437224524308,0.14411676060708808
19.251292,1.2297454191324522,0.1425229784772065
19.253696,1.2462287558126106,0.14069994618976822
19.256084,1.2616411573061308,0.13897914545361031
19.258464,1.2709074869335402,0.13787200863928945
19.26086,1.2767286935755566,0.1369547502992494
19.263248,1.2756124324185443,0.13664173576123353
19.265632,1.278360603127505,0.13598336937297364
19.268028,1.2780357379034104,0.13564820199849473
19.270412,1.2797129734257333,0.1351480435359731
19.272796,1.2803192737614175,0.13474321224138108
19.275192,1.2743601933504103,0.13504109546417936
19.27758,1.2751988111115715,0.13478647429629595
19.27996,1.2778997599922892,0.13442650160741812
19.282356,1.2816716440596458,0.13395980409284428
19.284744,1.2933121614858094,0.13288054291015125
19.287124,1.3038817437253345,0.13192061201056673
19.289524,1.3156620307783582,0.13084124718149173
19.291908,1.3285132530180206,0.12965295818133687
19.294292,1.335078633764712,0.12904018497750275
19.296688,1.3395021441381263,0.1286319429657345
19.299076,1.3379193522722899,0.12866462718470298
19.301456,1.3320528196598995,0.12906929662395814
19.303852,1.327117452607287,0.12942352583163266
19.306239999999995,1.3220423159278152,0.1298531619307162
19.30864,1.317479035927541,0.13036379724824915
19.311036,1.3175715837261581,0.13055623163168092
19.313424,1.3175243618979149,0.1307923829916379
19.315808,1.3153352696963947,0.1312528746396847
19.3182,1.3102129111886793,0.13195292893481644
19.320584,1.3081635886140193,0.13236866185879698
19.322964,1.3131915034652484,0.1321335288727273
19.325356,1.3151463823834222,0.1321920389204087
19.327744,1.3112347286892052,0.1327010561631168
19.330124,1.3082542405547668,0.1331439738798728
19.33254,1.300198615740856,0.13398064298843193
19.334924,1.290932286113447,0.13497336188394418
19.337308,1.2844594531653726,0.13573455072909624
19.339708,1.2766361457769393,0.13667662019163734
19.342096,1.2718858743215613,0.1373862571314641
19.344476,1.267275372493044,0.13805525525232046
19.34688,1.2678797769708587,0.1382907188246444
19.349264,1.2735593181281457,0.13812709017496977
19.351644,1.2781679240987944,0.13805476897359975
19.354048,1.2870602708159966,0.13758045864483973
19.356436,1.3002363582797534,0.13672860699395661
19.358816,1.3127608194374523,0.13586834466728756
19.361212,1.3254250502220113,0.1349643653640933
19.3636,1.342093482499404,0.1337752120881362
19.36598,1.3627661162696305,0.1323234628702605
19.36838,1.3843699155996352,0.13088365369405133
19.370764,1.4005264911978301,0.1297723129514515
19.373148,1.4141691093704105,0.12872905471405044
19.375544,1.431164302729767,0.12738198292244998
19.377928,1.4465767042232869,0.12607586891680828
19.380308,1.464130976090084,0.12459354774449913
19.382712,1.4833152616509606,0.12286339467954537
19.3851,1.492628813106613,0.12177433227122003
19.38748,1.5034326086294847,0.12047316114028075
19.389876,1.5114429074730216,0.11931864501192717
19.392264,1.5203843718763363,0.11812967033916721
19.394644,1.5273237355332347,0.11710770269893717
19.397048,1.5306782065778795,0.11626343985136146
19.399436,1.5332412816896062,0.11541008398597384
19.401816,1.5378064575477501,0.11446428092037231
19.404219999999995,1.533432064860448,0.11405568792674807
19.406608,1.528126506613368,0.11369081818355445
19.408988,1.5243111924335064,0.113138106359584
19.411384,1.514769115268115,0.11288628946767282
19.413772,1.5001519014232518,0.11295517776591688
19.416156,1.4816702557124148,0.11323250078427172
19.418552,1.4646316322405541,0.1135361696937445
19.420936,1.4525283758213052,0.11352888271434684
19.423316,1.4380037097750586,0.11373971234670081
19.42572,1.4250618355946483,0.1139279250326321
19.428104,1.409326464734903,0.11424165636808264
19.430488,1.395173885740994,0.11451404400870643
19.432891999999995,1.3880985441729745,0.11437771234099184
19.43528,1.3818145985378727,0.11422912707412408
19.43766,1.377672523276048,0.11392709955737924
19.440056,1.3713885776409467,0.11377743842766812
19.442444,1.3669669631254016,0.1135438979937614
19.444824,1.3641281404756929,0.1132982477888184
19.44722,1.3663644545054558,0.11276110391850329
19.449608,1.3641772581618046,0.11254544288360162
19.451992,1.3729317311100164,0.11175194091683743
19.454388,1.384479700737563,0.11085984560755728
19.456776,1.393466491111252,0.11021492412082272
19.459156,1.405386547791136,0.10940785399881257
19.46156,1.4183775396576586,0.10849792132021255
19.463948,1.4332308626437376,0.10748694416294376
19.466328,1.447432559323759,0.10643557235998759
19.468724,1.456419349697448,0.1057434167018859
19.471112,1.4647545137650788,0.10499960428385142
19.473492,1.4730896778327098,0.1042703487653212
19.475888,1.483007633766177,0.10351543544779666
19.478276,1.4889213882068106,0.10299519145433242
19.480656,1.4964179345132804,0.10249107506287097
19.483072,1.5048456463795286,0.10197042428459285
19.485456,1.5149959197384728,0.10143065892876073
19.487836,1.5252859627242779,0.10084303346792142
19.490236,1.5287783075379142,0.1005635705268431
19.492619999999995,1.5296169252990752,0.10035932346593429
19.495,1.5273825071271812,0.10033077529677253
19.497404,1.5255673978358677,0.10020264776989
19.499792,1.5198878566785805,0.10023509953861225
19.502172,1.5124857540285972,0.10029110746173933
19.504576,1.508156687311669,0.10019266685521688
19.506964,1.5047587861545193,0.10006310760543434
19.509344,1.5024318201840081,0.0998725270584217
19.511748,1.5013155590269953,0.09959231523401364
19.514136,1.4999197586162627,0.09937103994860473
19.516516,1.5006658285788068,0.09902454034793523
19.518912,1.504205395220686,0.09858624720273702
19.5213,1.5070933355565073,0.09812060045500756
19.52368,1.5122629158924659,0.09751336453164422
19.526084,1.5177120354821447,0.0968238920087062
19.528472,1.5186450968997927,0.09625706079238228
19.530852,1.516784661638105,0.09578045817917512
19.533248,1.508917924137167,0.09556844020611291
19.535636,1.5051951577559228,0.09514775915862897
19.53802,1.509201255106626,0.09443111035989946
19.540416,1.5170717843233024,0.09357390719406912
19.5428,1.52373160872648,0.09280173139896117
19.545184,1.5322537642492144,0.09197673196326753
19.54758,1.5384942797718115,0.09130452238691245
19.549968,1.5444552560406881,0.09069831870126542
19.552348,1.5474829660033695,0.09021032910686975
19.554744,1.5492999711525521,0.08981342754133508
19.557132,1.551116976301735,0.08941796404841983
19.559516,1.5486502407043634,0.0892469871778047
19.561912,1.5483253754802693,0.08896108435132226
19.5643,1.5469295750695367,0.08873141636455477
19.56668,1.5443230698453048,0.08859088122743522
19.569075999999995,1.5383639894342975,0.08865729162745302
19.571464,1.528260937903596,0.08892646797334817
19.573844,1.5228137141717866,0.08905425437570087
19.576248,1.5170869511862564,0.08925326243195258
19.578636,1.5090785482005886,0.0896221259444557
19.581016,1.506424821148114,0.08967983379436491
19.583412,1.49655408704289,0.09012302031461009
19.5858,1.4828189210716924,0.09070812115559722
19.588184,1.4640086184210228,0.09155425680526165
19.590588,1.444406919837435,0.09243462156031858
19.592976,1.4237342860672089,0.0933664333429655
19.59536,1.402270256364064,0.09433802714326607
19.597756,1.3778729603547244,0.09550342548680466
19.600144,1.3546863691588835,0.09655534157447437
19.602523999999995,1.329777216470346,0.09768334813121506
19.60492,1.3027261934085315,0.09900366667318829
19.607304,1.2808900766530495,0.09997988338376597
19.609684,1.260124895084206,0.1008194655468543
19.612088,1.2415015838886398,0.10149967914546569
19.614476,1.222086876760155,0.10219475996761096
19.61686,1.2049538096318078,0.1027464182363036
19.61926,1.1890314473169594,0.10320769385510108
19.621648,1.1723176890691926,0.10361143020166029
19.624028,1.1606790675008984,0.1037188262591931
19.626436,1.155466057052435,0.103401326875194
19.62882,1.1527670040295865,0.10306489567361335
19.631204,1.1543516917532919,0.10245253955665089
19.6336,1.1560761491038576,0.10179543891986922
19.635988,1.1618048079472572,0.10092041524437705
19.638368,1.1723290642164081,0.09985258589238265
19.640772,1.1820619245526414,0.09877518480927741
19.643156,1.1927259504486527,0.09763030468939501
19.645536,1.2093962785839147,0.0961581895662006
19.64794,1.2245763626519575,0.09486302175232596
19.650328,1.2426897130261954,0.09340739879477293
19.652708,1.2649470345201272,0.09168482180443172
19.655104,1.2872043560140591,0.09007302002514281
19.657492,1.305317706388297,0.08872187718330132
19.659872,1.3254331575089515,0.08736076586282437
19.662268,1.3487614141895221,0.08583593419917454
19.664656,1.3759541027360662,0.0842108507367229
19.667036,1.4059402879619451,0.08253054474218785
19.669432,1.43178250206813,0.08108202888186951
19.67182,1.4556226154278982,0.07979878238717837
19.6742,1.4759703839740301,0.078802160795728
19.676604,1.4935246558408273,0.0779224271031595
19.678992,1.5126617195734606,0.07708821793287683
19.681372,1.5335213447987903,0.0762502308250711
19.683776,1.552239099650843,0.07551078389652811
19.68616,1.5680235881967006,0.07487846651150488
19.68854,1.5847392423023363,0.07423007672082847
19.690944,1.603456997154389,0.07352097058897265
19.693332,1.6189619464465261,0.07297056274232036
19.695712,1.6358173701790224,0.07230832471371704
19.698108,1.6529523331652387,0.07161505311762544
19.700496,1.6668744905915396,0.0710615293632317
19.702876,1.6757215113383683,0.07066566398217929
19.705272,1.6876415680182526,0.07016485769724508
19.70766,1.6959295102576404,0.06988545564171025
19.71004,1.7017960428700307,0.06974972875632515
19.712444,1.7035186043627273,0.06975015772858412
19.714828,1.70137673398945,0.069829312062453
19.717212,1.6993746332430333,0.06988409390254852
19.719612,1.6941597269367008,0.07006472401897677
19.722,1.6902952950707273,0.07014699736757081
19.72438,1.6834975968985586,0.07029815717055315
19.726776,1.6757687331666116,0.07045840451627446
19.72916,1.669110804621303,0.07057356574948098
19.731539999999995,1.66552591200905,0.07059737077882061
19.733944,1.65993891865038,0.07067518936767973
19.736332,1.6570056523441847,0.07073843080358694
19.738712,1.655934717157546,0.07077539713629992
19.741116,1.655143321224628,0.07076153494124367
19.743504,1.6552830908514884,0.07073634831380367
19.745884,1.6539326164111292,0.07082198158197782
19.74828,1.6567261130904642,0.07079085070682689
19.750668,1.6613819408893558,0.0707352391479608
19.753048,1.6631045023820523,0.07073845782670145
19.755444,1.6624528760759942,0.07069843086445966
19.757832,1.6611496234638785,0.07061802275739935
19.760212,1.664921507531235,0.07040402051273587
19.762612,1.6736287586512035,0.07008594577203078
19.764996,1.6872713768237841,0.0696676530372693
19.76738,1.7044063398100007,0.06908716209830972
19.769776,1.71939943242294,0.06858565267599859
19.772164,1.7391881224616312,0.06801103318229895
19.77456,1.757394020634486,0.06741370603280915
19.776956,1.7735978180609242,0.06687316350341753
19.779344,1.7868683491811674,0.06639300627004428
19.781724,1.8072161177272994,0.06576446874302666
19.78412,1.8239789936611783,0.06516011667270696
19.786508,1.838367681796303,0.06453432753292745
19.788888,1.8536875354912061,0.0639090064794479
19.791292,1.871009489932526,0.06326817192718093
19.79368,1.8874002788140678,0.06262595595883107
19.79606,1.9007180317625538,0.062065163313585615
19.798456,1.9191109213905122,0.06141623313991099
19.800844,1.9393661421380273,0.060745772684759614
19.803224,1.9614836940050988,0.060044355605724645
19.805624,1.9831819369915897,0.05940041232476263
19.808008,2.001015748112107,0.0588312357902902
19.810392,2.016707688859348,0.05833621562227474
19.812788,2.0261137881136175,0.057985016151363165
19.815176,2.0318877729273908,0.05778096292127913
19.817556,2.0395240888607207,0.05756492949443671
19.819952,2.0412938721816603,0.05742827624370685
19.82234,2.0435755121817976,0.05735094613863066
19.824724,2.0459969218087943,0.05725208887948396
19.82712,2.0485581010626523,0.05713045403769957
19.829508,2.0423194813979246,0.05712442842657903
19.831888,2.0359410921063366,0.05714001448058062
19.834292,2.0267219843071707,0.0573218430433065
19.83668,2.0155007757615873,0.05753544046231348
19.83906,1.998413034603614,0.05782202763162069
19.841464,1.983467163818918,0.05805349876296694
19.843848,1.9697319978477204,0.0582306199707974
19.846228,1.9512012344507712,0.058443372492440616
19.848628,1.9358832766137375,0.05856951980106441
19.851012,1.9247092898963976,0.058611786452321714
19.853396,1.917958813552472,0.05853553467957394
19.855792,1.9092062364621296,0.05848554344992593
19.858176,1.8976601626924525,0.058445463800466585
19.860555999999995,1.891608534482828,0.05826272056247229
19.862956,1.8899804166466179,0.057961784196309325
19.86534,1.8844878669444345,0.05769364678569998
19.867723999999995,1.8828597491082237,0.057387027375180956
19.87012,1.8825821057123728,0.0570142382697897
19.872508,1.8801625919432448,0.0566884146100375
19.874888,1.8773237692935358,0.056424903733369634
19.877284,1.8790010048158585,0.05615921813091106
19.879672,1.8825405714577377,0.05588514137244283
19.882052,1.8874306125399758,0.0555323159345228
19.884448,1.8953936895552694,0.055124698246199186
19.886832,1.9060104936230375,0.05471743569300392
19.889216,1.9156961321310277,0.05432024483728468
19.891612,1.919235698772907,0.05403430398611877
19.893996,1.9217043302281474,0.05377231799496889
19.89638,1.9197494513099735,0.05364650903127031
19.898776,1.9155129323916626,0.053597798239677905
19.901164,1.9049905719803804,0.05368347513188901
19.903544,1.8963305426886552,0.053762847219029936
19.90594,1.888461909329848,0.05386431424499416
19.908328,1.8773804704111252,0.0540418311571939
19.910708,1.863225995559347,0.05427130717790363
19.913124,1.8560089885065978,0.0544064897233954
19.915512,1.8481403551477904,0.05449702150275923
19.917892,1.8390610169754846,0.0546321958229248
19.920288,1.833846110669152,0.05473503140838472
19.922676,1.8351965851095111,0.05466759184721017
19.925056,1.837106138057311,0.05451550842758758
19.927451999999995,1.8382242950721925,0.0543451598991393
19.92984,1.8412047832066307,0.05417087082124188
19.93222,1.8419036313409318,0.0540655776716169
19.934616,1.8456755154082884,0.05391491353579345
19.937004,1.8522408961549799,0.053762710819806395
19.939388,1.8665351406336184,0.05355120700122552
19.941784,1.88469381697823,0.05331321012148942
19.944172,1.904063198136341,0.05302564142732144
