Time,Force,Position
19.647592,3.8831214863402606,0.04766506340414062
19.649992,3.867386115480515,0.047516290563098626
19.65238,3.853373306113467,0.04737723223604904
19.65476,3.843504467866112,0.04720565672383284
19.657156,3.832145385551538,0.047075709111988856
19.659544,3.818644432863687,0.04696621945775081
19.661928,3.805795106481894,0.04687832556398736
19.664324,3.7977413775258526,0.046780306118557234
19.666712,3.786335073383036,0.046723846017284576
19.669096,3.771855733307164,0.046688238138886146
19.671492,3.7535119613653176,0.0466623002926849
19.67388,3.734237023863693,0.046636075636956174
19.676264,3.714542777481488,0.0466421469838785
19.67866,3.69671086221884,0.046649753725594684
19.681048,3.6830229180758853,0.0466247928637334
19.683432,3.6730596361720442,0.04660053435805295
19.685828,3.6646791461340387,0.046598655001569976
19.688216,3.652014915349479,0.04664014794860544
19.690596,3.6404216197515593,0.04667064197383597
19.692996,3.6285487848999187,0.04672390120174453
19.695384,3.6114610437419454,0.04682172913844973
19.697764,3.594233532957112,0.0469325976167676
19.700164,3.579008122918695,0.04703292513477454
19.702552,3.558428036947086,0.04719183055835914
19.704936,3.537847950975477,0.04735306004943639
19.707332,3.5154055338843104,0.04751844299060424
19.709724,3.493382425673725,0.04764966735607051
19.712104,3.4633509144774726,0.04782924817074544
19.714504,3.436392439214275,0.04798886567093443
19.716892,3.4125069998841333,0.048124946288533
19.719276,3.3854087549940757,0.04830505280164144
19.721672,3.354306308611185,0.048517748191948144
19.72406,3.3234834014820134,0.04870475866546462
19.726444,3.2910777024870064,0.04886776785679536
19.728844,3.2518743053198302,0.04905647302821755
19.731232,3.211739742592876,0.0492449002182162
19.733612,3.167740747999949,0.049455959365225115
19.736012,3.1249524582205197,0.04964575890485377
19.7384,3.0797427588140938,0.049897638648424475
19.740784,3.0333223545941688,0.05019122094209024
19.74318,2.9918373174268553,0.050459481478759574
19.745572,2.9514232154461806,0.0507176038642213
19.747956,2.90942632159967,0.05094536606052851
19.750352,2.8727841036863517,0.051102073277251074
19.75274,2.8334881587205594,0.05125225467024877
19.755124,2.7980566456207394,0.05138820868127686
19.757524,2.763696067707559,0.05150363134615782
19.759912,2.732408525727434,0.0515925842838999
19.762292,2.705125185240142,0.05164471605721088
19.764688,2.6778418447528507,0.05169398611438679
19.767076,2.6588464465049464,0.05165002455251186
19.76946,2.646928285682932,0.05154190826391438
19.771856,2.6308661537412235,0.05148097797154455
19.774244,2.6154556481055726,0.05144907135700392
19.776628,2.6026988695223965,0.05143052368362109
19.779024,2.5870088246330254,0.051431093859032356
19.781416,2.576673455676847,0.0513476695243027
19.783796,2.566338086720668,0.051263720294394
19.786196,2.560705767391624,0.05106373442784547
19.788584,2.5614990591824114,0.050763041233528323
19.790968,2.5602902502267817,0.05047994736721418
19.793368,2.5580105060845137,0.050210830317361524
19.795756,2.5533093523152486,0.05000530134961735
19.79814,2.5443244577994286,0.04986840711646087
19.800536,2.5410663262691395,0.04970748460316616
19.802928,2.5359458636192933,0.04954740022452383
19.805308,2.5305458617157264,0.049420186668438656
19.807708,2.5272877301854364,0.04925756299988985
19.8101,2.516952361229258,0.04916655400884947
19.81248,2.5043353522729426,0.04912794326251227
19.814872,2.488645307383571,0.04912137043580537
19.81726,2.468019895441588,0.04914850358885414
19.819640000000003,2.452609389805937,0.04910606927354576
19.822036,2.4393407545435637,0.04902899758725923
19.82442,2.425140953721412,0.048953489275342724
19.8268,2.4172269943922307,0.04878771732081384
19.829204,2.4079625606226904,0.048672021692886806
19.831592,2.39869812685315,0.048555447270150064
19.833972,2.384730643456475,0.04855797177704723
19.836376,2.3624752178204127,0.04866627260095018
19.838764,2.3384972306916536,0.04876108926854384
19.841144,2.3165213443093116,0.04883997131357784
19.84354,2.2988291986735234,0.04884620688811642
19.845924,2.285281024157429,0.048798089620234505
19.848304,2.267588878521641,0.0488072527593436
19.850704,2.2504085895650507,0.04887558642885062
19.853092,2.2309466606083226,0.049007215024056826
19.855472,2.2079923868379594,0.04923910876533746
19.857868,2.1916960416129045,0.049449136176681945
19.860252,2.1779136538134636,0.04970195964556414
19.862636,2.1628733393722808,0.050138310650490965
19.865032000000003,2.15630606276772,0.050660571845335706
19.867416,2.150994816947032,0.05137443479967245
19.8698,2.1460084363504386,0.05228181751351697
19.872192,2.1473532232171895,0.053295943629765155
19.87458,2.1460423871735967,0.054640241420687005
19.87696,2.1474306041528526,0.05619658431246915
19.879364,2.1527285789684565,0.05791803597705783
19.881752,2.1680823834865177,0.059671174589381724
19.884132,2.1964252840132326,0.06141320671209407
19.886528,2.2344047053618246,0.06322316578455989
19.888916,2.2782959852931812,0.06510905166132029
19.891296,2.324886318247386,0.06714470142377406
19.8937,2.3752466394110794,0.06929170944396815
19.896088,2.4338004591576734,0.07144392541794033
19.898468,2.4989649856213325,0.07357606564726572
19.900864,2.5716713843618355,0.07568242989527389
19.903252,2.649777785005904,0.07780912841010906
19.905632,2.728628359754649,0.07997942912533137
19.908040000000003,2.8107842878619254,0.08209962300609054
19.910424000000003,2.89494231671562,0.08411953643828446
19.912804,2.974584287397282,0.0860907372756215
19.915208,3.0502692784143544,0.08797185287796921
19.917596,3.1273519657000284,0.08963827478878109
19.919976,3.2007572125748323,0.0911922775645627
19.922372,3.274536442359843,0.09246169820167531
19.924760000000003,3.345896158375725,0.09349370240989735
19.92714,3.416419152488315,0.0943109440791499
19.929536,3.4794474961523054,0.0950301195350183
19.931924,3.533770484554196,0.0957019796773076
19.934304,3.5781774128804886,0.09636654466835012
19.936708,3.6157413170642387,0.09696796815771513
19.939096000000003,3.65032662897142,0.09744634419819062
19.941476,3.6792796215495573,0.09783277553551607
19.94388,3.7032519211047084,0.09814905087804007
19.946264000000003,3.723034923569793,0.09840017270147991
19.948644,3.7394200248777265,0.09858925865000966
19.951048,3.754968404282368,0.09863058864071364
19.953436,3.7651167817834432,0.09865095804353459
19.955816,3.7737295892469254,0.09859382000429254
19.958212,3.784671258538788,0.09840041929260972
19.960600000000003,3.793518279285616,0.09817912497092424
19.96298,3.807999515219358,0.09781323326742009
19.965376000000003,3.8196872544737652,0.09748658900049403
19.967764,3.831794302608752,0.09712488112377458
19.970144,3.8401766885046262,0.096808556616246
19.972548,3.846277434400363,0.09655124304238946
19.974936000000003,3.8491653747361845,0.09636699027783813
19.977316,3.8485609702583696,0.09627832976260589
19.979712000000003,3.8468856305939165,0.09621379582919196
19.9821,3.847911239810181,0.09604784352393413
19.98448,3.8470745179068886,0.09590513493283309
19.986880000000003,3.8435840689511216,0.09578684919246386
19.989272000000003,3.8370205840622993,0.09573244772575391
19.991652,3.825661501747726,0.09575649189037005
19.994048000000003,3.8117884620075375,0.09579177026240432
19.996436,3.7904660977891225,0.09593555642345622
19.998816,3.7649997624510134,0.09616979724955904
20.001212,3.7408839015532633,0.096353749816473
20.0036,3.708899407296707,0.09669292858357026
20.00598,3.6701172148679815,0.09715249608038089
20.00838,3.62868129538678,0.09765286275986335
20.010764,3.5752327714270793,0.09842866870632054
20.013144,3.518059585228264,0.09928430103308332
20.015548,3.4582326719769734,0.10016837871901244
20.017936,3.3982659890988245,0.10109614479010862
20.020316,3.338718615101255,0.101997388365533
20.022720000000003,3.2787991540513475,0.10286424888291665
20.025108,3.2245139081883534,0.10355340756746641
20.027488,3.17022866232536,0.10426172537647127
20.029888000000003,3.11259084127559,0.1050981891669792
20.032276,3.0532304587331236,0.10599804368069357
20.034656,2.9909368098844626,0.10701385357541936
20.03706,2.9297140962224395,0.10804724842338063
20.039448,2.869562317747056,0.10909100704565881
20.041828,2.806989129644675,0.11029106866151289
20.044228,2.745347107102072,0.11156928030796856
20.046616,2.6837050845594685,0.11288710781472518
20.048996,2.6209921268302274,0.1142653001747356
20.051392,2.5630747665267366,0.11557311458728037
20.05378,2.5078111332757222,0.11686831063940381
20.05616,2.4572033278235987,0.1180492000688975
20.058564,2.412601824610725,0.11910843173771253
20.060952,2.3721442925175453,0.12001057319359724
20.063332,2.3303362859840067,0.12104699564270169
20.065732,2.292392711316442,0.12195468253182067
20.06812,2.2520277270218805,0.1230694645562351
20.0705,2.210172498660099,0.12435387429710718
20.072892,2.1631023639919857,0.12592028396297444
20.075280000000003,2.118174099697149,0.12738346275425277
20.077664,2.079903763947621,0.12858877944629904
20.08006,2.052295558236235,0.12933493130094964
20.082444,2.0313452810701573,0.12985197021761477
20.084828,2.015470140583552,0.1301397696758967
20.087232,2.0031798927091997,0.13032992475811592
20.089616000000003,1.996756177447238,0.13028662769487984
20.091996,1.9960592251708063,0.1300249397910914
20.0944,1.9965729777078733,0.12967823681764123
20.096788,1.9968071909912197,0.1293746970833453
20.099168,1.998391878714925,0.12896122924506426
20.101564,1.9999765664386309,0.12854347848119435
20.103952000000003,1.9975570526695026,0.12831547465278706
20.106332,1.9992815100200683,0.12786946962339724
20.108728000000003,1.9985845577436363,0.12759354407001228
20.111116,1.9989585406538426,0.12724774066687033
20.1135,1.9974701924444929,0.12697713578263703
20.115896000000003,1.9990548801681982,0.12652896952293297
20.118284,2.002641668638321,0.12595975457862604
20.12068,2.013026155280612,0.12504176741975445
20.123076,2.0211290019227652,0.12428194228507664
20.125464,2.0255071863258056,0.12370076890805042
20.127844,2.0206662629296797,0.12364943818627863
20.130248,2.0111695117346624,0.12379449368581041
20.132636,1.9975287894199514,0.12417347059052307
20.135016,1.9843073759858205,0.12445626326906446
20.137412,1.9682924658723548,0.12484334272046377
20.1398,1.9525570950126097,0.12515868581004005
20.14218,1.9354712497125057,0.12560215968275476
20.144576,1.9185251740392617,0.12604322094149892
20.146964,1.9031618902318541,0.12644158449772064
20.149344000000003,1.8899404767977235,0.12670784272977112
20.151744,1.8780695378039516,0.12687092374099543
20.154132,1.8631255628771246,0.12719028498534582
20.156512000000003,1.849252523136936,0.12745937439860464
20.158912,1.838452519329803,0.12755650235155783
20.161296,1.828443911455588,0.1276436518490435
20.163680000000003,1.8245813754474838,0.1273881017318698
20.166084,1.821789774626018,0.1270679702866863
20.168472,1.81392303712508,0.12701021633147536
20.170852,1.807406774064501,0.12683608103570354
20.173252,1.8007507413770618,0.12668956870611822
20.175636,1.79637634868976,0.12638291752026012
20.17802,1.7955868486147113,0.125943035060613
20.180416,1.7988015500324959,0.12528752258608752
20.1828,1.7998743810770037,0.12477088420079814
20.18518,1.8018783776812897,0.12421337814311417
20.18758,1.8023921302183568,0.12381157484139303
20.189968,1.8061186883153393,0.12320729991019519
20.192348,1.810124785666042,0.12253139242888073
20.194752,1.8071934152177163,0.1222183951221792
20.19714,1.8010492392094748,0.12211763750559511
20.199520000000003,1.795416919880431,0.12206669995385064
20.201924,1.7905759964843053,0.12200332588263806
20.204308,1.7889478786480952,0.12172110049365167
20.206692,1.7862488256252465,0.12151033317761449
20.209092,1.7849002470427566,0.12117141829262298
20.211476,1.7767539702880981,0.12115705077780858
20.21386,1.7676765279736613,0.12117941485912877
20.216252,1.760740956032502,0.12107103652197913
20.21864,1.7545967800242603,0.12095119803944272
20.221024,1.750594474389296,0.12069599827654032
20.223428,1.7458007728214133,0.12044710520657066
20.225816,1.7403554449474732,0.12017690192713767
20.2282,1.731045685207559,0.12008236035659749
20.230596,1.72452942214698,0.11987411466254658
20.232984,1.7169422238997623,0.11973065873091171
20.235364,1.7096345649062654,0.11952960327808955
20.23776,1.70125597072613,0.11938925975708822
20.240148,1.6973934347180257,0.11909844582183941
20.242532,1.7003285968820903,0.11849435731215496
20.244928,1.7056851686731518,0.11769432820803633
20.247316,1.7154652508376282,0.11662260740302931
20.2497,1.7265958074424634,0.11544513614067183
20.252104,1.7325114577409657,0.11455423062246133
20.254488,1.7356336113601334,0.11375545815353152
20.256872,1.7395471609122195,0.11297123409463701
20.259268,1.7470456030765582,0.11208620608959806
20.261656,1.7554752108006757,0.11116560877614166
20.264036,1.763904818524793,0.11024911677612266
20.266436,1.7712634910622715,0.10938949518563043
20.268824,1.7798328684132492,0.10847209139292341
20.271204,1.793058073563118,0.10741688652482417
20.2736,1.806143509086127,0.1063970181126368
20.275988,1.8217429020347509,0.10533264046057675
20.278368,1.833617632744261,0.10439499712244987
20.280764,1.8467030682672698,0.10337128043054725
20.283152,1.860859438976917,0.10230684090808485
20.285536,1.8770179104329816,0.10118271635631904
20.287940000000003,1.8942473170756844,0.10007030655501813
20.290324,1.91124440629291,0.09889636273078482
20.292704,1.9279619562564148,0.0977836949546782
20.295104,1.9425376358466429,0.0968089482769345
20.297488,1.9576251721160687,0.09590814421536598
20.299868,1.9777878450649666,0.09482515670010142
20.302264,2.0053998424920914,0.09358970828977754
20.304652,2.026865768053105,0.0925639424158213
20.307048,2.044327492121285,0.0916711395184884
20.309444000000003,2.063791316935882,0.09073336256333014
20.311832,2.084186307310257,0.08978705571009457
20.314212,2.105652232871271,0.08879377454301435
20.316612000000003,2.1206925473124536,0.08805488677316858
20.319,2.131588890633942,0.08747405494619635
20.32138,2.143276629888349,0.0869019950214874
20.323776,2.1553836780233366,0.08627160042586793
20.326164,2.1693530572778807,0.08559917816992849
20.328548,2.1839740628384825,0.08496128125506802
20.330944,2.198455298772224,0.08435952922322719
20.333332,2.2098634987729104,0.08386129581663437
20.335716,2.2144740006014283,0.08353007425035487
20.338112,2.216383553549228,0.0833632383157089
20.3405,2.2210866031763628,0.08315267155876356
20.34288,2.2244391783631388,0.08302243670509815
20.345276,2.223275695377883,0.08294773960054261
20.347664,2.2229036083255456,0.0828800877250557
20.350048,2.2150821967949814,0.08292541502061256
20.352444,2.2135466267573882,0.0827838903649623
20.354832,2.2172259630261277,0.08249201070773719
20.357216,2.221976234481506,0.08217693421128734
20.359612,2.2277974411235224,0.08183636762590946
20.362,2.2365519140717343,0.08144799071082709
20.364384,2.2523836244458346,0.08089585780098807
20.366784,2.2724990755664893,0.08022855170206505
20.369172,2.2910317348213076,0.07955080935334315
20.371552,2.308493458889488,0.07891264916819021
20.373948,2.3238133125843907,0.0783291151099485
20.376336,2.337270835159737,0.07776863704800537
20.378716,2.349797192175305,0.07722502389455863
20.381116,2.3633944843775114,0.07664980427708426
20.383504,2.3819271436323306,0.07598006179464693
20.385888,2.4035328388202046,0.0752417133347679
20.388284,2.4215536413958256,0.07454247899160531
20.390672,2.439714213598307,0.0738226437024078
20.393052,2.4605285128532626,0.0730790785052757
20.395448,2.4768267539361872,0.07238096076181812
20.397836,2.495638952444726,0.07167733257766958
20.40022,2.512309280579988,0.07104732120380207
20.402616,2.5239044720357775,0.0705318155999824
20.405004,2.5284224260656782,0.07015950759422183
20.407388,2.528144782669827,0.06985371288202918
20.409784,2.5249338729677806,0.06959742080318689
20.412172,2.5167875962131223,0.0694223773439768
20.414552,2.5043575787119097,0.06935339503391692
20.416948,2.4936501227033934,0.06928300766424236
20.41934,2.483873832254656,0.06920289284209429
20.42172,2.4781017432987515,0.06905453520978036
20.42412,2.475542459902763,0.06882891429042017
20.426508,2.4748455076263314,0.068589450127546
20.428888,2.4738690160961787,0.06838496876103436
20.431288,2.4710301934464702,0.06819661055723483
20.433676,2.4644667085576475,0.06803646721945725
20.436056,2.457623684415106,0.06790947041064781
20.438452,2.451991365086062,0.06774060309375961
20.44084,2.4452881105703796,0.06759587903960351
20.44324,2.4401676479205334,0.06747058751773856
20.445636,2.4362578900841863,0.06730400096966402
20.448028,2.4299267226208414,0.06722119155571549
20.450408,2.4314641885163035,0.06703206832706743
20.452804,2.436866086277739,0.0667939786788499
20.455192,2.4479947470247048,0.06649852377101015
20.457572000000003,2.4579127029581724,0.06624371272675056
20.459968,2.4704843859441143,0.06598311595001703
20.462356,2.4822646729971383,0.06570684086566395
20.464740000000003,2.4928342552366636,0.06547484743532145
20.467136,2.499679175237075,0.06527114190707561
20.469524,2.5035908289312916,0.06510797122512628
20.471904,2.5050810729985105,0.06503088963936317
20.474304,2.501635950013118,0.06502291308282782
20.476688,2.4978187399753877,0.06495053227469842
20.479072,2.49171988993752,0.06494452463692905
20.481476,2.4894854717656263,0.06489323529096319
20.483864,2.490184319899927,0.06480500234080228
20.486244000000003,2.488741297660951,0.0647647694715612
20.48864,2.490790620235611,0.0646189095928703
20.491028,2.492979712437131,0.06445581777923781
20.493412000000003,2.4962397398252896,0.06427258372568019
20.495808,2.5063446872138604,0.06390610761838525
20.498196,2.5067186701240676,0.06364718373178174
20.500580000000003,2.509234523407551,0.06334738594362249
20.502976,2.5065354703847023,0.0631393160624415
20.505364,2.5033245606826555,0.06288364234818693
20.507748000000003,2.4996017943014124,0.06258349188679144
20.510144,2.499883229413002,0.06223130642012131
20.512536,2.499513038218534,0.06184911378350454
20.514916000000003,2.5047298403827356,0.061439697667899716
20.517312,2.5111573473604354,0.06099183946360625
20.5197,2.518143932845577,0.06047856597253054
20.522084000000003,2.528343323890634,0.05989579152017777
20.52448,2.5401255068015267,0.05934202628164435
20.526872,2.554840956018615,0.058754627663491835
20.529252000000003,2.5675543044892866,0.058201073811834425
20.531652,2.576263451467124,0.057697507890830724
20.53404,2.5831102673254054,0.05719430153378791
20.536424,2.5873959039298287,0.05678879741571431
20.53882,2.5935438716538086,0.05637994981818977
20.541208,2.596898342698454,0.055985455228481085
20.543592,2.5915455626231303,0.055765229592086046
20.545992,2.5897776751600596,0.05554557998877193
20.54838,2.584145355831016,0.055355123163857996
20.55076,2.58079467650211,0.05510695206732318
20.55316,2.582099824972095,0.054844346524923586
20.555548,2.580192167882164,0.05463832327103279
20.557932,2.5761426404189565,0.054472605107989625
20.560328,2.5731640481423876,0.05428652882611065
20.562716,2.5624565921338713,0.05415405156025598
20.5651,2.551329827244775,0.054071181290979924
20.5675,2.540854688661736,0.05401661626550935
20.569892,2.529960241198116,0.05401117938257812
20.572272,2.519065793734497,0.054004180810876844
20.574672000000003,2.503515518471986,0.05400841931656035
20.577064,2.487825473582615,0.05402826598423068
20.57944,2.475208464626299,0.054008456134229235
20.581836,2.4675268227225953,0.05394346512017127
20.58422,2.463197756005667,0.05380671723487275
20.5866,2.4528623870494886,0.05373067951501208
20.588992,2.4421077092127295,0.05370373662264297
20.591376,2.4385700384287192,0.053579583307039574
20.593756000000003,2.431307705405596,0.05346274460116808
20.596152,2.4285614305545042,0.05335231533645986
20.598536,2.4216711845837184,0.05330122466297063
20.600916,2.4117079026798773,0.053289928227664665
20.603332,2.4065402182017874,0.05325148035168923
20.605716,2.4004413681639196,0.05321509593519067
20.608096,2.393923209245471,0.05322983092340171
20.610492,2.3943425181260523,0.0531777838289882
20.612876,2.3941102007005752,0.05309279521589733
20.615272,2.388662976968766,0.05308887725151734
