Time,Force,Position
20.85932,0.06738659653914494,0.0
20.861704,0.07604662583087024,0.0
20.864084,0.08498619437631598,0.0
20.866488,0.09364622366804129,0.0
20.868876,0.10402881445246301,0.0
20.87126,0.11068674299777147,0.0
20.873656,0.1202779378492751,0.0
20.87604,0.130868463389027,0.0
20.878423999999995,0.14360085930205596,0.0
20.880828,0.1555418592821668,0.0
20.883212,0.16825331189496898,0.0
20.885596,0.18219641262149666,0.0
20.887992,0.19490786523429882,0.0
20.89038,0.20482582116776604,0.0
20.89276,0.21395238116831514,0.0
20.895164,0.22708314266169788,0.0
20.897552,0.23513876747560844,0.0
20.899936,0.23797948598318658,0.0
20.902339999999995,0.22997108299751923,0.0
20.904728,0.22964432191555564,0.0
20.907108,0.23383361900562347,0.0
20.909507999999995,0.23583382389417107,0.0
20.911892,0.23913728139483448,0.0
20.914276,0.24295259557469553,0.0
20.916672,0.246348600873976,0.0
20.91906,0.2569143913977626,0.0
20.92144,0.2658501682274699,0.0
20.923836,0.27888269434862784,0.0
20.926224,0.28986589789512585,0.0
20.928604,0.30387491554643603,0.0
20.931,0.31876787692928144,0.0
20.933388,0.33109965905826916,0.0
20.935768,0.3416616578663173,0.0
20.93816,0.35245597409984264,0.0
20.940548,0.36348260775884544,0.0
20.942928,0.3739501629104072,0.0
20.945328,0.38544143142036447,0.0
20.947712,0.40051759254257474,0.0
20.950108,0.42774612777014626,0.0
20.952504,0.4417060277353441,0.0
20.954892,0.44993916471501183,0.0
20.957272,0.459849537217002,0.0
20.959668,0.4673857219202379,0.0
20.962056,0.47361865401135805,0.0
20.96444,0.480410664609919,0.0
20.966836,0.48310592591702906,0.0
20.96922,0.48435816498516326,0.0
20.971604,0.4812341155081262,0.0
20.974008,0.4790884534191107,0.0
20.976396,0.47577930834483956,0.0
20.978776,0.46758201804619964,0.0
20.981176,0.46329638144177626,0.0
20.98356,0.46064075853143227,0.0
20.985944,0.4588237533822495,0.0
20.98834,0.45705397006130993,0.0
20.990728,0.45812490524794847,0.0
20.993108,0.4615247022629674,0.0
20.995504,0.4634814770390103,0.0
20.997892,0.4629242943894387,0.0
21.000288,0.4731690114048695,0.0
21.002684,0.4854158291667171,0.0
21.005072,0.49323913655515034,0.0
21.007452,0.5018538398765018,0.0
21.009848,0.5143329750638267,0.0
21.012236,0.5229476783851781,0.0
21.014616,0.5303516768930308,0.0
21.017012,0.5397577761473003,0.0
21.0194,0.552236911334625,0.0
21.02178,0.5627139457755331,0.0
21.024176,0.5696986354028052,0.0
21.026564,0.5793370520825519,0.0
21.028948,0.5840401017096867,0.0
21.031344,0.5887431513368213,0.0
21.033732,0.5933064313370958,0.0
21.036128,0.5963794672701512,0.0
21.038523999999995,0.5970310935762092,0.0
21.040912,0.596192475815048,0.0
21.043296,0.5962850236136652,0.0
21.0457,0.5953066362256435,0.0
21.048088,0.5897649688373477,0.0
21.050467999999995,0.5845028407027721,0.0
21.052868,0.5821739788743917,0.0
21.055256,0.5819869874192883,0.0
21.05764,0.5788667296579897,0.0
21.060036,0.5796109037626647,0.0
21.062424,0.583428113800395,0.0
21.064808,0.588456028651624,0.0
21.067204,0.5894797420100194,0.0
21.069592,0.589292750554916,0.0
21.071976,0.5918067079805306,0.0
21.074372,0.5953916005927836,0.0
21.07676,0.6065655873101234,0.0
21.079144,0.6166686388408249,0.0
21.08154,0.6277028559313045,0.0
21.083928,0.6388768426486444,0.0
21.086307999999995,0.6472573326866492,0.0
21.088708,0.6557775923515143,0.0
21.091096,0.661224816083324,0.0
21.09348,0.6605259679490229,0.0
21.095876,0.6570336231353869,0.0
21.098264,0.6541929046278089,0.0
21.100648,0.6513521861202307,0.0
21.103044,0.6463695972393755,0.0
21.105432,0.6421784042914385,0.0
21.107812,0.6393376857838603,0.0
21.110208,0.6352862624627834,0.0
21.112596,0.6292327383952898,0.0
21.11498,0.6271834158206298,0.0
21.117376,0.6304887691791623,0.0
21.119764,0.6344457488437529,0.0
21.122144,0.6366801670156472,0.0
21.124544,0.6331878222020112,0.0
21.126928,0.6307664125750136,0.0
21.129312,0.6283450029480161,0.0
21.131708,0.6282052333211559,0.0
21.134096,0.6308589603736307,0.0
21.136476,0.6364459537323006,0.0
21.138876,0.6424522559715512,0.0
21.141264,0.6539530037708546,0.0
21.143644,0.6700170315704326,0.006535318116413979
21.14604,0.6842187282504539,0.006535318116413978
21.148428,0.6972097201169765,0.006535318116413978
21.150812,0.7104802512372196,0.006535318116413979
21.153208,0.7178842497450724,0.006535318116413979
21.1556,0.7208647378795107,0.006535318116413979
21.15798,0.7202603334016959,0.006535318116413979
21.160376,0.7184452241103824,0.006535318116413979
21.162764,0.7127656829530954,0.006535318116413979
21.165148,0.7018712354894758,0.006535318116413979
21.167544,0.6883230609733817,0.006535318116413979
21.169932,0.6754265127633453,0.006535318116413979
21.172316,0.6605278638068921,0.006535318116413979
21.174712,0.6485624811566341,0.006535318116413979
21.177104,0.6348745370136797,0.006535318116413979
21.179483999999995,0.6196963488035061,0.00653531811641398
21.181884,0.6041460735409951,0.00653531811641398
21.184272,0.5828690352929541,0.00653531811641398
21.186651999999995,0.5653166592840263,0.00653531811641398
21.189048,0.5481363703274359,0.00653531811641398
21.19144,0.5291862980499059,0.0
21.193819999999995,0.5125178657725131,0.0
21.19622,0.50320621017473,0.0
21.198608,0.49389455457694675,0.0
21.200992,0.4900773445392164,0.0
21.203392,0.4914750408078185,0.0
21.205776,0.4978081041290326,0.0
21.20816,0.5054916418906057,0.0
21.210556,0.5168998418912921,0.0
21.212948,0.5343143441312289,0.006061607371375005
21.215328,0.5571760701029757,0.01182271928893439
21.217724,0.5803173353284427,0.017528640347488977
21.220116,0.6062520972332447,0.023289752265048362
21.222496,0.625389160965878,0.02941288077680704
21.224892,0.6473197213778463,0.035317815032758736
21.22728,0.6728823962303107,0.040797749564502724
21.229664,0.6949527262691393,0.04658704639419266
21.23206,0.7187456178006644,0.0525090881577773
21.234452,0.7383945382124955,0.0525090881577773
21.236836,0.7523166956387962,0.0525090881577773
21.239232,0.765447457132179,0.0525090881577773
21.24162,0.7773675138120631,0.0525090881577773
21.244004,0.7811393978794196,0.0525090881577773
21.2464,0.785702677879694,0.0525090881577773
21.248788,0.7938508504922217,0.0525090881577773
21.251172,0.7999969223583324,0.0525090881577773
21.253568,0.8018592534778891,0.0525090881577773
21.255956,0.8033022757168651,0.0525090881577773
21.258336,0.8013001749704483,0.0525090881577773
21.260736,0.7923606064250024,0.046447480786402304
21.263124,0.7778340445208867,0.040686368868842915
21.265504,0.7642386481765494,0.03498044781028833
21.2679,0.7538560573921276,0.029219335892728945
21.270288,0.7502711647798745,0.023096207380970266
21.272668,0.7436132362345662,0.017191273125018575
21.275064,0.7326715669427035,0.011711338593274584
21.277452,0.725873868770535,0.005922041763584647
21.279832,0.7190761705983663,0.0
21.282232,0.7167019827996121,0.0
21.284616,0.721544802053607,0.005835609862359408
21.287,0.7285294916808791,0.011536583218870704
21.289396,0.7367248861216499,0.01705265482076486
21.291784,0.7467826116819773,0.02262560652015863
21.294164,0.7540468405629698,0.02834023922610963
21.296568,0.7553047672047116,0.028340239226109634
21.298956,0.753349888286538,0.028340239226109634
21.301336,0.7547475845551402,0.028340239226109634
21.303736,0.7562850504506023,0.028340239226109634
21.30612,0.7601967041448189,0.028340239226109634
21.308499999999995,0.7681125593318692,0.028340239226109634
21.3109,0.7792412200788352,0.033935504684422094
21.313288,0.7894387152660227,0.039471680225535724
21.315667999999995,0.7928385122810417,0.039471680225535724
21.318064,0.7903717766836703,0.039471680225535724
21.320452,0.7851115444069638,0.039471680225535724
21.322835999999995,0.7797115425033974,0.039471680225535724
21.325232,0.7771050372791658,0.039471680225535724
21.32762,0.7777113376148499,0.039471680225535724
21.33,0.777106933137035,0.039471680225535724
21.332396,0.7682145864198324,0.03363607036317631
21.334788,0.7613243404490467,0.027935097006665015
21.337184,0.7541545552245407,0.022419025404770858
21.33958,0.7464729133208368,0.016846073705377086
21.341972,0.7405138329098293,0.01113144099942609
21.344352,0.7366966228720989,0.01113144099942609
21.346748,0.7351610528345058,0.01113144099942609
21.34914,0.7344168787298311,0.01113144099942609
21.35152,0.7335329349982957,0.01113144099942609
21.353919999999995,0.7306468905203438,0.01113144099942609
21.356308,0.7246878101093365,0.01113144099942609
21.358688,0.7130945145114159,0.005536175541113625
21.361087999999995,0.7042947155928304,0.0
21.363476,0.7010819100329148,0.0
21.365856,0.7009421404060545,0.0
21.368255999999995,0.7055979682049461,0.0
21.370644,0.7091828608171992,0.0
21.373028,0.706901220817062,0.0
21.375423999999995,0.6994046745105922,0.0
21.377812,0.6926995241370405,0.0
21.380192,0.6953532511895154,0.0
21.382588,0.690138344883183,0.0
21.384976,0.6819901722706554,0.0
21.387356,0.6734226907775471,0.0
21.389756,0.6668573100308557,0.0
21.392144,0.6610833252170825,0.0
21.394524,0.6551695707764489,0.0
21.39692,0.6452516148429818,0.0
21.399308,0.6366841333498735,0.0
21.401688,0.6305380614837628,0.0
21.404092,0.6283961911104857,0.0
21.40648,0.6326799318570397,0.0
21.40886,0.6318885359241216,0.0
21.411256,0.6270929384983699,0.0
21.413648,0.6232285066323964,0.0
21.416028,0.6204350099530614,0.0
21.418424,0.6219252540202805,0.0
21.420812,0.6244864332741383,0.0
21.423196,0.6324022884611886,0.0
21.425596,0.6384558125286823,0.0
21.42798,0.6390148910361231,0.0
21.43036,0.6462318980888725,0.0
21.43276,0.6533091355147616,0.0
21.435144,0.6615970777541494,0.0
21.437528,0.6661603577544238,0.0
21.439924,0.6707236377546983,0.0
21.442308,0.6762180833147512,0.0
21.444692,0.6829232336883028,0.0
21.447088,0.6893488448081341,0.0
21.449476,0.6974970174206617,0.0
21.451856,0.7004302837268569,0.0
21.454256,0.7032237804061918,0.0
21.456644,0.7072279818990256,0.0
21.45904,0.716586859325052,0.0
21.46144,0.7247350319375795,0.0
21.463828,0.7319520389903289,0.0
21.466208,0.7370271756698011,0.0
21.468612,0.746106513842107,0.005185926349024373
21.471,0.7549063127606926,0.01020529924007085
21.47338,0.7619835501865816,0.015280764448233987
21.475776,0.7733445283590248,0.02009494438470892
21.478164,0.7829829450387716,0.024858746367276408
21.480544,0.7959739369052942,0.029479164015999954
21.482944,0.8077542239583181,0.03419288505823364
21.485328,0.8186033454515635,0.0390515800927628
21.487712,0.8274503661983922,0.044017717434248246
21.490108,0.8335038902658859,0.049098581101721835
21.492496,0.8411402061992158,0.054177578232358824
21.494876,0.8458432558263506,0.05417757823235881
21.497271999999995,0.8417465065348998,0.05417757823235882
21.49966,0.8440753683632802,0.05417757823235882
21.502044,0.843191424631745,0.05417757823235882
21.504439999999995,0.84244725052707,0.05417757823235882
21.506828,0.8346258389965061,0.05417757823235882
21.509208,0.8261528011598841,0.05417757823235882
21.511612,0.814746497017067,0.05417757823235882
21.514,0.8022692576876114,0.05417757823235882
21.51638,0.785787816865322,0.048991651883334444
21.518775999999995,0.7673042752966157,0.043972278992287964
21.521164,0.751334691153524,0.03889681378412483
21.523548,0.7292190351443215,0.034082633847649896
21.525952,0.7068238398813989,0.02931883186508241
21.528336,0.6830781701781172,0.02469841421635886
21.530719999999995,0.6624055364078907,0.019984693174125184
21.533116,0.6483908311829729,0.01512599813959602
21.535504,0.6347954348386355,0.010159860798110577
21.537887999999995,0.6241333048004933,0.005078997130636993
21.540284,0.6137507140160716,0.0
21.542672,0.6053702239780666,0.0
21.545052,0.6068604680452859,0.0
21.547452,0.6022046402463943,0.0
21.54984,0.6001099917013604,0.0
21.55222,0.599877674275883,0.0
21.554616,0.6075139902092129,0.0
21.557008,0.614591227635102,0.0
21.559391999999995,0.624461961740326,0.0
21.561788,0.6355434006590488,0.0
21.564176,0.6456936740179934,0.0
21.566556,0.6557041777500776,0.0
21.568956,0.6659942207358823,0.0
21.571344,0.6785659037218243,0.0
21.573724,0.6912773563346264,0.0
21.57612,0.7073413841342044,0.0
21.578508,0.7184700448811705,0.0
21.580888,0.7249428778292446,0.0
21.583284,0.7360715385762105,0.004672581344225765
21.585671999999995,0.7458497248828176,0.0046725813442257645
21.588056,0.7546967456296463,0.009402847368166092
21.590456,0.7646147015631135,0.014025017826445208
21.592844,0.7705284560037471,0.018647188284724326
21.595224,0.7793754767505757,0.023269358743003447
21.597624,0.7868720230570454,0.027891529201282565
21.600012,0.7954395045501536,0.032313238698388966
21.602392,0.7978609141771511,0.036935409156668084
21.604792,0.8051251430581436,0.04116232096074113
21.60718,0.8103872711927192,0.04547930660913413
21.609564,0.8175117304468515,0.04966954608848966
21.61196,0.8264985208205403,0.053859785567845195
21.614348,0.833902519328393,0.05807335674604387
21.616732,0.8362313811567734,0.05807335674604387
21.619128,0.8405623437315706,0.06240790767613584
21.621516,0.8431707448136714,0.062407907676135826
21.6239,0.8404244699625796,0.062407907676135826
21.626296,0.8396802958579045,0.062407907676135826
21.628688,0.8406586832459261,0.062407907676135826
21.631068,0.8346996028349186,0.05773532633191007
21.633468,0.8290200616776315,0.05773532633191007
21.635852,0.8230609812666243,0.05300506030796974
21.638236,0.8152395697360603,0.04838288984969062
21.640632,0.8056955967127998,0.04376071939141152
21.64302,0.7984332636896767,0.039138548933132386
21.645399999999995,0.7903795347336354,0.03451637847485327
21.647796,0.7740378635382061,0.03009466897774687
21.650188,0.7599778323429143,0.025472498519467753
21.652567999999995,0.7402835859607094,0.02124558671539471
21.654972,0.720868878832225,0.016928601067001704
21.65736,0.6986606750244055,0.012738361587646171
21.659744,0.6753815360299475,0.008548122108290637
21.66214,0.654616354461104,0.004334550930091959
21.664528,0.6389263095717327,0.004334550930091959
21.666912,0.6217460206151423,0.0
21.669308,0.6092215594574434,0.0
21.671696,0.5989787382998818,0.0
21.674076,0.5927401186351539,0.0
21.676472,0.5875724341570647,0.0
21.67886,0.5834756848656141,0.0
21.681244,0.5779359133351872,0.0
21.68364,0.572815450685341,0.0
21.686028,0.5675552184086348,0.0
21.688407999999995,0.5629466124379865,0.0
21.690804,0.5539144960939235,0.0
21.693192,0.546465171615697,0.0
21.695576,0.5482349549366365,0.0
21.697972,0.5500047382575761,0.0
21.70036,0.5559184926982096,0.0
21.702744,0.564485974191318,0.0
21.705148,0.5718427508709274,0.0
21.707536,0.5793392971773972,0.0
21.709916,0.5852530516180305,0.0
21.712316,0.5911668060586641,0.0
21.714704,0.5987105741933769,0.0
21.717084,0.6013189752754778,0.0
21.719484,0.6060692467308557,0.0
21.721868,0.6097485829995951,0.0
21.724252,0.6104946529621393,0.0
21.726648,0.615105154790657,0.0
21.729036,0.6218103051642087,0.0
21.731416,0.627025211470541,0.0
21.733816,0.6331712833366517,0.0
21.736204,0.6426699303895382,0.0
21.738584,0.6567318574426994,0.0
21.74098,0.6682798270702459,0.0
21.743372,0.6761031344586792,0.0
21.745752,0.6828555066604739,0.0
21.748152,0.6830897199438204,0.0
21.75054,0.6780164791222174,0.0
21.75292,0.6752248783007517,0.0
21.75532,0.6715021119195077,0.0
21.757704,0.6667084103516252,0.0
21.760084,0.6591212121044077,0.0
21.762488,0.6472502731106361,0.0
21.76488,0.637800743743862,0.0
21.76726,0.622205142510977,0.0
21.769656,0.5999516127327835,0.0
21.772044,0.5759755214618937,0.0
21.774428,0.5482747679518907,0.0
21.776824,0.5184793658968536,0.0
21.779212,0.4881721071626189,0.0
21.781596,0.45707345249546616,0.0
21.783992,0.42276199226839767,0.0
21.78638,0.38495818722769326,0.0
21.788764,0.34887694367968525,0.0
21.791164,0.3163805927439303,0.0
21.793552,0.28616588180831265,0.0
21.795936,0.2604672290447265,0.0
21.798332,0.2379341600128127,0.0
21.80072,0.21512155172717848,0.0
21.8031,0.19524220974773943,0.0
21.8055,0.17843590370135576,0.0
21.807888,0.16456286396116718,0.0
21.810268,0.15376286015403406,0.0
21.812667999999995,0.14054144671990346,0.0
21.815056,0.13104469552488615,0.0
21.81744,0.1282058728751773,0.0
21.819835999999995,0.1269498420913046,0.0
21.822224,0.1274163728001284,0.0
21.824608,0.13239896168098358,0.0
21.827003999999995,0.13817294649475687,0.0
21.829392,0.1428759961218916,0.0
21.831776,0.14757904574902636,0.0
21.834171999999995,0.15027999462974426,0.0
21.836564,0.15204977795068383,0.0
21.838944,0.14713879356821893,0.0
21.841339999999995,0.14087733474539507,0.0
21.843732,0.13461587592257118,0.0
21.846112,0.1293084218176217,0.0
21.848507999999995,0.12386119808581199,0.0
21.8509,0.11841397435400228,0.0
21.85328,0.1106851106220553,0.0
21.85568,0.10121084623931584,0.0
21.858068,0.09159681222971615,0.0
21.860451999999995,0.08398487896653334,0.0
21.862852,0.07651271533021071,0.0
21.86524,0.06703845094747124,0.0
21.867624,0.058657960909466365,0.0
21.87002,0.05027747087146147,0.0
21.872408,0.03880110574230515,0.0
21.874796,0.028255906172927173,0.0
21.877196,0.021458208000758507,0.0
21.87958,0.016383071321286267,0.0
21.88196,0.017593776134785008,0.0
21.884356,0.01973564650806207,0.0
21.886744,0.02562501827854846,0.0
