Time,Force,Position
20.747232,0.17771365250845655,0.0
20.749616,0.17547923433656243,0.0
20.752012,0.17189434172430937,0.0
20.7544,0.1691008450449744,0.0
20.75678,0.16616757873877924,0.0
20.75918,0.16137198131302743,0.0
20.761564,0.15536567907377688,0.0
20.763948,0.14612367869275397,0.0
20.766344,0.13501934719217443,0.0
20.768728,0.12284408050495635,0.0
20.771124,0.11267091456415512,0.0
20.77352,0.10021610862321663,0.0
20.775908,0.0868301371224998,0.0
20.778288,0.07465487043528174,0.0
20.780692,0.06154843818828533,0.0
20.78308,0.049373171501067264,0.0
20.78546,0.038408609627347934,0.0
20.78786,0.027444047753628603,0.0
20.790248,0.020506579954599733,0.0
20.792632,0.01915610551424078,0.0
20.795028,0.024091472566852803,0.0
20.797416,0.02180983256671553,0.0
20.799796,0.02339262443255175,0.0
20.802196,0.021250754059274686,0.0
20.804584,0.023392624432551752,0.0
20.806964,0.026605429992467344,0.0
20.809364,0.029678465925522726,0.0
20.811748,0.033705560000213186,0.0
20.814132,0.03959498519446028,0.0
20.816528,0.04362207926915074,0.0
20.818916,0.047649173343841195,0.0
20.8213,0.051816037045391866,0.0
20.823696,0.05984733261291602,0.0
20.826084,0.06880979374021849,0.0
20.828468,0.07255734856118855,0.0
20.830864,0.07723606894193691,0.0
20.833252,0.08084385413604674,0.0
20.835636,0.08258930821059993,0.0
20.838032,0.08738490563635175,0.0
20.84042,0.08966654563648901,0.0
20.842804,0.08687304895715404,0.0
20.845196,0.08407955227781909,0.0
20.847584,0.07928395485206727,0.0
20.849964,0.08449886115839972,0.0
20.852368,0.08622142265109614,0.0
20.854752,0.09180841600976605,0.0
20.857136,0.09860611418193471,0.0
20.85954,0.10554358198096357,0.0
20.861928,0.10903592679459961,0.0
20.864308,0.11825503459376575,0.0
20.866704,0.12547204164651501,0.0
20.869092,0.1322697398186837,0.0
20.871472,0.1333406750053222,0.0
20.873868,0.13348044463218245,0.0
20.876256,0.14190815649843047,0.0
20.878636,0.14833376761826167,0.0
20.881032,0.15704101873823012,0.0
20.88342,0.16854176653753355,0.0
20.885812,0.17575877359028286,0.0
20.888208,0.18348763732222984,0.0
20.890596,0.1907971921735962,0.0
20.892976,0.20010884777137938,0.0
20.89538,0.2087688770631047,0.0
20.897764,0.20620769780924703,0.0
20.900148,0.2002013955699965,0.0
20.902552,0.1904475385097759,0.0
20.904936,0.17962274626291674,0.0
20.90732,0.16865818438919744,0.0
20.909724,0.15927641438131432,0.0
20.912108,0.14603021250745768,0.0
20.914488,0.13583271732027005,0.0
20.916892,0.12591476138680288,0.0
20.91928,0.11743982769231168,0.0
20.92166,0.108337596938149,0.0
20.924056,0.09616233025093092,0.0
20.92644,0.08505799875035137,0.0
20.92882,0.07274296243627308,0.0
20.931224,0.05949676056241649,0.0
20.933612,0.04746126350205863,0.0
20.935992,0.0357263024194087,0.0
20.938396,0.028135312456452687,0.0
20.94078,0.019193848053137716,0.0
20.94316,0.01262657144857708,0.0
20.945568,0.00808762069468893,0.0
20.947952,0.011902934874550028,0.0
20.950332,0.019326034248520953,0.0
20.952728,0.02446749362235461,0.0
20.955112,0.030260579302246158,0.0
20.957496,0.03484296016863897,0.0
20.9599,0.03942534103503178,0.0
20.962284,0.04189018077453392,0.0
20.964664,0.04514641644695418,0.0
20.96706,0.04789079544017674,0.0
20.969448,0.04991199705271186,0.0
20.971828,0.054866464971442166,0.0
20.974232,0.057958601770615806,0.0
20.976616,0.05997980338315092,0.0
20.979,0.06293217055546438,0.0
20.981404,0.0649533721679995,0.0
20.983788,0.06493237544401198,0.0
20.986172,0.06304904760046783,0.0
20.988564,0.06251619419728262,0.0
20.990952,0.061490584981018,0.0
20.993332,0.06565365696683019,0.0
20.995728,0.06397642144450766,0.0
20.998116,0.0604368548026285,0.0
21.0005,0.06118102890730345,0.0
21.002896,0.06006287189242177,0.0
21.005284,0.06015541969103884,0.0
21.007664,0.058106097116378846,0.0
21.010068,0.05605677454171885,0.0
21.012452,0.05535792640741779,0.0
21.014836,0.05773211420617213,0.0
21.017232,0.061596546072145625,0.0
21.01962,0.05945467569886856,0.0
21.022,0.060106302004926476,0.0
21.024404,0.06383096424403976,0.0
21.026792,0.06462236017695788,0.0
21.029172,0.06648469129651453,0.0
21.031576,0.0745121951483002,0.0
21.033964,0.0876148356795581,0.0
21.036344,0.10071747621081602,0.0
21.03874,0.10672377845006657,0.0
21.041128,0.1076549440098449,0.0
21.043508,0.10700331770378702,0.0
21.045912,0.10462912990503268,0.0
21.0483,0.10239471173313855,0.0
21.05068,0.10365263837488042,0.0
21.053084,0.10598150020326084,0.0
21.055472,0.11352526833797372,0.0
21.057852,0.12227974128618532,0.0
21.060248,0.12903211348798008,0.0
21.062636,0.13257168012985923,0.0
21.065016,0.1402552178914323,0.0
21.06742,0.15236226602641972,0.0
21.069808,0.16367791822848898,0.0
21.072188,0.17313123931100163,0.0
21.074588,0.1875199274461263,0.0
21.076976,0.20055814114089204,0.0
21.079356,0.20637934778290845,0.0
21.081752,0.20498354737217556,0.0
21.08414,0.20130610696130544,0.0
21.086524,0.20684777434960147,0.0
21.08892,0.21839574397714803,0.0
21.091304,0.23366837584380787,0.0
21.093688,0.24773030289696896,0.0
21.096084,0.2556461580840193,0.0
21.098472,0.25941804215137576,0.0
21.100852,0.2611878254723154,0.0
21.103256,0.2608157384199779,0.0
21.105644,0.26030388174078023,0.0
21.108024,0.25657921950166696,0.0
21.11042,0.25513619726269093,0.0
21.112808,0.24833849909052233,0.0
21.115188,0.24098172241091284,0.0
21.117588,0.2342765720373612,0.0
21.119972,0.2274316520369494,0.0
21.122356,0.2168620697974243,0.0
21.124752,0.21057622830445336,0.0
21.12714,0.2102966890507329,0.0
21.12952,0.21309018573006788,0.0
21.131924,0.21951579684989903,0.0
21.134312,0.22365976796959294,0.0
21.136692,0.2205867320365375,0.0
21.139096,0.2197953361036194,0.0
21.141484,0.22207697610375665,0.0
21.143864,0.231435853529783,0.0
21.14626,0.24451939319492264,0.0
21.148652,0.2556008321136454,0.0
21.151032,0.26281783916639473,0.0
21.153432,0.2729681125253392,0.0
21.15582,0.2883332921906161,0.0
21.158204,0.30234799741553403,0.0
21.1606,0.3172938682002303,0.0
21.162988,0.33051717749223014,0.0
21.165372,0.34201792529153363,0.0
21.167764,0.35552077383725383,0.0
21.170152,0.3686043135023934,0.0
21.172532,0.37675248611492107,0.0
21.174932,0.3821071620481138,0.0
21.177316,0.3874618379813064,0.0
21.1797,0.3902553346606414,0.0
21.182096,0.3910467305935595,0.0
21.184484,0.39411976652661485,0.0
21.186864,0.39197789615333783,0.0
21.18926,0.38848555133970175,0.0
21.191648,0.383782501712567,0.0
21.194028,0.3770773513390154,0.0
21.196428,0.3762387335778541,0.0
21.198816,0.38219781398886143,0.0
21.201196,0.38243013141433885,0.0
21.203596,0.38131197439945713,0.0
21.20598,0.3794024214516573,0.0
21.208364,0.3776326381307178,0.0
21.21076,0.37278981887672286,0.0
21.213144,0.36980933074228456,0.0
21.215544,0.3608225403685957,0.0
21.21794,0.35290668518154533,0.0
21.220328,0.34564245630055285,0.0
21.222708,0.3342342562998665,0.0
21.225108,0.3181702285002885,0.0
21.227496,0.3053190062606261,0.0
21.229876,0.2916763880880457,0.0
21.232272,0.27817353954232543,0.0
21.23466,0.266672791743022,0.0
21.23704,0.2575934535707161,0.0
21.239436,0.24464968353243666,0.0
21.241824,0.23198545274787763,0.0
21.244204,0.2173191212169018,0.0
21.246608,0.19799696188703433,0.0
21.248996,0.18333063035605843,0.0
21.251376,0.16573103251888743,0.0
21.253772,0.1499937658012731,0.0
21.25616,0.1353274342702972,0.0
21.258544,0.12666740497857193,0.0
21.260948,0.12028901568698389,0.0
21.263332,0.11791482788822953,0.0
21.265716,0.11796204971647267,0.0
21.268112,0.12243278191813015,0.0
21.270496,0.13169911154553948,0.0
21.27288,0.14655243453161867,0.0
21.275276,0.1583327215846425,0.0
21.277664,0.1736979012499194,0.0
21.280044,0.1917168079676711,0.0
21.282448,0.20959594505856255,0.0
21.284836,0.2253332117761769,0.0
21.28722,0.24107047849379126,0.0
21.289616,0.2555970403979069,0.0
21.292004,0.26798173192874547,0.0
21.294384,0.27915571864608535,0.0
21.29678,0.2844631727510349,0.0
21.299168,0.28991039648284456,0.0
21.301548,0.2934952890950976,0.0
21.303944,0.2938673761474351,0.0
21.306332,0.29423946319977257,0.0
21.308716,0.2883257087591391,0.0
21.311112,0.28320335025142374,0.0
21.313496,0.2767305173033494,0.0
21.315896,0.26597394360872106,0.0
21.318292,0.2565678443544515,0.0
21.32068,0.24343708286106874,0.0
21.32306,0.2313772565543245,0.0
21.325456,0.21894534319524275,0.0
21.327844,0.2035801635299658,0.0
21.330228,0.18821498386468885,0.0
21.332624,0.17485190494582878,0.0
21.335012,0.16535325789294222,0.0
21.337392,0.15878787714625084,0.0
21.339792,0.15063970453372322,0.0
21.34218,0.14635596378716909,0.0
21.34456,0.14714735972008722,0.0
21.346964,0.1510117915860607,0.0
21.349352,0.154736453825174,0.0
21.351732,0.16088252569128475,0.0
21.354128,0.16381579199747992,0.0
21.35652,0.17075325979650882,0.0
21.3589,0.17703910128947978,0.0
21.361296,0.1813228420360339,0.0
21.363684,0.18975055390228196,0.0
21.366068,0.1949654602086144,0.0
21.368464,0.20297386319428184,0.0
21.370852,0.21298436692636608,0.0
21.373232,0.22150462659123119,0.0
21.375628,0.2310958214427348,0.0
21.378016,0.2423170299883178,0.0
21.3804,0.2493942674142069,0.0
21.382796,0.2539575474144814,0.0
21.385184,0.2558671003622813,0.0
21.387564,0.2636431859224714,0.0
21.389968,0.26876554443018674,0.0
21.392356,0.2746792988708202,0.0
21.39474,0.2796618877516754,0.0
21.397136,0.2857154118191691,0.0
21.399524,0.29242056219272067,0.0
21.401908,0.3015471221932698,0.0
21.404304,0.3117446173804574,0.0
21.406692,0.3248753788738402,0.0
21.409076,0.3372147444343049,0.0
21.411472,0.34354780775551896,0.0
21.41386,0.3520227414500101,0.0
21.41624,0.35835580477122425,0.0
21.41864,0.3637577025326601,0.0
21.421028,0.36915960029409584,0.0
21.423408,0.377634533988587,0.0
21.425808,0.3862020154816953,0.0
21.428196,0.3970511369749408,0.0
21.430576,0.4094830503340225,0.0
21.432976,0.4227063596260224,0.0
21.435364,0.4327168633581067,0.0
21.437744,0.4452413245158054,0.0
21.440144,0.4559034545539476,0.0
21.442532,0.470290246831203,0.0
21.444912,0.4854684350413766,0.0
21.447312,0.5015777888113285,0.0
21.4497,0.5196892433276972,0.0
21.45208,0.5357985970976491,0.0
21.45448,0.5469725838149889,0.0
21.456868,0.5598691320250252,0.0
21.459248,0.5747677809814784,0.0
21.461644,0.5884557251244327,0.0
21.464036,0.6056360140810232,0.0
21.466416,0.621745367850975,0.0
21.468816,0.6390654264344257,0.0
21.471204,0.6522415138981823,0.0
21.473584,0.6619724783765462,0.0
21.475984,0.6676992413620761,0.0
21.478372,0.6723550691609678,0.0
21.480752,0.6790129977062763,0.0
21.483152,0.6859504655053053,0.0
21.48554,0.6883718751323027,0.0
21.48792,0.6866493136396064,0.0
21.490324,0.675987183601464,0.0
21.492712,0.662671326510847,0.0
21.495092,0.6487038431141724,0.0
21.497488,0.6283107485976663,0.0
21.499876,0.6060553229616036,0.0
21.50226,0.584451523631599,0.0
21.504656,0.5619165587418159,0.0
21.507044,0.5412439249715896,0.0
21.509428,0.5219217656417221,0.0
21.511824,0.5009695926177753,0.0
21.514212,0.4800174195938284,0.0
21.516596,0.4559922106368261,0.0
21.518992,0.434108872053101,0.0
21.52138,0.41487926052185065,0.0
21.523764,0.40430967828232556,0.0
21.52616,0.39574219678921735,0.0
21.528548,0.38317051380327544,0.0
21.530932,0.3693881260038348,0.0
21.533328,0.3604013356301458,0.0
21.535716,0.35690899081650973,0.0
21.538096,0.3617045882422616,0.0
21.540492,0.37022484790712673,0.0
21.54288,0.3733904316387992,0.0
21.54526,0.3776269505571102,0.0
21.547656,0.3846569661547561,0.0
21.550044,0.3919665210061225,0.0
21.55244,0.4034200469771827,0.0
21.554836,0.4108693714554093,0.0
21.557224,0.41496612074686,0.0
21.559604,0.4168284518664166,0.0
21.562008,0.41789938705305507,0.0
21.564396,0.4220433581727491,0.0
21.566776,0.4249766244789443,0.0
21.56918,0.4243249981728863,0.0
21.571568,0.41687567369465983,0.0
21.573948,0.40570168697732,0.0
21.576344,0.39839213212595365,0.0
21.578732,0.39336421727472454,0.0
21.581112,0.38419233130380154,0.0
21.583512,0.3784655683182714,0.0
21.585896,0.370457165332604,0.0
21.588276,0.36286807122751713,0.0
21.590676,0.36156481861540135,0.0
21.593064,0.3616120404436446,0.0
21.595444,0.3607280967121094,0.0
21.59784,0.36664185115274295,0.0
21.600228,0.36962233928718125,0.0
21.602612,0.3816821655939255,0.0
21.605008,0.3949526967141685,0.0
21.607392,0.41166835081980435,0.0
21.609776,0.42796469604485954,0.0
21.612176,0.4442610412699148,0.0
21.61456,0.45697249388271693,0.0
21.616944,0.4734086087346324,0.0
21.619348,0.49184682433296467,0.0
21.621736,0.5101452703044368,0.0
21.624116,0.5245792844099353,0.0
21.626512,0.5387337592617135,0.0
21.6289,0.5571719748600458,0.0
21.63128,0.5658792259800143,0.0
21.633676,0.5697908796742309,0.0
21.636064,0.5682080878083947,0.0
21.638444,0.5623415551960044,0.0
21.640844,0.5612706200093658,0.0
21.643228,0.5600599151958671,0.0
21.645608,0.548047310717366,0.0
21.648012,0.5338928358655878,0.0
21.6504,0.5128008932147808,0.0
21.65278,0.4946422168701689,0.0
21.65518,0.47662331015241727,0.0
21.657564,0.45781300750174747,0.0
21.659948,0.43592966891802226,0.0
21.662352,0.4216354244393839,0.0
21.664736,0.4065497840278273,0.0
21.667116,0.39360601398954786,0.0
21.669516,0.38573738063074076,0.0
21.6719,0.3789396824585721,0.0
21.674284,0.3712108187266251,0.0
21.676688,0.3594777535018444,0.0
21.679072,0.355613321635871,0.0
21.681456,0.35747565275542753,0.0
21.683852,0.3646926598081769,0.0
21.68624,0.37204943648778643,0.0
21.688624,0.3723289757415068,0.0
21.69102,0.36981501831589225,0.0
21.693404,0.37223642794288975,0.0
21.695788,0.37852226943586076,0.0
21.698184,0.3855995068617498,0.0
21.700572,0.39067464354122206,0.0
21.702952,0.39067464354122206,0.0
21.705352,0.39574978022069424,0.0
21.707736,0.40268724801972317,0.0
21.710132,0.40468934876614,0.0
21.712528,0.40641191025883644,0.0
21.71492,0.4039905006318389,0.0
21.7173,0.39849605507178604,0.0
21.719696,0.3940725446983717,0.0
21.722084,0.3877867032054007,0.0
21.724468,0.3842943583917647,0.0
21.726864,0.37814828652565396,0.0
21.729252,0.370419422793707,0.0
21.731632,0.3585465879420661,0.0
21.734028,0.352819824956536,0.0
21.736416,0.3512370330906998,0.0
21.7388,0.354869147531196,0.0
21.741204,0.3615742979047476,0.0
21.743588,0.3645547860391859,0.0
21.745968,0.36874597898712297,0.0
21.748364,0.37307694156192023,0.0
21.750752,0.3814121056295512,0.0
21.753132,0.38467213301770997,0.0
21.755528,0.38807193003272894,0.0
21.757916,0.3906803311148298,0.0
21.7603,0.39664130738370645,0.0
21.762696,0.40446461477213974,0.0
21.765084,0.4110772173470743,0.0
21.76748,0.41955215104156546,0.0
21.769876,0.43175174697517,0.0
21.772264,0.4440911125356346,0.0
21.774644,0.4550800036557403,0.0
21.77704,0.4657893555221256,0.0
21.779428,0.4827845488814819,0.0
21.781808,0.49163156962831056,0.0
21.784204,0.5035516263081946,0.0
21.786592,0.5149126044806378,0.0
21.788976,0.5204070500406907,0.0
21.79138,0.5288347619069387,0.0
21.793768,0.5321873370937146,0.0
21.796152,0.5372624737731868,0.0
21.798548,0.5418257537734612,0.0
21.800936,0.5505330048934296,0.0
21.80332,0.5595197952671185,0.0
21.80572,0.570368916760364,0.0
21.808108,0.575863362320417,0.0
21.810488,0.580706181574412,0.0
21.812892,0.5861080793358479,0.0
21.81528,0.5873660059775897,0.0
21.81766,0.5848992703802183,0.0
21.820056,0.5822927651559867,0.0
21.822444,0.5815485910513118,0.0
21.824824,0.5786625465733599,0.0
21.827224,0.570282056535355,0.0
21.829608,0.5668369335499621,0.0
21.831992,0.5561748035118199,0.0
21.834388,0.5439298816078415,0.0
21.836776,0.536480557129615,0.0
21.839156,0.5288914630245282,0.0
21.841552,0.5263775055989136,0.0
21.84394,0.5179970155609087,0.0
21.84632,0.5089176773886027,0.0
21.848724,0.4987674040296584,0.0
21.851112,0.49019992253655015,0.0
21.853492,0.48256360660322023,0.0
21.855892,0.47734870029688775,0.0
21.85828,0.47478752104303,0.0
21.86066,0.4739489032818687,0.0
21.86306,0.47446075996106635,0.0
21.865444,0.4788370485062375,0.0
21.867828,0.48228217149163033,0.0
21.870224,0.4840047329843268,0.0
21.872612,0.491873366343134,0.0
21.874992,0.5009527045154399,0.0
21.877388,0.5123136826878831,0.0
21.879776,0.5276788623531601,0.0
21.88216,0.5387603012718829,0.0
21.884556,0.5446268338842732,0.0
21.886944,0.5494224313100251,0.0
21.889324,0.5520761583624999,0.0
21.89172,0.5585943172809481,0.0
21.894108,0.5644608498933383,0.0
21.896504,0.5649727065725362,0.0
21.8989,0.5636222321321772,0.0
21.901288,0.5614803617589001,0.0
21.903672,0.5570568513854858,0.0
21.906068,0.553052649892652,0.0
21.908456,0.5497000747058762,0.0
21.91084,0.5490012265715752,0.0
21.913236,0.5441584073175803,0.0
21.915624,0.5363823217573901,0.0
21.918008,0.5316792721302553,0.0
21.920404,0.5220408554505085,0.0
21.922792,0.5094691724645666,0.0
21.925172,0.4926137487320705,0.0
21.927568,0.4749669290666563,0.0
21.929956,0.4645371164539914,0.0
21.93234,0.45946197977451914,0.0
21.934736,0.45666848309518415,0.0
21.937124,0.4569480223489046,0.0
21.939504,0.45871780566984416,0.0
21.941904,0.46262945936406086,0.0
21.944292,0.471104393058552,0.0
21.946672,0.47664606044684804,0.0
21.949068,0.4829791237680623,0.0
21.951456,0.4923852230223318,0.0
21.95384,0.4944345455969918,0.0
21.956236,0.4941096803728975,0.0
21.958624,0.4911310880963283,0.0
21.961004,0.4895029702601182,0.0
21.963404,0.48908555723740677,0.0
21.965792,0.48373277716208335,0.0
21.968172,0.47637789634034317,0.0
21.970568,0.4730272170114365,0.0
21.972956,0.4676744369361131,0.0
21.975352,0.4603195561143729,0.0
21.977748,0.44802930824002063,0.0
21.980136,0.4326660244326129,0.0
21.982516,0.41129643838595475,0.0
21.984916,0.3872731252868218,0.0
21.987304,0.3620391073741901,0.0
21.989684,0.3335922839016428,0.0
21.99208,0.30307324527257873,0.0
21.994468,0.2791424799720628,0.0
21.996848,0.2525579876190721,0.0
21.999244,0.22383162489280442,0.0
22.001632,0.20032016847286913,0.0
22.004016,0.17645905838911352,0.0
22.006412,0.153389344238276,0.0
22.0088,0.13118114043045653,0.0
22.011184,0.11148689404825161,0.0
22.013588,0.09565707953202016,0.0
22.015976,0.0836916968817622,0.0
22.018356,0.06972421348508741,0.0
22.020756,0.06097163639474505,0.0
22.023144,0.05501255598373764,0.0
22.025524,0.051055576319147096,0.0
22.027924,0.04495672628127947,0.0
22.030308,0.04300184736310577,0.0
22.032692,0.03969649400457312,0.0
22.035088,0.03590171735535993,0.0
22.037476,0.03410904145256359,0.0
22.03986,0.03459846474324413,0.0
22.042256,0.030943457720891153,0.0
22.044648,0.029011012191234604,0.0
22.047028,0.028149501848216588,0.0
22.049428,0.02714822187833836,0.0
22.051812,0.02714822187833836,0.0
22.054196,0.02714822187833836,0.0
22.056592,0.027078107468238456,0.0
22.058984,0.02621659712522044,0.0
22.061364,0.024284151595563897,0.0
22.06376,0.021420540506129026,0.0
22.066148,0.01948809497647248,0.0
22.068532,0.015413779073538872,0.0
22.070928,0.010408297610826938,0.0
22.073316,0.005263046521254799,0.0
22.0757,0.003190831364738042,0.0
22.0781,0.000839076954500864,0.0
22.080488,0.000489423290680537,0.0
22.082868,0.000489423290680537,0.0
22.085264,0.000489423290680537,0.0
22.087656,0.0,0.0
22.090036,0.0,0.0
22.092436,0.0,0.0
22.094824,0.0,0.0
22.097204,0.0,0.0
22.099604,0.0,0.0
22.101992,0.0,0.0
22.104376,0.0,0.0
22.106772,0.0,0.0
22.10916,0.0,0.0
22.111544,0.0,0.0
22.11394,0.0,0.0
