Time,Force,Position
24.184936,0.049890014239460816,0.0
24.187336,0.047358936516538254,0.0
24.189724,0.045759024353394025,0.0
24.192104,0.0448107384963077,0.0
24.1945,0.042651747825722626,0.0
24.196888,0.04035298752827735,0.0
24.199272,0.038054227230832065,0.0
24.201668,0.033753366186969926,0.0
24.204056,0.026379469210052412,0.0
24.206436,0.02218827626211535,0.0
24.208836,0.021349658500954084,0.0
24.21122,0.022932450366790307,0.0
24.213600000000003,0.024655011859486736,0.0
24.216008,0.025725947046125266,0.0
24.218396,0.03308272372573477,0.0
24.220776,0.044583471525038186,0.0
24.223172,0.06168833298031953,0.0
24.22556,0.08000389924909963,0.0
24.227944,0.09831946551787972,0.0
24.23034,0.11356199585360442,0.0
24.232728,0.12866475656246892,0.0
24.235108,0.1396235461516395,0.0
24.237504,0.14643836462111615,0.0
24.239892,0.15339295271745307,0.0
24.242276,0.15648310894781647,0.0
24.244672,0.16329792741729315,0.0
24.24706,0.16610854439393613,0.0
24.249444,0.1677084565570804,0.0
24.25184,0.1683772031604463,0.0
24.254228,0.16719659987788268,0.0
24.256612,0.16387412622204203,0.0
24.259008,0.1582700125660641,0.0
24.2614,0.15159496372344763,0.0
24.26378,0.14478014525397095,0.0
24.26618,0.1358234564112172,0.0
24.268568,0.12379373163540809,0.0
24.270948,0.10668887018012674,0.0
24.273348,0.08837330391134664,0.0
24.275736,0.07005773764256655,0.0
24.278116,0.05481520730684182,0.0
24.280516,0.039712446597977326,0.0
24.282904,0.031144965104869086,0.0
24.285284,0.028863325104731812,0.0
24.287684,0.0253709802910958,0.0
24.290072,0.028676333649628453,0.0
24.292452,0.026534463276351387,0.0
24.294848,0.030398895142324876,0.0
24.297236,0.036544967008435646,0.0
24.299616,0.042551269247686194,0.0
24.302016,0.05015748365008098,0.0
24.3044,0.05990556842575283,0.0
24.306784,0.06485805577567286,0.0
24.30918,0.06901914719267478,0.0
24.311568,0.07224907304989839,0.0
24.313948,0.07426829409362325,0.0
24.316348,0.07507681032384937,0.0
24.318732,0.07709603136757423,0.0
24.321116,0.08190874909063406,0.0
24.323512,0.08565053162705535,0.0
24.3259,0.08953208379033685,0.0
24.328284,0.0914115352072015,0.0
24.33068,0.08902022711113916,0.0
24.333068,0.08448704864179976,0.0
24.335464,0.0814140127087444,0.0
24.337860000000003,0.07501850311984835,0.0
24.340252000000003,0.07034555502364874,0.0
24.342632,0.06367050618103226,0.0
24.345028000000003,0.0584555998746998,0.0
24.347416,0.05603419024770233,0.0
24.3498,0.0556148813671217,0.0
24.352196000000003,0.05263439323268339,0.0
24.354584,0.05803439513624993,0.0
24.356964,0.0607334481590986,0.0
24.359364000000003,0.06380458823428474,0.0
24.361752,0.06831875054844688,0.0
24.364136,0.07348453916866694,0.0
24.366532000000003,0.07753217077400532,0.0
24.36892,0.07701652237906913,0.0
24.371304,0.0758020258498319,0.0
24.373700000000003,0.07547147305212983,0.0
24.376088,0.0820311662252135,0.0
24.378468,0.0916337938004174,0.0
24.380864,0.10319130029379502,0.0
24.383256,0.11710587428861895,0.0
24.385636,0.13308499529754164,0.0
24.388032,0.1513910822769755,0.0
24.39042,0.17188436560006037,0.0
24.3928,0.18910050123767844,0.0
24.395196,0.20878337247266793,0.0
24.397584,0.22664923855847469,0.0
24.399968,0.24898394098806967,0.0
24.402368,0.27164350864175896,0.0
24.404756000000003,0.30356751006498833,0.0
24.407136,0.34168290932470247,0.010831088851558772
24.409536,0.3853380801148432,0.021180998414625417
24.411924000000003,0.43304277836819166,0.0315849819540953
24.414308,0.48507654333846817,0.041907366448884195
24.416708,0.5450242676379258,0.05198091476376969
24.419096,0.616191304625097,0.061597221203138895
24.421476,0.692850891314452,0.0711367489774147
24.423872,0.7717902221460748,0.08060504677326753
24.426260000000003,0.8551039456649998,0.09024587180725999
24.42864,0.9418608963114484,0.1000711190242401
24.431036,1.0331320092720593,0.10992766095212189
24.433424,1.1329214860396655,0.11960414627780339
24.435808,1.2384358299349332,0.1292860246379328
24.438204,1.3507459761445,0.1389215329148636
24.440596000000003,1.474647522094118,0.14842324186384137
24.44298,1.6004095033054233,0.15804747147784334
24.445376,1.733246826084749,0.16765925345780167
24.447764000000003,1.8692950585661205,0.17730042551413763
24.450148,2.0106960711228155,0.1868733404267722
24.452544,2.1588003381951926,0.1962297850498735
24.454932000000003,2.3100229671709993,0.1946946336002082
24.457316,2.462501626930679,0.19363340844976965
24.459712,2.619169583780426,0.19250945064161587
24.462100000000003,2.7804461466008217,0.191388777431223
24.464484,2.942234566100415,0.1904883973581264
24.466884,3.0996466970548373,0.19004687811242335
24.469272,3.2545448705836453,0.18972325579140908
24.471652,3.404694668514944,0.18953909188110224
24.474052,3.556149614916228,0.1890815748145214
24.47644,3.7081183138545786,0.1883691921200704
24.478824,3.855153541598187,0.1876445703768809
24.48122,3.9932510966542187,0.18715524981827358
24.483608,4.12590332383631,0.18665529268507303
24.485992,4.250316726465126,0.1862456477715094
24.488388,4.365420369354028,0.18600037323584073
24.490776,4.478011950675183,0.18560241422587798
24.49316,4.586880765615096,0.18516380935814303
24.495556,4.692818210106682,0.1846554767376393
24.497944,4.793310326724328,0.18416649411868397
24.500328,4.87685636766873,0.18409520373465582
24.502724,4.951045427044976,0.18418321801421722
24.505112,5.020253793398235,0.18431608864518154
24.507496,5.08625125004945,0.18440320811500568
24.509896,5.1443347473714836,0.1846290009536229
24.512284,5.199532200215565,0.18488358388573323
24.514664,5.252495234887753,0.1851598321777277
24.51706,5.312023650306632,0.1852183006574029
24.519448,5.374625101658565,0.18517803978147734
24.521828000000003,5.433594438570003,0.18528068503218761
24.524224,5.491585388093419,0.1854628843351807
24.526616,5.554836569893543,0.1855833025937833
24.528996000000003,5.625350084716788,0.1855881962701228
24.531392,5.70084429256302,0.18556003516834446
24.53378,5.785183625298211,0.18540597560576674
24.536164000000003,5.877064830310247,0.18513600685829207
24.53856,5.969270900546376,0.18493396177666327
24.540948,6.064083476006736,0.18474579144630202
24.543332000000003,6.160571391131551,0.18458488718239385
24.545728,6.260037898532934,0.18445182813812688
24.548116,6.377987947503024,0.1839495357446045
24.550496,6.506041048003814,0.18325769417935225
24.552892,6.64182301223655,0.1824274446371188
24.55528,6.781050099454679,0.1815828457133456
24.55766,6.926283488912059,0.18061820594469924
24.56006,7.073938287996436,0.17960865741056076
24.562444000000003,7.226296136707949,0.17849988994590732
24.564828,7.369249782023061,0.177575333101136
24.567224,7.510016230994522,0.1766505646112092
24.569612000000003,7.653298533249469,0.17560321768326528
24.571996,7.793789234682948,0.17450977535359535
24.574392,7.930185082682845,0.17339164659915754
24.576780000000003,8.05834210612947,0.17232122153528082
24.579176,8.178260305022816,0.17128830228258898
24.581572,8.290870844922665,0.17029508837510132
24.583964,8.394823251388658,0.16936848448516356
24.586344,8.49668290516749,0.16835529160354074
24.588744,8.5909553606991,0.16737416897047583
24.591132,8.68099319317027,0.16635763952667965
24.593516,8.76120940922233,0.16537668212805967
24.595912,8.828111664041641,0.16453273745645594
24.5983,8.88328274949404,0.16378882621240637
24.60068,8.924301255952528,0.16319074381233625
24.60308,8.955962780842862,0.16266576360665658
24.605468,8.983062921590786,0.16214586087825975
24.607848,9.00359957744989,0.16165701944493474
24.610252,9.015011569166315,0.1612545341241331
24.612640000000003,9.02232681159129,0.16088563034585374
24.61502,9.02768717509809,0.16051680394647241
24.617416,9.024946587820605,0.16024435924856242
24.619808000000003,9.017410403117369,0.16003775596922112
24.622188,9.003867916174883,0.159921319104824
24.624588,8.989813572553196,0.15979712970519666
24.626976000000003,8.978972034491429,0.15961804567696763
24.629356,8.961612337511214,0.15952094271281061
24.631752,8.939317273478384,0.15949616890995572
24.63414,8.915531965378335,0.1595071315020881
24.63652,8.889604786905009,0.15955520312030863
24.63892,8.85846270212535,0.1596878414701328
24.641308,8.829555035517586,0.15981174670576015
24.643688,8.79650339779013,0.16000344261290178
24.646088,8.766757113421201,0.16016652545811672
24.648476,8.739804325731612,0.16029633371552263
24.650856,8.71364293397494,0.16042095066433515
24.653252,8.67933336960574,0.16067714408096617
24.65564,8.640740064489988,0.16101268049672413
24.658024,8.600144658627817,0.16138442137876527
24.66042,8.561179266459723,0.1617138768781356
24.662808,8.519280607985438,0.16208700109700355
24.665192,8.480966842123404,0.16241647437704673
24.667588,8.446936817007925,0.16266838619138144
24.66998,8.413558418198502,0.16292441627396173
24.67236,8.37990048013536,0.1631930580378788
24.674756,8.342378110206244,0.1635160784898399
24.67714,8.31072227288952,0.1637505420329961
24.67952,8.285072737812044,0.1638899783265766
24.681916,8.258771576428511,0.16402767442182192
24.6843,8.235683220604896,0.16410739638096844
24.686684,8.218740936647391,0.1640832705050357
24.689088,8.202217961570467,0.16403853879198352
24.691472,8.18662615205332,0.16398189859403198
24.693852,8.170522485856976,0.1639167195753005
24.696248,8.157212316339967,0.16381303887334187
24.698632,8.144181686076678,0.16369529647376466
24.701012,8.13701758842578,0.16348673272240222
24.703428,8.138001663387408,0.16314018367573932
24.705816,8.141919004655232,0.16274581549281575
24.708196,8.14849007297553,0.1623196695650761
24.710592,8.157063242042245,0.16186007013544346
24.712976,8.16084081368321,0.16147111205142722
24.71536,8.163128141256957,0.16112398722100477
24.717764,8.171980849577393,0.16065297537627266
24.720148,8.182556119390524,0.16016408773896051
24.722532,8.194574411442634,0.15966978061686998
24.724928,8.205242229054384,0.15921085802263815
24.727316,8.216049816292994,0.15874795583298343
24.729696,8.22951113058408,0.1582563936932824
24.7321,8.24483477599472,0.1577432503718409
24.734488,8.255595141405086,0.15732099888089449
24.736868,8.267007133121512,0.1569003713630778
24.739272,8.279629829651435,0.15645161902501298
24.74166,8.293043922114276,0.1559993762372106
24.74404,8.308879424204116,0.15550049678634867
24.746436,8.325226782973154,0.15501002427430483
24.748824000000003,8.34278484655569,0.1544963025256603
24.751204,8.354336607898974,0.15407532632982135
24.7536,8.369101174802175,0.15360088666344038
24.755988,8.383074345772458,0.1531335969299515
24.758372,8.397047516742742,0.15266743454651782
24.760768,8.417026989952273,0.15211115774124925
24.763156,8.436354836855749,0.1515533648594815
24.765536,8.445392640773418,0.15115785108972415
24.767932,8.45484975357167,0.15074465802862438
24.77032,8.463655240063863,0.15032973331469715
24.7727,8.473531661742694,0.1498981199392588
24.775096,8.479124342674972,0.14953799017503985
24.77748,8.481132130994999,0.1492172751018946
24.779860000000003,8.478204552262412,0.14896608382810514
24.782276,8.474625347223764,0.1487119297216196
24.78466,8.471325681438838,0.1484447024463665
24.78704,8.471331369012448,0.1481521415133485
24.789444,8.46854355990672,0.1478933084815022
24.791832000000003,8.461472010054438,0.14770577704170046
24.794212,8.452817668336321,0.1475271288655672
24.796608000000003,8.442300995498648,0.1473703192512769
24.798996,8.436719689713586,0.1471449107673005
24.80138,8.429787909488166,0.1469503193777114
24.803776000000003,8.421365885195524,0.14679231330713902
24.806164,8.412804091276021,0.1466405804628016
24.808544,8.403171362169882,0.1465058790555055
24.810944000000003,8.39526119455644,0.1463559957592868
24.813332,8.394288494742028,0.1461109936138943
24.815712,8.391825550860393,0.1459028484380795
24.818108,8.391224938098318,0.1456735295536481
24.820496,8.387691059030047,0.14548238584578346
24.82288,8.386019511081331,0.14526920909967725
24.825284,8.38178678387876,0.1451088818922544
24.827672,8.380487322982383,0.14490914914858283
24.830056000000003,8.3821211283922,0.14466980945347666
24.832452,8.386548430481353,0.14439959615633502
24.83484,8.390463875891307,0.14412211271213066
24.837224000000003,8.397172817980598,0.14381300435963054
24.83962,8.404021529696749,0.14349710905065952
24.842008,8.413523968465375,0.14315606977349898
24.844392000000003,8.425400595032754,0.1428039679784309
24.846788,8.435135351226856,0.14248741250569316
24.849176,8.445149646674679,0.14215980892943392
24.851556,8.455583251003082,0.14181249523562242
24.853952,8.465225459398567,0.14146927224811737
24.85634,8.47486766779405,0.14112780731942104
24.858724,8.482787314696841,0.1408009560982116
24.86112,8.48977579603985,0.14048531011757334
24.863508,8.491177284024191,0.1402284361166873
24.865888,8.489785275329199,0.14000205561838044
24.868288,8.489464201820843,0.13975855788551655
24.870676,8.494218264991957,0.13944666517445323
24.873056,8.506468874469544,0.13902003900593016
24.875452,8.517928088014212,0.13859762954579194
24.877840000000003,8.533531272678575,0.1381206842249304
24.880224,8.543128155103686,0.13772244420826046
24.88262,8.550862706409243,0.13734478550038395
24.885008000000003,8.557805861781878,0.13697189185335207
24.887388,8.564749017154513,0.13659869829127436
24.889788,8.572391020661453,0.13619648785322427
24.892176000000003,8.578729771556274,0.1357902699783827
24.894556,8.583066421704677,0.1354084769469805
24.896952,8.583398870360249,0.13507650011793634
24.89934,8.587875290135516,0.13468995410890547
24.901724,8.591141005097281,0.13432408208157393
24.90412,8.589471353006434,0.13401657499734934
24.906508,8.588872636102229,0.13369348958153265
24.908888,8.587342753638243,0.13337967633658787
24.911288000000003,8.595683605279483,0.13294753279184066
24.913676,8.606817953600055,0.13248770828363848
24.916056,8.618883467480408,0.13201891953288392
24.918456000000003,8.62536198800209,0.1316077049877767
24.920844,8.629419098896774,0.13124181845206886
24.923224,8.633056900910878,0.13089377578467734
24.925624000000003,8.63147979661865,0.1306162792196493
24.928012,8.634186433072976,0.13027867506474117
24.930408,8.635402825460083,0.12997338824910082
24.932812,8.633546181914133,0.1297063343068856
24.9352,8.631549768741325,0.12944498297175647
24.93758,8.62485030594138,0.12926152938354094
24.939976,8.613867102394883,0.12913759113724171
24.94236,8.60544507810224,0.12896481536548085
24.94474,8.600235859369517,0.12874642071010184
24.947148,8.586878468024265,0.12862938098758953
24.949536,8.575011320746231,0.12847844961277669
24.951916,8.568359079774531,0.12825789153011005
24.954312,8.559564968429555,0.12806702054196775
24.9567,8.551702022644355,0.12786697347224088
24.95908,8.54011441462004,0.12770206130378256
24.961476,8.527735410662812,0.12753937262970866
24.963864,8.514565010772662,0.12737872045519585
24.966244,8.50218600681543,0.12721495861212545
24.968648,8.487293045432587,0.12706430302632987
24.971036,8.470817292183904,0.12691826348472862
24.973416,8.453550143002305,0.12677427423133997
24.975816,8.433209957887648,0.1266674523352808
24.978204,8.414360016840213,0.12652726172632506
24.980588,8.396441241352553,0.12637814166461947
24.982984,8.380664336238173,0.12619886176632586
24.985372,8.369031402243486,0.12596627741313435
24.987756,8.362473604928272,0.1256713239515003
24.990152,8.355216959478756,0.12540716412568703
24.99254,8.344607738842464,0.12519274420739307
24.99492,8.339865050818565,0.1249134345356277
24.99732,8.33563421947386,0.12464391280286405
24.999708,8.326188481822825,0.12444152553539282
25.002088,8.320607176037765,0.12419851819869973
25.004484,8.316888201372258,0.12393898518727815
25.006872,8.308466177079618,0.12375591749825879
25.009256,8.297762512786841,0.12360808402375338
25.011652,8.288641640359899,0.12345534475752483
25.01404,8.282174494985433,0.12328340337716226
25.01642,8.279152472596358,0.12309020166621105
25.01882,8.282648609125735,0.12283916643074351
25.021208,8.285725436774527,0.12260554950762298
25.023588,8.291455991475795,0.12235312751706073
25.025984,8.300911208416176,0.1220691484153696
25.028372,8.316093188342089,0.12173153345413361
25.030756,8.328062362708085,0.12143692754930667
25.03316,8.340031537074081,0.12114401740638414
25.035548,8.350510467372859,0.12088429098912876
25.037928,8.362060332858272,0.12061131165600862
25.040324,8.37826602614258,0.12029838008815141
25.042716,8.396985676852502,0.11997704445404271
25.045096,8.420500924988177,0.11961464531936766
25.047492,8.455469699094909,0.11915195683463863
25.04988,8.490298703574782,0.11869995245369232
25.052264,8.522846068054521,0.11828302629289439
25.05466,8.562610439587006,0.11778373943319935
25.057048,8.606239242985465,0.11724961505514028
25.059428,8.65280131269012,0.11669409638760603
25.061824,8.697501051275218,0.11615682540235503
25.064212,8.739267523554123,0.11564931364546394
25.066596,8.777029794340189,0.11518701056060027
25.068992,8.81986720180573,0.11467348527079077
25.07138,8.864566940390828,0.1141507863149149
25.07376,8.90577433416229,0.11368129146008427
25.076156,8.943629152746976,0.11325977378225563
25.078544,8.98772259099639,0.1128035956330801
25.080928,9.03297951223106,0.11236529773054323
25.083328,9.081309469398784,0.1118986735307696
25.085716,9.131222218432349,0.11143381744148767
25.0881,9.181926363398828,0.11097241574974642
25.090492,9.227695141312696,0.11055735832247235
25.09288,9.272113444786202,0.11017263652455658
25.095264,9.307871718967988,0.1098614200146829
25.09766,9.341348353149632,0.10958008709566985
25.100044,9.378829188824112,0.10926582672782051
25.102428,9.415099319685089,0.10897203927699368
25.104824,9.448016875359293,0.10871812623932865
25.107212,9.47371742398075,0.1085336551575325
25.109608,9.498207267788707,0.10836575168236334
25.112004,9.525490608276,0.1081803749993327
25.114392,9.55356534469621,0.10799475078921146
25.116772,9.57563377887717,0.10786138985871119
25.119172,9.59169591081888,0.1077798020218853
25.12156,9.611110617947364,0.107660299404505
25.123944,9.630293007650371,0.10752132956505177
25.126340000000003,9.642585151382594,0.10740940775831838
25.128728,9.653062185823499,0.10727964216057549
25.131108,9.660885493211934,0.10716296514119715
25.133508000000003,9.666474382428474,0.10704366586075338
25.135892,9.666895587166922,0.10694329049662848
25.138272,9.66922634485317,0.10680150835983347
25.140672,9.666668957315053,0.10666845213551575
25.14306,9.664391109030653,0.10652501090359513
25.14544,9.662440021828218,0.10634131753957432
25.147836,9.654250314961056,0.1061865047787943
25.150224,9.64275525473536,0.1060384276264221
25.152608,9.633449286711183,0.10583902930162073
25.155008,9.630848469060561,0.10556630050681869
25.157396,9.632671161783351,0.1052473277169247
25.15978,9.633330371520884,0.10491501457906363
25.162180000000003,9.635899134206216,0.10454380185213849
25.164568,9.645824673571159,0.10410672537610977
25.166952,9.659522097003459,0.10361810587540392
25.169348000000003,9.668843231890587,0.10314724267665862
25.171736,9.673228999725104,0.10271064029852053
25.174116,9.681758738679319,0.10223820668417731
25.176512,9.68921754244689,0.10177641031991522
25.1789,9.696816115841324,0.10131037621719831
25.181284,9.700829796623502,0.10085877009071767
25.18368,9.709639074831431,0.10037697614939589
25.186072,9.714164612292807,0.09993426658100485
25.188452,9.714406409007628,0.09952896945648783
25.190848,9.714927744976169,0.09911332933143122
25.193236,9.714610463183549,0.09872759882271008
25.195616,9.71615551251049,0.09833073371751198
25.198012,9.719562892956983,0.09792357840830924
25.2004,9.722411194896036,0.09753723887089448
25.202784,9.720184360155619,0.09719139102508263
25.20518,9.710088892056394,0.09689913216968925
25.207568,9.69757201433017,0.09663598788662518
25.209948,9.679840230297614,0.09641631439019867
25.212348,9.653029108092753,0.09626393046797412
25.214732,9.626590072940228,0.09612576699230403
25.217116,9.602804764840178,0.09597747258937703
25.219512,9.586888090098936,0.09577628616613175
25.2219,9.568689775357557,0.0955986695569361
25.224284,9.550491460616177,0.09542034087335068
25.22668,9.53136198031502,0.0952459331248172
25.229068,9.516469018932177,0.09506292295076024
25.231448,9.500784661616414,0.09487933701549449
