Time,Force,Position
26.682092,0.0,0.0
26.68448,0.0,0.0
26.686864,0.0,0.0
26.68926,0.0,0.0
26.691648,0.0,0.0
26.694032,0.0,0.0
26.696428,0.0,0.0
26.69882,0.0,0.0
26.701204,0.0,0.0
26.7036,0.0,0.0
26.705988,0.0,0.0
26.708372,0.0,0.0
26.710768,0.0,0.0
26.713156,0.0,0.0
26.71554,0.0,0.0
26.717936,0.0,0.0
26.720324,0.0,0.0
26.722708,0.0033314716045500423,0.0
26.725104,0.0065231735822398745,0.0
26.727496,0.010506271492847816,0.0
26.729876,0.014489369403455757,0.0
26.732272,0.016190827313926428,0.0
26.734659999999995,0.0178922852243971,0.0
26.737044,0.0178922852243971,0.0
26.73944,0.01852280794822924,0.0
26.741832,0.02329730179175529,0.0
26.744212,0.03221576675497525,0.0
26.746611999999995,0.043136332464612064,0.0
26.749,0.054988063734027204,0.0
26.75138,0.07056445724255563,0.0
26.753776,0.08628062037794425,0.0
26.756168,0.0990635172071377,0.0
26.758548,0.10998408291677451,0.0
26.760948,0.12211535343991008,0.0
26.763336,0.1341068543361854,0.0
26.76572,0.14516718967268244,0.0
26.76812,0.15836939538245653,0.0
26.770508,0.16637779836812394,0.0
26.772888,0.16959060392803954,0.0
26.775288,0.17215178318189725,0.0
26.777676,0.17163992650269955,0.0
26.780059999999995,0.17541181057005598,0.0
26.782456,0.1831878961302461,0.0
26.784844,0.19387614441440565,0.0
26.787227999999995,0.20286293478809456,0.0
26.789624,0.20584342292253288,0.0
26.792016,0.20160690400422193,0.0
26.794395999999995,0.19550805396635432,0.0
26.796796,0.18754687280893004,0.0
26.799184,0.17492986385261416,0.0
26.801564,0.16110215008279954,0.0
26.803964,0.1532807385522355,0.0
26.806352,0.15025492444742328,0.0
26.808736,0.14387653515583526,0.0
26.811132,0.13870885067774597,0.0
26.813524,0.1354034973192133,0.0
26.815908,0.13102720877404211,0.0
26.818304,0.12837348172156737,0.0
26.820692,0.13265722246812148,0.0
26.823076,0.13465932321453833,0.0
26.825472,0.1409451647075093,0.0
26.82786,0.1404333080283116,0.0
26.830244,0.13484631466964173,0.0
26.83264,0.12884001243039117,0.0
26.835028,0.12283371019114062,0.0
26.837412,0.11626832944444922,0.0
26.839832,0.11277598463081322,0.0
26.84222,0.10807293500367847,0.0
26.844604,0.10418238489168759,0.0
26.847012,0.10122300033947502,0.0
26.8494,0.099334550973901,0.0
26.851784,0.09437306567527158,0.0
26.854184,0.086478314070447,0.0
26.856572,0.08072543283889948,0.0
26.858956,0.07390161642071343,0.0
26.861356,0.06614663444274904,0.0
26.863748,0.05732071727814612,0.0
26.866132,0.04863456974040342,0.0
26.868528,0.037946321456243874,0.0
26.870919999999995,0.029399943545361393,0.0
26.8733,0.019642860820980167,0.0
26.8757,0.014681375522350755,0.0
26.878087999999995,0.01079082541035987,0.0
26.880476,0.006108879365450875,0.0
26.882871999999995,0.0024978685071804126,0.0
26.885264,0.0013082672759074313,0.0
26.887647999999995,0.00011866604463445036,0.0
26.890044,0.0,0.0
26.89244,0.0,0.0
26.894828,0.0,0.0
26.897227999999995,0.0,0.0
26.899616,0.0,0.0
26.902003999999994,0.0,0.0
26.904404,0.002630727612379749,0.0
26.906792,0.006285168583154874,0.0
26.90918,0.00816982623299042,0.0
26.91158,0.010938427614361135,0.0
26.913972,0.014590972727267029,0.0
26.91636,0.02299189343768157,0.0
26.918759999999995,0.03493048493210603,0.0
26.921148,0.050406747210540406,0.0
26.923548,0.07063138508648346,0.0
26.925947999999995,0.09146042744024127,0.0
26.928339999999995,0.11582714057800897,0.0
26.930744,0.14387129412664684,0.0
26.93314,0.17745521920571147,0.0
26.935528,0.21150377913573065,0.0
26.937924,0.24694813947648264,0.0
26.94032,0.2820657387352711,0.0
26.942712,0.3176479728450141,0.0
26.945104,0.3575592736716851,0.0
26.947508,0.3970040437895324,0.0
26.949891999999995,0.43919508875847146,0.010904119069675316
26.952288,0.48350378171253944,0.021209024692751828
26.954692,0.5295350361593038,0.03136484837059795
26.957087999999995,0.5810135143378778,0.04125416612493298
26.959488,0.6327715317701723,0.0511710564022127
26.96188,0.6857402540159656,0.060990281454275604
26.964275999999995,0.7369864147690625,0.07060437162248338
26.966672,0.7818541862305712,0.0808311730376716
26.969059999999995,0.8255584747068246,0.09084751195260442
26.971456,0.8626048346377696,0.10136767803635824
26.973852,0.899418877143237,0.1119772457368895
26.97624,0.9329275662901718,0.12273042747791002
26.978636,0.9640620676383522,0.13343775944326416
26.981031999999995,0.9860246830156099,0.14490919915484402
26.98342,1.009105455407749,0.15620080956672686
26.985816,1.0345150896282687,0.16694807594866998
26.988212,1.063976147169865,0.1772137898715687
26.9906,1.0968370017264806,0.18700541748991306
26.99298,1.1264397247528062,0.19665373701475108
26.995376,1.159302475167291,0.20602195284231378
26.997764,1.1922124474100186,0.2042267836699031
27.000143999999995,1.2211654399881557,0.2029877788572874
27.00254,1.2484430929018395,0.2017785171610305
27.004928,1.272974470964432,0.20075747925363296
27.007311999999995,1.2962025964149086,0.19974678575611599
27.009708,1.3184070085069894,0.1987194079056991
27.012096,1.3355835057478416,0.19809039865987674
27.014476,1.3576028222426881,0.19665544444633457
27.016876,1.3741749150057254,0.1957442900247183
27.01926,1.3946586614629795,0.1941303207207272
27.021644,1.414770320867896,0.19242694979995867
27.02404,1.4335787276606962,0.1906975083371054
27.026428,1.4508043425876602,0.18909165968884603
27.028812,1.4756662734479544,0.18633704659343908
27.031208,1.5009475131888292,0.1835839518502922
27.033596,1.5192912851306752,0.1817017224872934
27.035992,1.5368436611396032,0.1800451949723068
27.038395999999995,1.5482499652824204,0.17911702265449123
27.040779999999994,1.5572348597982402,0.17852149866982944
27.043164,1.5632864880078645,0.1782440319737269
27.04556,1.5645425187917372,0.17842808284199857
27.047947999999995,1.5648673840158316,0.17869464346221192
27.050328,1.5647729403593453,0.1790749374548423
27.052724,1.5634677918893602,0.17961217506241603
27.055112,1.5670980104719874,0.1796734679806524
27.057492,1.5724507905473106,0.17963110092818774
27.059892,1.5796659017421906,0.17943038428786584
27.062276,1.5876724088699887,0.17921744589787442
27.06466,1.5996831174906208,0.17862559155820731
27.067056,1.6106228909246136,0.17816852323828866
27.069444,1.6243561610379422,0.17752669117965525
27.071824,1.6420936326441042,0.17656342786577547
27.074228,1.6602504131308466,0.17549243754918695
27.076616,1.670398790631922,0.17510029699154028
27.078996,1.6765429666401632,0.1750435408594124
27.081395999999994,1.6880418185815975,0.17447152120435722
27.083784,1.693394598656921,0.17444193115714124
27.086164,1.7041020546654373,0.17390316191513874
27.08856,1.7192330210473679,0.17293687500502392
27.090948,1.7345037570561583,0.17193263450362525
27.093332,1.7537786945577825,0.17058567945709519
27.095728,1.773053632059407,0.16922878783877335
27.098116,1.7907457776951952,0.16793242486505996
27.100496,1.8107195633311206,0.1664194533992461
27.102896,1.8249665859815156,0.16539800942025334
27.105284,1.8341384719524387,0.16479586153341275
27.107664,1.8455919979234992,0.16398706706370159
27.11006,1.8533208616554462,0.1634386512525533
27.112448,1.8618411213203112,0.16287627460691134
27.114832,1.8691506761716774,0.16243684730983807
27.117228,1.871804403224152,0.1622931945787044
27.119616,1.87259579915707,0.16226759565687068
27.121996,1.8741785910229063,0.16221738728939428
27.124392,1.8816279155011328,0.16176691122671794
27.12678,1.8940126070319712,0.16097997773575917
27.129164,1.9021135578162556,0.16053799235875776
27.131564,1.9172917460264294,0.15958425648125882
27.133952,1.9291173590498274,0.1589396309881379
27.136332,1.936519461699811,0.1586644765861589
27.138728,1.9456441258424908,0.15831846527627402
27.141116,1.952347380358173,0.15819472422958836
27.1435,1.9591904045007156,0.1580414590895567
27.145896,1.9676162205090941,0.15783864205376913
27.148284,1.9731087702112777,0.15782331243432662
27.15068,1.9780422414060206,0.1579169724216439
27.15308,1.9892615540937342,0.15755422323950524
27.155464,1.9968487523409515,0.1575204237432272
27.157848,2.0049478072673668,0.15751407162087055
27.160243999999995,2.013046862193782,0.1575139957957236
27.162632,2.0262210537996697,0.1571925467266717
27.165016,2.04270059876409,0.1567465068051776
27.167411999999995,2.0596920004077073,0.15634829833659383
27.1698,2.075332927610966,0.15607918572679833
27.172184,2.089902919627587,0.1558969527198645
27.174579999999995,2.1012601060842915,0.15594368324715385
27.176972,2.11648172440697,0.15577140578200105
27.179355999999995,2.127559371609954,0.15587321788817662
27.181752,2.13770585325316,0.15601449789661198
27.18414,2.1519963060160596,0.15589311393675065
27.186523999999995,2.1682888595253766,0.1556770169952504
27.18892,2.1867232834079706,0.15532291834171663
27.191308,2.2067404991564006,0.15493664017798697
27.193691999999995,2.2309016860245245,0.15433890037031642
27.196088,2.2606498662513186,0.1535209390694894
27.198476,2.2926796864782495,0.15252808241707955
27.200859999999995,2.3229397233842413,0.15177394368211578
27.203256,2.358554436223426,0.15071880879474653
27.205644,2.3961712498090266,0.1495597977624619
27.208024,2.4349987682081267,0.148368282206578
27.21042,2.4676802147411157,0.1475241342705834
27.212808,2.5005014309009646,0.14667300468041544
27.215192,2.5311807766875365,0.14593441189153722
27.217588,2.5647933887803043,0.1450716244506496
27.219976,2.602130663112185,0.14410760194723224
27.222356,2.6421216644965404,0.1430667595182243
27.224756,2.682904061813814,0.1420452508847632
27.227139999999995,2.723406919877367,0.14104326669243805
27.229524,2.768845144993532,0.13984557437993303
27.231924,2.8132124349230585,0.1387464702207963
27.234312,2.8534357537328905,0.13786247260955053
27.236692,2.8923085981023644,0.13707599290510109
27.239088,2.9351856439646715,0.13617684647646602
27.241475999999995,2.972568244266926,0.13556348261732826
27.243856,3.00352523344935,0.1352420154018988
27.246256,3.034202683378053,0.13495690379550893
27.248643999999995,3.06357688069464,0.1346634513487992
27.251024,3.0885275676378128,0.13457859036884645
27.253419999999995,3.1146889593944844,0.13444132296444708
27.255808,3.1382891718972985,0.1344491760540598
27.258188,3.162820549959891,0.13442014826490672
27.260587999999995,3.1882830935822613,0.1343701413202798
27.262976,3.2191003131378237,0.1341130332201448
27.26536,3.2511282375068853,0.13381654638131335
27.267755999999995,3.2802228955697523,0.13362659687780218
27.270144,3.30987663214006,0.13338590945985088
27.272528,3.338599203150589,0.13317593173668757
27.274923999999995,3.3676013134148386,0.1329259962434978
27.277312,3.3935303877460328,0.13278588038767888
27.279692,3.4193196924503666,0.13266572200710844
27.282091999999995,3.4460401627144797,0.13251778621843532
27.28448,3.4722487762993937,0.13234260349918686
27.28686,3.4904489868986412,0.13241107251828518
27.289256,3.5110706071248856,0.13237174568608892
27.291643999999994,3.532111536231711,0.13227526978844328
27.294028,3.5565050405253125,0.1320565758096749
27.296424,3.5776857392589987,0.13194671755273527
27.298811999999995,3.5980750420597665,0.1318364284483298
27.301196,3.616602013740977,0.13177843702944775
27.303592,3.6327547976234333,0.13173900883675932
27.305979999999995,3.651189221506027,0.13160809237652354
27.30836,3.6680408535227844,0.13149723123595636
27.31076,3.677023852180735,0.1316130510279949
27.313152,3.68321335415935,0.13179583729604374
27.315532,3.6858179635257127,0.1320515774902712
27.317931999999995,3.6839990625186605,0.13246705241677673
27.320315999999995,3.6813887655786903,0.13288699711282967
27.3227,3.681991274198636,0.13319603465193863
27.325096,3.6816626172588034,0.1335262412955839
27.327483999999995,3.6794716291994134,0.13389830952356763
27.32988,3.6776999500206053,0.13422615192096732
27.332276,3.6800722419614904,0.13442412245231533
27.334664,3.684865943529373,0.13452328747969797
27.337048,3.6860747524850033,0.1346935912099908
27.339444,3.6907759062542684,0.1347287217498882
27.341832,3.693335189650257,0.13483412287940133
27.344211999999995,3.698176113046382,0.13485543383608092
27.346612,3.7063696116292837,0.1347574915193523
27.349,3.713352405398686,0.13470856970998735
27.351379999999995,3.7241996310340624,0.13456115391004642
27.35378,3.7330447559230215,0.1344709369333609
27.356168,3.738956614505786,0.13445669788022233
27.358547999999995,3.7488726745813836,0.1343277953219301
27.360948,3.7543652242835677,0.13435315202653392
27.363336,3.7615803354784476,0.13434755310350768
27.365715999999995,3.770425460367407,0.13424613454158946
27.368116,3.7774082541368097,0.13418882407655908
27.370504,3.782249177532936,0.13420626388382295
27.372884,3.7885803449962814,0.13414515011558834
27.375284,3.792909411713209,0.13414063775019025
27.377672,3.794305212123941,0.13421749687044784
27.380052,3.789554940668564,0.13448495395021776
27.382452,3.7858756043998247,0.13471479262977912
27.38484,3.783918829623782,0.13491611822781277
27.387224,3.782753450780657,0.13510638515800016
27.389624,3.775861308952002,0.13544454726314398
27.392008,3.770971267869764,0.13572211312950397
27.394392,3.767152161974164,0.1359590310349294
27.396788,3.7645437608920638,0.1361467443207559
27.399176,3.7579311583171298,0.13644733729765793
27.40156,3.752529260555694,0.1366980020779023
27.40396,3.7502003987273134,0.13685822923694654
27.406348,3.745729666525656,0.13708911882966812
27.408732,3.7459619839511333,0.1371377406125454
27.411128,3.746473840630331,0.13715825685840172
27.413519999999995,3.747777093242447,0.13717125119138632
27.4159,3.749080345854563,0.13718407234502886
27.4183,3.74973197216062,0.13719050459384335
27.420687999999995,3.750755685519016,0.1372313873776626
27.423068,3.7540610388775484,0.13718663185130964
27.425463999999995,3.761370593728915,0.13702676276870018
27.427852,3.7726843500731144,0.13675060400118064
27.430236,3.7806455312305385,0.13659485402729385
27.432631999999995,3.79046904350752,0.13639625506351324
27.43502,3.796148584664807,0.13632829914013253
27.437404,3.8066237232478457,0.13613302201791705
27.439812,3.814537682577027,0.13605335659948645
27.4422,3.8180281315327935,0.13613249769057836
27.444583999999995,3.8213788108617,0.13622551495030635
27.44698,3.831527188362775,0.13613998003807268
27.449368,3.8400455521697707,0.13614483970608054
27.451748,3.8487962334022434,0.13619763001587318
27.454144,3.8623425120604677,0.1361311022917747
27.456532,3.8770522737039483,0.13609360929896408
27.458916,3.8962780935194608,0.13597122507186854
27.461312,3.9149448348275317,0.13590191822021677
27.463704,3.9391985694942733,0.13571514780607236
27.466084,3.9646157871462697,0.13555478943568722
27.468484,3.990964170358045,0.13537922156297813
27.470868,4.020897446182073,0.1351444115206338
27.473252,4.0482695427522435,0.13501348061095414
27.475652,4.075082560814972,0.13493618026006912
27.47804,4.111626543356066,0.13463882823791173
27.48042,4.147890986643439,0.13437084225393844
27.482816,4.188671488102843,0.13402286323636878
27.485204,4.232897112547641,0.1336359374604958
27.487588,4.2808473992315506,0.13317531075338399
27.489984,4.331311643341076,0.13267444960104038
27.492372,4.3830791400627165,0.1321889492610802
27.494756,4.430423126410943,0.13184764908739083
27.497152,4.4856357461179766,0.13134277001575653
27.49954,4.54084836582501,0.13083787609249672
27.501924,4.594430971837965,0.13041991386671453
27.50432,4.647873808224058,0.13002027623238122
27.506708,4.697824299796515,0.12973723221355404
27.509087999999995,4.754432719914282,0.12933975407603585
27.511488,4.811552996711247,0.1289814241407801
27.513876,4.872397935747324,0.12856963084241968
27.51626,4.935617062582155,0.12815774208582675
27.518656,5.001070607588881,0.1277633904431265
27.521048,5.078908844126445,0.12718568811548012
27.523428,5.1594008077164855,0.12658211500514333
27.525824,5.235329491306249,0.12612178647902872
27.528212,5.315634463441184,0.12562546615803563
27.530596,5.3972426881882365,0.12515359681249613
27.532992,5.478291834427847,0.12473166704896366
27.535384,5.564136578093209,0.1242599164405821
27.537764,5.656639250303881,0.12370743685125184
27.540164,5.7550084551269425,0.12308509713315588
27.542552,5.862968854801507,0.12234760114430472
27.544936,5.967436909662437,0.12171851135747709
27.547332,6.077631727508896,0.12103016026493511
27.54972,6.19211028610191,0.12027996049361958
27.5521,6.311244672493815,0.1194952024995321
27.554496,6.4363853611249695,0.11863629495661472
27.556884,6.556311143449793,0.11788263001523822
27.559268,6.673955285774479,0.11718607303324774
27.561664,6.790388723285666,0.11653091675601121
27.564052,6.904028664117519,0.11591523084845957
27.566436,7.014875108270036,0.11534266013786808
27.568836,7.113988487197771,0.11493589614622474
27.571224,7.215103966871926,0.11451548962704139
27.573604,7.317290381732717,0.11408313410942696
27.576,7.421106810287588,0.11362840763746625
27.578388,7.5238995254840635,0.11315877445540122
27.580772,7.626459923255063,0.1126698463369066
27.583168,7.722641931734473,0.11224750648746892
27.585556,7.814727190922432,0.11185588514361637
27.587936,7.90243616156522,0.11150589846644927
27.590336,7.978971145490669,0.11125698896835391
27.592724,8.053271711244223,0.11100742449391036
27.595104,8.123987384385524,0.11079022380816542
27.597504,8.191909560847492,0.11060245318680492
27.599892,8.255595218391147,0.11043832498354766
27.602272,8.313973421829854,0.11030948122750997
27.604672,8.375471883029858,0.11011587323839658
27.60706,8.434224069378772,0.10990782652390294
27.60944,8.490229980876594,0.1096878187099263
27.611836,8.546003574948937,0.10944653364715354
27.614224,8.601824390849524,0.10917479415304901
27.616608,8.658623594138133,0.10886153475858773
27.619004,8.708532551455955,0.10858162643291247
27.621392,8.75248242836277,0.10832515865324906
27.623776,8.784699240044803,0.10817243985407463
27.626172,8.814262324674363,0.10803549395409386
27.628564,8.844384487811363,0.10787886335338473
27.630944,8.87092175833611,0.10774177734730843
27.633352,8.89080110031555,0.10765566166285777
27.635744,8.90416228337654,0.10761463222285711
27.638128,8.919805106437666,0.10754344224316559
27.640528,8.932002806513403,0.10748664815930085
27.642916,8.939032822111047,0.10745190385761466
27.645299999999995,8.942897253977023,0.10742068227264437
27.6477,8.94024352692455,0.10743435176685578
27.650088,8.93414467688668,0.10746250092378974
27.652467999999995,8.920316963116868,0.10755275561851495
27.654868,8.905837623040993,0.10763817696562614
27.657256,8.886702455166228,0.10775608517779472
27.659635999999995,8.8602577324401,0.10792106855988567
27.662036,8.826363685235743,0.10813788128297583
27.664428,8.787022414299576,0.10838935333120642
27.666812,8.74251345888532,0.10866703464627278
27.669212,8.697772186045587,0.10892468626997998
27.671604,8.65321790466096,0.10914809350595958
27.673984,8.603495938798238,0.10939639472655421
27.67638,8.546604187711013,0.10968523697243666
27.678767999999994,8.487338248825035,0.10998215734309998
27.681152,8.428631388446494,0.11025919859515877
27.683551999999995,8.365408469895923,0.11057568606244066
27.685944,8.294364139814789,0.1109378144928043
27.688327999999995,8.22108539156176,0.11130246308415079
27.690724,8.1432905851367,0.11170668645621047
27.693112,8.054973418300357,0.11222132825901789
27.695495999999995,7.966563703665399,0.11271538799126711
27.697892,7.875500261977967,0.11323510154729749
27.70028,7.780060531745362,0.11379876338135064
27.702663999999995,7.680104743340725,0.11440521334724452
27.705064,7.581499429376448,0.11499090291104638
27.707452,7.487038086531864,0.11553145939735517
27.709836,7.393228369993339,0.1160911018103638
27.712232,7.299139114201094,0.11668118506766748
27.71462,7.211568017327297,0.11721507747272782
27.717004,7.12185505008022,0.11779013929247747
27.719404,7.03465604025876,0.11835896874725774
27.721792,6.9493193615568565,0.11891813809681638
27.724176,6.85890754617548,0.1195678226230714
27.726576,6.768495730794106,0.12023472625886554
27.728964,6.675942045039451,0.12095051069389465
27.731344,6.592607467083965,0.12153765694487269
27.73374,6.513509408046792,0.12211371264453065
27.736128,6.4359941408754535,0.12269452349638368
27.738512,6.366207737436061,0.12318071860683523
27.740908,6.310156499967865,0.1234873370093726
27.7433,6.256479450298425,0.12378998652141912
