Time,Force,Position
30.31944,0.037511465581998374,0.0
30.321828,0.03471796890266341,0.0
30.324212,0.03178470259646824,0.0
30.326608,0.02542538453386094,0.0
30.328996,0.020137001657892166,0.0
30.33138,0.014708849155063177,0.0
30.333776,0.009280696652234195,0.0
30.336164,0.0027816089627666816,0.0
30.338544,0.004437877398239231,0.0
30.34094,0.0058146065799913604,0.0
30.343328,0.006120400575104958,0.0
30.345708,0.006120400575104959,0.0
30.348112,0.006120400575104959,0.0
30.3505,0.006120400575104959,0.0
30.35288,0.006120400575104959,0.0
30.355276,0.006120400575104959,0.0
30.357664,0.006120400575104959,0.0
30.360043999999995,0.006120400575104959,0.0
30.362444,0.006120400575104959,0.0
30.364832,0.006120400575104959,0.0
30.367211999999995,0.004975988818830099,0.0
30.369608,0.0035520378088348178,0.0
30.371992,0.003338791612338278,0.0
30.374392,0.003338791612338278,0.0
30.376788,0.003338791612338278,0.0
30.379176,0.003338791612338278,0.0
30.381556,0.003338791612338278,0.0
30.383952,0.003338791612338278,0.0
30.38634,0.0016825231768657282,0.0
30.38872,0.0003057939951135987,0.0
30.39112,0.0,0.0
30.393508,0.0,0.0
30.395888,0.002215346942913391,0.0
30.398288,0.004430693885826781,0.0
30.400676,0.011721177508212405,0.0
30.403056,0.02301586262343173,0.0
30.40546,0.033379382178872735,0.0
30.407848,0.042811736174535424,0.0
30.410228,0.04917105423714272,0.0
30.412624,0.05525083304602961,0.0
30.415012,0.05918874148163943,0.0
30.417396,0.06512875066366611,0.0
30.419792,0.07092899021883256,0.0
30.42218,0.07780016496063756,0.0
30.42456,0.08453157007558233,0.0
30.42696,0.09126297519052712,0.0
30.429348,0.09771484105175149,0.0
30.431728,0.10574949877881208,0.0
30.434124,0.11150251650573538,0.0
30.436512,0.11818669979243701,0.0
30.438896,0.1264536749449749,0.0
30.441292,0.13751414677684767,0.0
30.44368,0.1468711283450048,0.0
30.44606,0.16074416808519332,0.0
30.448456,0.1719162589446639,0.0
30.450844,0.17638319943058292,0.0
30.453228,0.1840157236481743,0.0
30.455624,0.19667616271699484,0.0
30.458012,0.2106398543979312,0.0
30.460396,0.22218213645187002,0.0
30.462792,0.23889210298389815,0.0
30.46518,0.25262158138148794,0.0
30.467564,0.266583377204555,0.0
30.469964,0.27835608082610186,0.0
30.472352,0.2908729585523237,0.0
30.474732,0.3047856366892784,0.0
30.477128,0.31930271930404786,0.0
30.479516,0.33377258009057414,0.0
30.4819,0.35257150759402844,0.0
30.484296,0.37020505625435796,0.0
30.486684,0.3881634701387817,0.0
30.48908,0.40174369962016515,0.0
30.491476,0.41536925507192235,0.0
30.493863999999995,0.42396499981458136,0.0
30.496248,0.4304642001543372,0.0
30.498644,0.44529666870385476,0.0
30.501031999999995,0.4592432976639679,0.0
30.503416,0.4715126911017585,0.0
30.505812,0.4926272094285085,0.014999999999999996
30.508199999999995,0.5236577878308565,0.029842355281174175
30.51058,0.5568755625768556,0.04408747991969467
30.512976,0.5962847351593392,0.057840771349144254
30.515364,0.6434680974441438,0.07077873045064056
30.517748,0.6967030879385727,0.08350510439891284
30.520144,0.75440691477679,0.09600208739112467
30.522532,0.8131344549734028,0.10860323316937799
30.524916,0.8770296796481045,0.12088119553102396
30.527311999999995,0.9447421143605368,0.13291278733608303
30.529703999999995,1.0153878153791642,0.14467652549539434
30.532084,1.089246321957707,0.15640593754054302
30.534479999999995,1.1640359940960285,0.1681361450662939
30.536868,1.2438082551152048,0.17973883173328625
30.539252,1.3262814650150991,0.19125281196506055
30.541647999999995,1.4115953934225716,0.20275975878730862
30.544032,1.5001693492182027,0.21412689728977283
30.546416,1.582504685349106,0.22574127549884768
30.54882,1.6654463218156934,0.2373055726573703
30.551207999999995,1.746992157871548,0.24889471424940238
30.553588,1.8247680057179154,0.24528045445409222
30.555988,1.89556105979488,0.24189191551950665
30.558376,1.9635152912221356,0.23897445006493917
30.56076,2.0284909303728225,0.2364538838922915
30.563156,2.0831784223955734,0.23499174126255873
30.565544,2.1326529039698623,0.23379577932584167
30.567924,2.1787767062152437,0.23271799913193839
30.570324,2.22620565693061,0.23127106723216662
30.572712,2.2700043890633497,0.23002057766195064
30.575095999999995,2.3083105714939056,0.2290417460099368
30.577492,2.3422876872075333,0.22831875422345504
30.57988,2.3771506425105655,0.22736367840496163
30.582263999999995,2.412247811096944,0.2261886615653095
30.58466,2.4475319711384262,0.2249464687065074
30.587048,2.482351496328954,0.22363688035505352
30.589431999999995,2.5208503577882215,0.22197728846134435
30.591828,2.5548803829037,0.22050451129591334
30.594216,2.589516708354863,0.21878449442387166
30.596596,2.624851881940326,0.21699573723477922
30.598996,2.6586042636599534,0.2152643224494702
30.60138,2.6887717527673285,0.21377763316683746
30.603764,2.7204294859419225,0.2121508835670158
30.606164,2.7512958231835976,0.2106000519677639
30.608552,2.7808589078131574,0.20909942717309526
30.610932,2.8156368987490494,0.20722472509951204
30.613328,2.853487925617997,0.20516903814422036
30.61572,2.890407786927166,0.20320233123960108
30.6181,2.923323446743501,0.20153855400758589
30.6205,2.95409723618656,0.20003959165791804
30.622888,2.985802191189397,0.19849287935861476
30.625268,3.0185780813788723,0.19689519817503154
30.627668,3.0482809356352925,0.19554222705085372
30.630056,3.0755623802647145,0.19440540981366355
30.632439999999995,3.0993987019087443,0.1934447910499072
30.634836,3.120581296500299,0.1926218074031712
30.637224,3.1357575888526035,0.19215586070821672
30.639608,3.153867147511103,0.19154618066270934
30.642004,3.173839037289159,0.19085994953685217
30.644392,3.1900862648281016,0.19034862927725812
30.646776,3.2071721101282065,0.18971909664109085
30.649172,3.2265395954284477,0.18895509221427603
30.65156,3.247117785542188,0.18813606194819005
30.653944,3.2673238886035905,0.1872973400227445
30.656344,3.287390222038132,0.18648531305373514
30.658732,3.308527490659314,0.18565080507319892
30.661112,3.3267314929742997,0.1849592246080535
30.663512,3.3450752649161464,0.18425653476481652
30.6659,3.362627640925074,0.18356580696239697
30.66828,3.3832530528670572,0.18273768956162922
30.670676,3.406951500742096,0.18178850540672173
30.673064,3.430929487870855,0.18082499229093138
30.675444,3.457049345372891,0.1797779036910372
30.677844,3.4835885117555074,0.17868934876148868
30.680232,3.5097083692575435,0.17764958921361745
30.682612,3.5364798530656376,0.17661425316314122
30.685012,3.565765294299346,0.17552260808141484
30.687396,3.594631426652474,0.17450076716445273
30.68978,3.62442872456538,0.17347245466519345
30.692176,3.655948583970983,0.1723896699874349
30.694564,3.692915667108395,0.1711702959559215
30.696948,3.7285322758054487,0.1700461816750482
30.699344,3.760004913382808,0.16910264903175926
30.701732,3.790778702825866,0.16824491252569607
30.704116,3.8226234274555635,0.1673537196439017
30.706512,3.846459749099593,0.16676230918511406
30.7089,3.87229817149004,0.16610142511379417
30.711284,3.8970656586938475,0.1654878818091527
30.71368,3.9286308440698243,0.1646572919586401
30.716068,3.9581939286993837,0.16391473567203124
30.718452,3.986686078142305,0.1632425925343506
30.720848,4.014898688331506,0.16261317054661964
30.723236,4.037756622587514,0.16218999359222377
30.72562,4.062848975015416,0.16175442941430523
30.728016,4.089943428189736,0.16125431798442894
30.730404,4.116758342110335,0.16078360431755018
30.732788,4.139708824164959,0.160431858468652
30.735188,4.1618679102866665,0.16009623511078477
30.737576,4.183747457154654,0.15979887309135357
30.73996,4.207629104769057,0.15944350786603648
30.742356,4.22536468051735,0.1592987241075271
30.744748,4.243100256265643,0.15915419647642354
30.747128,4.263489559066411,0.15894822708778397
30.749528,4.284018631494038,0.15872875445147117
30.751916,4.303197229481307,0.15857561388365962
30.7543,4.329033756013884,0.15823354342097437
30.756696,4.353519808106102,0.15795911712143423
30.759084,4.380380047997075,0.15765328795604114
30.761468,4.401373755275657,0.15752679935138955
30.763867999999995,4.42236746255424,0.15740177185246476
30.766256,4.438286033153349,0.15743102033486328
30.76864,4.454064834125599,0.1574746662204533
30.771035999999995,4.477060642150598,0.157296348711637
30.773428,4.495819931257286,0.157196284012495
30.775811999999995,4.515789925177473,0.15705496956960688
30.778208,4.538321098351517,0.15681306689141225
30.7806,4.561411350033002,0.1565172895455424
30.782984,4.585432767274266,0.15620327666317996
30.785396,4.606800457463056,0.1559455504804554
30.787788,4.626445586159148,0.15572405848570808
30.790172,4.648232585228517,0.15543613091116776
30.792576,4.669507727618688,0.15513446335187006
30.794964,4.690271013329664,0.1548209733103689
30.797343999999995,4.710382672734579,0.1545051212007405
30.79974,4.731053410646936,0.154143632322786
30.802128,4.751491831133817,0.1537528650321216
30.804508,4.773280726061055,0.15330974030664904
30.806904,4.794185677256759,0.1528326235043891
30.809292,4.816952959572019,0.15231760915746162
30.811676,4.840791177073918,0.15177633723494863
30.814072,4.868913135322371,0.15110773391627252
30.81646,4.89345020095857,0.15050549527790513
30.818844,4.911980964355521,0.1500637864852434
30.821244,4.932374058872027,0.14958259823056042
30.823632,4.950625283015255,0.14916967071065337
30.826012,4.9675260327181245,0.14881700554103794
30.828412,4.986800970219749,0.14844146037741027
30.830796,5.007286612534872,0.14803245319188624
30.83318,5.031916225969689,0.14752394362188095
30.83558,5.0576167745911444,0.1469925859970233
30.837964,5.083596862466322,0.14644733718518285
30.840348,5.113161842953751,0.14585023889476473
30.842744,5.144728924187596,0.1452168377132324
30.845132,5.17829810616786,0.14454356066194163
30.847516,5.2148005544543174,0.14382302446242873
30.849916,5.2487418234869185,0.14319326086623407
30.852304,5.28175192695974,0.14258659657025732
30.854684,5.31406318229826,0.14203563529528937
30.857084,5.346653976890501,0.1414722881774054
30.859472,5.378313605922964,0.14093080993020918
30.861852,5.410624861261484,0.14040258730639757
30.864252,5.449873584399033,0.13974169813296553
30.86664,5.4923351130965,0.13900570427565542
30.86902,5.5317236058609085,0.1383323284762908
30.87142,5.572183033811958,0.1376394537790989
30.873808,5.611711296203227,0.1369671898183556
30.876188,5.652869572288577,0.13624336728397943
30.878588,5.6901634165079535,0.13559497223299516
30.880976,5.72159072811494,0.13506065698939007
30.883356,5.750084773415731,0.1345825161916339
30.885756,5.774574617223687,0.13418230435699732
30.888144,5.797341899538947,0.13380974501284704
30.890524,5.815173814801594,0.13352874994664385
30.892924,5.831795025250744,0.13328319681666914
30.895312,5.8452034301399785,0.1331112859096307
30.897696,5.864897676522183,0.1328159440397099
30.900092,5.8859423973447464,0.1324839942166658
30.90248,5.906475261488112,0.13213913241518327
30.904864,5.925006024885063,0.13183235719281947
30.90726,5.945678658655289,0.13148580501160723
30.909648,5.961975003880346,0.13118808587240818
30.912028,5.971473650933232,0.13100156160570137
30.914424,5.978970197239701,0.13085060610911106
30.916812,5.991961189106224,0.13058418682968398
30.919196,6.002298453920273,0.13034810993874338
30.921596,6.011192696495344,0.13011149362950053
30.923984,6.017013903137361,0.1299320165440954
30.926368,6.024976980152653,0.12971060606356033
30.928764,6.034522849033784,0.12948003718753956
30.931156,6.048864315340665,0.1291804280589365
30.933536,6.066278817580602,0.12882526508219536
30.935932,6.079828887954565,0.12852902053172705
30.938324,6.0995250301946395,0.12812606414106917
30.940704,6.119780250942155,0.12769162942170503
30.943104,6.136450579077416,0.12729557655201787
30.945492,6.144181338667233,0.12704702142044355
30.947872,6.147628357510495,0.1268815212216677
30.950272,6.153217246727035,0.12667601103110693
30.95266,6.159877071130212,0.1264506178937967
30.95504,6.161321989227057,0.12631911561054074
30.957436,6.165420634376377,0.1261600284300457
30.959824,6.172312776205032,0.125964643551631
30.962204,6.180415622847186,0.12574115201973474
30.964604,6.189821722101455,0.12553225098236215
30.966992,6.199739678034922,0.12533602968643284
30.969376,6.212962987326922,0.12511959694963942
30.971772,6.22669815329812,0.12491681855220535
30.97416,6.242016111135153,0.12471037986409135
30.976544,6.259615708972324,0.12445762069516138
30.97894,6.270138069383606,0.12431694136855476
30.981328,6.283453926474222,0.12414519995181718
30.983712,6.299283740990455,0.12395525527918605
30.986108,6.308827714013715,0.1238737227554092
30.988496,6.316601903716035,0.12385198658223176
30.99088,6.328892151590387,0.12378254357892161
30.993292,6.344907061703853,0.12366729177490969
30.99568,6.364367094802712,0.12352232480750355
30.998059999999995,6.380195013461074,0.12346043585522588
31.000476,6.394532688052217,0.12344220979490732
31.00286,6.413805729695972,0.12335153233654686
31.00524,6.432659462459147,0.12328531204197454
31.007656,6.4521648215283784,0.12322486241495292
31.010044,6.47097133246331,0.12320521681882696
31.01244,6.480838274852795,0.1233169874894901
31.014835999999995,6.4937782531753365,0.1233795086773502
31.01722,6.502714030005043,0.12350174339446494
31.019604,6.514722842767806,0.12357518181101855
31.022,6.52431024590357,0.12370164880342568
31.024388,6.532547174598976,0.12386223508365152
31.026768,6.545719470346995,0.12395280271649718
31.029164,6.555678960535098,0.12409914470803896
31.031552,6.568431947402535,0.12421315892571529
31.033932,6.586632158001784,0.12427081882625994
31.036336,6.608696800467004,0.12427840830272767
31.038723999999995,6.63327540035784,0.1242714076771214
31.041108,6.662230288793846,0.12422982919401329
31.043504,6.695329148349546,0.12412836506989777
31.045891999999995,6.737088037196972,0.12392516498042849
31.048272,6.783642523470149,0.12366689205472853
31.050676,6.829917470489606,0.12342817555598991
31.053064,6.877263352695701,0.12317261356973414
31.055444,6.92847366676777,0.12287760167825323
31.057848,6.982617247146035,0.12254919344955566
31.060236,7.045420856816024,0.12211708869563423
31.062616,7.107805157605434,0.12171270757533209
31.065012,7.176987156567011,0.12123160554277684
31.0674,7.243747745901592,0.12080357932010327
31.06978,7.31251043598259,0.12035029133495173
31.072176,7.384718249048978,0.11987799582691144
31.074568,7.461581889914259,0.11937184041197846
31.076944,7.537095056339182,0.11889158499961382
31.079344,7.6128877620178255,0.11840814895583496
31.081731999999995,7.688960006950188,0.11791998629100597
31.084112,7.763961316695913,0.11745385121022124
31.086516,7.836448669016024,0.11700734542394811
31.088904,7.902417862417686,0.11662350728958511
31.091284,7.963311919139876,0.11630790131866933
31.093684,8.01554594657034,0.11608495806406711
31.096067999999995,8.062192980642134,0.11591284005834246
31.098448,8.105255122101678,0.11576731386769995
31.100848,8.14859680281494,0.115610725556716
31.103232,8.183418223863335,0.11553426863027434
31.105616,8.2137235867397,0.1154922725392283
31.108016,8.240583826630672,0.115471191130576
31.110404,8.267071979469307,0.11543403224974452
31.112784,8.289183843762771,0.11542540110553759
31.115184,8.311063390630759,0.11539382950359164
31.117568,8.331639684886628,0.1153537021425209
31.119952,8.352402970597604,0.11527470512483133
31.122356,8.363854600710793,0.11527121790522427
31.124744,8.380288819704843,0.11518439191788236
31.127123999999995,8.391927441273138,0.11514100627411379
31.129524,8.396908134296124,0.11515511975362133
31.131912,8.396860912467883,0.11518959427417018
31.134291999999995,8.394299733214027,0.11523421106969149
31.136688,8.395370668400664,0.11522088661109943
31.139076,8.394067415788548,0.11521176867971006
31.141456,8.392112536870375,0.1151981451370069
31.143851999999995,8.391368362765698,0.11516498923644727
31.146244,8.391555354220802,0.11512425698444916
31.148624,8.390950949742987,0.1150851525307444
31.151019999999995,8.39355935082509,0.11500518908223335
31.153412,8.395376355974271,0.11492639715432011
31.155792,8.395470799630758,0.1148567663082717
31.158188,8.390629876234632,0.11483725758175012
31.160576,8.38271591690545,0.11485281564011345
31.162956,8.371868691270075,0.11489740993839137
31.165356,8.358227968955365,0.1149649126635716
31.167739999999995,8.335787447722069,0.11511895687197404
31.170124,8.315488796862049,0.11524689143415079
31.17252,8.286902203762642,0.11547270269870429
31.174904,8.257663984357174,0.11569554493521647
31.177299999999995,8.23419974976548,0.11583009474599074
31.1797,8.21473971666662,0.11592141616325652
31.182084,8.195279683567762,0.11601298906651068
31.184467999999995,8.17088428341629,0.116155144497994
31.186864,8.149050062518677,0.11625076145476751
31.189252,8.1307081864347,0.11629218696056172
31.191635999999995,8.111854453671526,0.11632257968405504
31.194032,8.094490964975572,0.11632017600946887
31.19642,8.076196310719837,0.11632497746765275
31.1988,8.059252130904463,0.11630297185901659
31.201204,8.049524958141836,0.11619722769983726
31.203592,8.038866619819434,0.11609878452429533
31.205972,8.031560856683805,0.11595304287771381
31.208368,8.02467440242876,0.11578839581863846
31.210756,8.01899865298721,0.11560333266751438
31.213136,8.01453360835916,0.11539769816502497
31.215536,8.011651355596946,0.1151874377645373
31.217924,8.009188411715314,0.11495799862182407
31.220304,8.010217812647317,0.11467217231765348
31.2227,8.012457918392819,0.11436498582443609
31.225088,8.009343348205128,0.11412879488603017
31.227472,8.005297612457658,0.1139007278005322
31.229868,8.00153141596391,0.11365961610160422
31.232256,7.99976732021658,0.11339556408445194
31.234636,7.998515081148446,0.1131432294182808
31.237036,7.995400510960755,0.11290652369740573
31.239424,7.995079437452399,0.11264734600427743
31.241804,7.989962766518292,0.11243185318881052
31.2442,7.98233213815857,0.11222602244983369
31.246592,7.970417769052293,0.11207555736359875
31.248971999999995,7.952636867333627,0.11198229738790552
31.251368,7.939139706361513,0.11183351863439644
31.253756,7.92671348057604,0.11167064099063848
31.256136,7.919362391470037,0.1114523200436032
31.258536,7.9121510719908965,0.11122732083627306
31.260924,7.9027978821384774,0.1110285585450061
31.263307999999995,7.897868202659473,0.11076887935182891
31.265704,7.897594350979361,0.11047401279313707
31.268092,7.8993226000456644,0.11015901165584291
31.270475999999995,7.901982014671747,0.10983692468180532
31.272872,7.906503760417386,0.10949905840240502
31.27526,7.910885736536165,0.10916786664538246
31.27764,7.914196777468304,0.10884920176394987
31.28004,7.918858292840803,0.1085049908841513
31.282428,7.921797246720606,0.10816915573321269
31.284824,7.926179222839386,0.10783828844509769
31.28722,7.926836536719053,0.10753577489763971
31.289608,7.936293649517303,0.10715366440175603
31.291992,7.948404489368031,0.10675615898619202
31.294391999999995,7.9637281347786715,0.10631810343497411
31.29678,7.977841075375814,0.10589823813321722
31.299164,7.990743311159458,0.10550082302746837
31.301559999999995,7.999641345450267,0.10514278789998692
31.303944,8.005606113434883,0.10481353244123198
31.306328,8.012781586232995,0.10446583408373136
31.308724,8.023169864591026,0.10407907130371906
31.311112,8.032766747016137,0.10369460764291177
31.313496,8.036776636082578,0.1033509272322549
31.315892,8.039855359589243,0.10301474823062662
31.31828,8.044005018282544,0.10266725511805289
31.32066,8.053649122535898,0.10225503887657722
31.323056,8.060639499736777,0.10185445229013465
31.325444,8.07377594880377,0.10139545533408104
31.327824,8.088634959363457,0.1009331940259765
31.330224,8.106427236229338,0.10044915433431947
31.332612,8.121845325296464,0.09996553192637643
31.334992,8.141407385483287,0.09944260914026427
31.337388,8.154031977871078,0.09898128919087115
31.33978,8.16800704469923,0.09849860293804862
31.34216,8.186265852273937,0.09797491771359063
31.34456,8.20666653022192,0.09742797650566665
31.346948,8.225204877050347,0.09689348286639918
31.349328,8.2506806916778,0.09630576004529215
31.351732,8.274806031864898,0.09574129014913499
31.35412,8.302656034291108,0.09516127611092975
31.3565,8.332508137463734,0.09456932253171041
