Time,Force,Position
27.941856,0.06542516358815349,0.0
27.944236,0.07071018430458584,0.0
27.946632,0.07657671691697616,0.0
27.94902,0.0808604576635303,0.0
27.951404,0.08521431282018432,0.0
27.9538,0.08849723279019982,0.0
27.956188,0.09178015276021531,0.0
27.958572,0.08777595126738162,0.0
27.960968,0.08048882980453241,0.0
27.963356,0.0763448586848385,0.0
27.96574,0.07427264352832175,0.0
27.968136,0.07078029871468575,0.0
27.970524,0.06735760911781004,0.0
27.972904000000003,0.06286398433429581,0.0
27.975304,0.05823058992392136,0.0
27.977688,0.05466813070018544,0.0
27.980088,0.052036837036227836,0.0
27.982484000000003,0.04833460818563171,0.0
27.984872,0.04169911302884041,0.0
27.987252,0.03413245231227079,0.0
27.989648,0.02749695715547948,0.0
27.992036,0.02221193643904713,0.0
27.99442,0.016135519789696677,0.0
27.996816,0.011781664633042647,0.0
27.999204,0.007427809476388615,0.0
28.001588,0.004144889506373118,0.0
28.003984,0.0008619695363576188,0.0
28.006376,0.0007918551262577126,0.0
28.008756,0.0007918551262577126,0.0
28.011156000000003,0.0007217407161578064,0.0
28.013540000000003,0.0007217407161578064,0.0
28.015924,0.0,0.0
28.01832,0.0,0.0
28.020708000000003,0.0,0.0
28.023088,0.0,0.0
28.025492000000003,0.0,0.0
28.02788,0.0,0.0
28.030264,0.0,0.0
28.032660000000003,0.0,0.0
28.035052,0.0,0.0
28.037436000000003,0.0,0.0
28.039832,0.0,0.0
28.04222,0.0,0.0
28.044604000000003,0.0,0.0
28.047004,0.0,0.0
28.049388,0.0,0.0
28.051772000000003,0.0,0.0
28.054168,0.0,0.0
28.056556,0.0,0.0
28.058936,0.0,0.0
28.061336,0.0,0.0
28.063724,0.0,0.0
28.066104,0.0,0.0
28.068504,0.0,0.0
28.070892,0.0,0.0
28.073272,0.0,0.0
28.075672,0.0,0.0
28.07806,0.0,0.0
28.08044,0.0,0.0
28.08284,0.0,0.0
28.085228,0.0,0.0
28.087612,0.0,0.0
28.090016,0.0,0.0
28.0924,0.0,0.0
28.09478,0.0,0.0
28.097184,0.0,0.0
28.099572,0.0,0.0
28.101952,0.0,0.0
28.104356,0.0,0.0
28.106744000000003,0.0,0.0
28.109124,0.0,0.0
28.111528000000003,0.0,0.0
28.113916,0.0,0.0
28.116296,0.0,0.0
28.118692,0.0,0.0
28.121080000000003,0.0,0.0
28.12346,0.0,0.0
28.125856,0.002072215156516757,0.0
28.128244,0.004144430313033514,0.0
28.130624,0.010220846962383973,0.0
28.133028,0.016297263611734433,0.0
28.135416000000003,0.02144251470130657,0.0
28.137796,0.02551683060424018,0.0
28.140192000000003,0.028659980947395466,0.0
28.14258,0.03380523203696761,0.0
28.14496,0.039881648686318064,0.0
28.147356,0.04716877014916726,0.0
28.149744,0.05445589161201646,0.0
28.152124,0.06067207788822712,0.0
28.154528000000003,0.06474639379116075,0.0
28.156916,0.06989164488073289,0.0
28.159296,0.07703899671672187,0.0
28.161692,0.08311541336607234,0.0
28.16408,0.08639833333608785,0.0
28.16646,0.09061241886588167,0.0
28.168856,0.09682860514209234,0.0
28.171244,0.103044791418303,0.0
28.173624,0.1071887625379969,0.0
28.17602,0.11161227291141124,0.0
28.178408,0.10802738029915815,0.0
28.180792,0.10672412768704236,0.0
28.183188,0.10327900470164948,0.0
28.185572,0.10104458652975536,0.0
28.187952,0.10081226910427811,0.0
28.190352,0.09792622462632608,0.0
28.192736,0.09718205052165113,0.0
28.19512,0.09615833716325575,0.0
28.197516,0.09527439343172057,0.0
28.199904,0.09560115451368416,0.0
28.202284,0.10193421783489827,0.0
28.20468,0.10719634596947387,0.0
28.207064,0.10938543817099411,0.0
28.209444,0.11357663111893117,0.0
28.211844000000003,0.1247052918658971,0.0
28.214228,0.13196952074688953,0.0
28.216612,0.1372316488814651,0.0
28.219008,0.13942074108298533,0.0
28.221396,0.14039912847100683,0.0
28.223776,0.13974750216494894,0.0
28.226172,0.1451021780981416,0.0
28.22856,0.14682473959083803,0.0
28.23094,0.1546933729496452,0.0
28.23334,0.16135130149495364,0.0
28.235724,0.1678694604134019,0.0
28.238104000000003,0.17368877119754905,0.0
28.240504,0.1735017797424457,0.0
28.242892,0.1695901260482291,0.0
28.245272000000003,0.16432799791365352,0.0
28.247672,0.1586465608984973,0.0
28.25006,0.14823918167434957,0.0
28.252440000000004,0.13783180245020182,0.0
28.254836,0.12849535841269263,0.0
28.257224,0.11822774881540508,0.0
28.259608,0.10381616809842366,0.0
28.262004,0.09233785368763738,0.0
28.264392,0.08085953927685112,0.0
28.266772,0.07245426079912023,0.0
28.269188000000003,0.06525968713488808,0.0
28.271576,0.05941558791101489,0.0
28.273956,0.051569387940724846,0.0
28.276352,0.045073662410793754,0.0
28.278740000000003,0.03550490094780729,0.0
28.281124,0.028659980947395473,0.0
28.28352,0.020883895387205337,0.0
28.285908000000003,0.01538944982715247,0.0
28.288288,0.011757335386656246,0.0
28.290684,0.010918717625494984,0.0
28.293072,0.011430574304692675,0.0
28.295456,0.010569063961674657,0.0
28.297852,0.010569063961674657,0.0
28.30024,0.011570343931552884,0.0
28.30262,0.01164045834165279,0.0
28.305016,0.01464383905794787,0.0
28.307404,0.014853723094907985,0.0
28.309784,0.014853723094907983,0.0
28.31218,0.014923837505007892,0.0
28.314568,0.014993951915107799,0.0
28.316952,0.014993951915107797,0.0
28.319348,0.0149939519151078,0.0
28.321736,0.015064066325207705,0.0
28.32412,0.015064066325207707,0.0
28.326516,0.015064066325207707,0.0
28.328904,0.01341116004927158,0.0
28.331288,0.011758253773335453,0.0
28.333684,0.009174181937621007,0.0
28.336072,0.007661045288545088,0.0
28.338452,0.006147908639469172,0.0
28.340848,0.0044950023635330445,0.0
28.343236,0.007266065654350854,0.0
28.345616000000003,0.012039229691585515,0.0
28.348016,0.017254135997917957,0.0
28.350404,0.025866943461400106,0.0
28.352788,0.03424553764153575,0.0
28.355184,0.05277250932274661,0.0
28.357572,0.08272867772863134,0.0
28.359956,0.12010938217301664,0.0
28.362352,0.16605567225264095,0.00572778484076802
28.36474,0.2218483671911029,0.011238450632223323
28.367120000000003,0.28676572627224467,0.01656348756503125
28.369516,0.3579441384066314,0.021857924482501727
28.371904,0.4342205798023472,0.027068622994435944
28.374288000000004,0.5135228353028751,0.03230087004201297
28.376684,0.5938488041617985,0.037649665617759155
28.379068,0.6802736230585895,0.04286117984878597
28.381452,0.7697242560601929,0.04809177029210569
28.383852,0.8611297679799697,0.0533959449765003
28.38624,0.9583545906838936,0.05863128699541547
28.388624,1.0561838178656326,0.06403713068047596
28.39102,1.153568947727065,0.06957716241784305
28.393412,1.254351978745647,0.07511136153749565
28.395796,1.354575931256788,0.08075393123428048
28.398192,1.456849206342589,0.08628286545839409
28.40058,1.5607071691520955,0.09162447386501668
28.402964,1.658840264833941,0.09683758525978364
28.40536,1.7416572985366223,0.10208046508798013
28.407748,1.8147452636188088,0.107306889336642
28.410128,1.873960188960807,0.10690933534782084
28.412524,1.9208848664284528,0.10676086791431143
28.414912,1.9571020878875824,0.10680400029715213
28.417296,1.9843344148308923,0.10693701331655314
28.419692,2.0065388269229736,0.10715376474149044
28.42208,2.0278592952835193,0.10724385875303682
28.42446,2.0492269854723086,0.10716651014878507
28.426856,2.0606313937572565,0.10736083960281874
28.429244,2.066216491258057,0.10762450445171952
28.431628,2.068403687601708,0.10779680860720353
28.434024,2.060535054242901,0.1081152784328348
28.436412,2.0491759719283267,0.10822675295880294
28.438792000000003,2.0327436487921497,0.10813547128358368
28.441192,2.0050920129682592,0.10814672481738591
28.44358,1.9738101585617414,0.10797425312860182
28.445960000000003,1.9364766759455994,0.10772963765291974
28.448356,1.8873175803060596,0.10781618077799691
28.450744,1.8317800953749317,0.10806586457873829
28.453128000000003,1.7735888833913291,0.10847758480512493
28.455524,1.7147460451016683,0.1088503456170048
28.457912,1.6613976523720604,0.1087926100836679
28.460296000000003,1.6078169422169755,0.10857239061438406
28.462692,1.551722274636276,0.10841426580551651
28.46508,1.4933931888836824,0.10298681586864501
28.467464000000003,1.4349715553324716,0.09755936593177351
28.46986,1.3701715324896728,0.09223702487265009
28.472252,1.3020661562883413,0.08696557790115565
28.474632000000003,1.237592894527506,0.08155973421609515
28.477032,1.1735389416472517,0.07606547892387465
28.479416,1.1084140535803584,0.070589000083996
28.481800000000003,1.04580312293908,0.06503518823944957
28.484196,0.9862180064026139,0.05951787002842095
28.486584,0.9277963728514033,0.05406911996627312
28.488968000000003,0.8716091574720867,0.0485236673128183
28.491364,0.8156542595182473,0.04305356930481755
28.493752,0.7587209741763865,0.03776925055638603
28.496136000000003,0.7058844381259766,0.03234109902468627
28.498536,0.6543511546876823,0.026878303829177944
28.500924,0.6070543901676989,0.021223703774594822
28.503304000000004,0.5593383167671351,0.015624518714053105
28.5057,0.5074553796650206,0.010352023395443121
28.508088,0.4583187174139979,0.005210044506781058
28.510472,0.4132788044544259,0.0
28.512868,0.37312703671922276,0.0
28.515256,0.3330678167826367,0.0
28.51764,0.2972451157643616,0.0
28.520036,0.26365683291798064,0.0
28.522428,0.23030086749707696,0.0
28.524808,0.1993190898749276,0.0
28.527204,0.1708512696783928,0.0
28.529596,0.1441060109745544,0.0
28.531976,0.11803337530076141,0.0
28.534372,0.09791982003797585,0.0
28.536764,0.08697815074611326,0.0
28.539144,0.08106439630547976,0.0
28.54154,0.08003878708921515,0.0
28.543928,0.08297015753754107,0.0
28.546312,0.0910692124639563,0.0
28.548708,0.10526711742823912,0.0
28.5511,0.12221129724361376,0.0
28.55348,0.14779117710432735,0.0
28.555876,0.1783064240176529,0.0
28.558264,0.20854213167725805,0.0
28.560648,0.24157133601619818,0.0
28.563048,0.27739403703447324,0.0
28.565436,0.3152188387991652,0.0
28.567816,0.35183293575035834,0.0
28.570216,0.39016959419424796,0.0
28.572604,0.4322309148772509,0.004826062923167364
28.574984,0.47801689779936707,0.009454608451843404
28.577384,0.5265963774008182,0.013954892379041899
28.579772,0.5747355513977013,0.01860620937208265
28.582156,0.6191500631554709,0.02331033489223339
28.584552,0.65755827267399,0.028158788122341877
28.58694,0.6959664821925091,0.03296715360935792
28.58932,0.7309295687256355,0.03786687706797448
28.591716,0.7701763960053158,0.04251325761255075
28.594108,0.8083522880983578,0.04720640996219113
28.596488,0.844665849071843,0.05186652278872704
28.598884,0.8854029204187426,0.0563517204194773
28.601276,0.9201336895263916,0.06098532101210547
28.603656,0.9517914227009853,0.06555195786209
28.606052,0.9868017310623548,0.06995380449840238
28.608444,1.0231625138640832,0.07414761946621981
28.610824,1.0576609655462548,0.07831765560750673
28.61322,1.09029708610887,0.08245516947162528
28.615608,1.1252148466716225,0.08653806804966785
28.617992,1.1542660746219846,0.09081556544897101
28.620388,1.179452870706373,0.09030129931632072
28.62278,1.1981215078723135,0.0900674933570827
28.62516,1.2147880442918368,0.08996905606619658
28.627556,1.2301513280992447,0.08974859714933246
28.629948,1.243931820040816,0.08950519355554504
28.632328,1.260133721609385,0.08902304483758791
28.634724,1.2718195650059225,0.08867540127693518
28.637112,1.2862989050817952,0.0882132191819509
28.639496,1.2958428781050555,0.08804022831642233
28.641892,1.306737325568675,0.08772790105577358
28.64428,1.3171199163530967,0.0873534478261581
28.646664,1.3227069097117665,0.08718004698592492
28.649064,1.3256401760179617,0.08704404425751207
28.651452000000003,1.3225671400849062,0.08722597175465452
28.653832,1.3152103634052967,0.08769246196067808
28.656232,1.2995656444862995,0.08867153970187472
28.658620000000003,1.285131630380801,0.0894949075133597
28.661,1.2665536451556083,0.09062988896785112
28.6634,1.2441112280644422,0.09198305965392112
28.665784,1.231167458026163,0.09265513252803263
28.668168,1.2195741624282426,0.093163952268319
28.670564,1.2111936723902377,0.09346236504852135
28.672956000000003,1.201509929740117,0.09366445778255117
28.675336,1.1939680574632734,0.09371849581525224
28.677736,1.18670572444015,0.09369406254810868
28.680124000000003,1.1778605995511906,0.09364048445009744
28.682504,1.1725078194758674,0.09330243754345491
28.684900000000003,1.1659915564152883,0.0928315766169082
28.687292000000003,1.156961335929095,0.09236274687141942
28.689672,1.1411334172707326,0.09217709433075762
28.692068000000003,1.1213012971195369,0.09219044493561282
28.694460000000003,1.1017487162220614,0.0921179243721673
28.69684,1.0875508112577783,0.09168388674273062
28.69924,1.07791618629377,0.09086080603945018
28.701624,1.0707029709567595,0.08980079623704505
28.704008,1.0671218700602445,0.08832838905524165
28.706404000000003,1.0586054021111178,0.08711227657881958
28.708792,1.0522308045352684,0.08567351523368255
28.711176,1.0495808691985322,0.08404239282594629
28.713572000000003,1.03771182606263,0.08307347637267397
28.715964000000003,1.0229095166205322,0.0782528598418705
28.718344,1.0036836968050205,0.07355970749223013
28.720740000000003,0.9818966977356507,0.06895576812188794
28.723128,0.9602494682931413,0.06447087201301024
28.725512,0.9372517644102731,0.06003458335379049
28.727908000000003,0.9099703197808505,0.05572185693965038
28.730300000000003,0.8794760695915125,0.05159918191992959
28.73268,0.8464206401483166,0.04763250148284403
28.735076000000003,0.8183005777577329,0.04362794154928514
28.737464,0.799120083912595,0.0394327690009553
28.739848,0.7818019211870136,0.03513375879917964
28.742248,0.7672772551407673,0.030894482572108112
28.74464,0.7524730498408005,0.026830922337329473
28.747020000000003,0.7381807012200314,0.022905438693482896
28.749416,0.7208153166662069,0.019097111653552094
28.751808,0.7047531847244982,0.01539662612634143
28.754188000000003,0.6905533839023461,0.011619334649991604
28.756584,0.681940576438864,0.007785600676518652
28.758972000000004,0.673467538602242,0.003980653820142378
28.761356000000003,0.6700696374450921,0.0
28.763752,0.6671835929671401,0.0
28.76614,0.6724457211017156,0.003512754033058818
28.76852,0.6837141514755418,0.006907542556318806
28.77092,0.6925611722223706,0.01037308673577958
28.773308,0.704760768155975,0.013671536454227123
28.775688,0.7226871270751096,0.016934448989669514
28.778088,0.74191673860636,0.020336228372624617
28.780476,0.7611463501376103,0.02382855891658851
28.782860000000003,0.7779545520418631,0.027370118743053284
28.785256,0.7896876172666439,0.03093604840809365
28.787644,0.80449371842448,0.03435821911168169
28.790024,0.8130139780893452,0.03802925728797041
28.792424,0.8223256336871284,0.041645862924056115
28.794812,0.8296351885384947,0.0453412980053793
28.797192,0.8406694056289743,0.04898224738532782
28.799592,0.849701521973037,0.052752851427427264
28.80198,0.8607357390635167,0.05644396696564092
28.804364000000003,0.8673936676088252,0.06006057260172662
28.80676,0.8719097257808566,0.06375600768304981
28.809148,0.8761462446991677,0.06742361559100457
28.811528,0.8798709069382809,0.0710946537672933
28.813924,0.8781011236173413,0.0675818997342345
28.816312,0.8707443469377318,0.06418711121097449
28.818696,0.8644585054447608,0.06072156703151371
28.821096,0.8565426502577105,0.057423117313066166
28.823484,0.8438311976449082,0.054160204777623774
28.825864,0.8346120898457422,0.05075842539466868
28.828264,0.8292574139125495,0.04726609485070478
28.830652,0.8217608676060798,0.04372453502424001
28.833036000000003,0.8119826812994728,0.04015860535919964
28.835432,0.7999228549927285,0.036736434655611605
28.83782,0.7938693309252348,0.03306539647932289
28.840204000000004,0.787024410924823,0.02944879084323718
28.842604,0.7803192605512713,0.02575335576191399
28.844988,0.7697496783117461,0.022112406381965478
28.847368,0.7614617360723585,0.018341802339866035
28.849768,0.7508921538328334,0.01465068680165238
28.852156,0.7420451330860046,0.011034081165566671
28.854536,0.7362711482722314,0.0073386460842434775
28.856932,0.7282155234583209,0.003671038176288718
28.85932,0.7257468920030802,0.0
28.861704,0.724908274241919,0.0
28.8641,0.7284459450259287,0.004181235649054811
28.866492,0.7319836158099386,0.00836247129810962
28.868872,0.7378029265940858,0.012413833577598503
28.871268,0.7493490003637633,0.01636483725926577
28.87366,0.7578220382003853,0.020315840940933038
28.87604,0.7664348456638674,0.024159539269545657
28.878436,0.7814732642471807,0.02777085823152482
28.880828,0.7998642580172699,0.031339859746968304
28.883208,0.8223992229070529,0.03475300176794644
28.885608,0.8429320870504191,0.0382050567418276
28.887992,0.8610435415667879,0.041794927236692314
28.890376,0.8828796583222699,0.045327010111148085
28.892772,0.9084404373168651,0.04886061715914904
28.89516,0.9318593459381833,0.05245017514157901
28.897544,0.95634918974614,0.05607776156577336
28.89994,0.9804197246735161,0.059761263785922794
28.902332,1.0012774540409768,0.06354281062143977
28.904712,1.0245565930354348,0.06726423325363341
28.907112,1.0438315305370591,0.07102375750656167
28.909496,1.0665515910240764,0.07470178287210393
28.911876000000003,1.0894114211379535,0.07416137575315615
28.914292,1.115064747931166,0.0735690576685607
28.916676,1.138296665097381,0.073206389041065
28.919056,1.1576641503976224,0.07299647535616317
28.921456000000003,1.1748897653245864,0.07289667769415517
28.92384,1.1870402435720786,0.07304633206605222
28.926224,1.195046750699877,0.07342836580458273
28.928616,1.2109218911864825,0.07354542769541374
28.931004,1.2205111901801167,0.0739559892306929
28.933384,1.2323821291738883,0.07422268224449056
28.93578,1.2437412114884623,0.0743887252140261
28.938172,1.2532379626834795,0.07459371522708637
28.940552,1.2632937923859378,0.07466479083311334
28.942948,1.2793559243276464,0.07454479770275059
28.94534,1.2983513225755503,0.07434796331684758
28.94772,1.318557425636953,0.07407086319579376
28.950116,1.3430472694449096,0.073608138612975
28.952508,1.3693994443724231,0.07314971066980945
28.954888,1.394820453740158,0.07268857474921525
28.957284,1.4163770312419197,0.07233483595024524
28.959676,1.4340691768777079,0.07206596410186786
28.962056,1.4458947899011059,0.0719389688034318
28.964452,1.4605611214320815,0.07157966618019015
28.96684,1.4804423592693898,0.07105079568222362
28.969224,1.5043277985995318,0.07039440721675488
28.97162,1.5352904753555627,0.06951601097048869
28.974012,1.564251051365177,0.06867664835982197
28.976392,1.5821301884560683,0.06821906687677692
28.978788,1.6013597999873186,0.06763292873171094
28.981176,1.6173766059586534,0.06718675696783398
28.98356,1.6363266782361834,0.06666840891462504
28.985956,1.6515520882746002,0.06619738464608356
28.988348,1.6612830527529643,0.06597149112132011
28.990728,1.663285153499381,0.0659166084261963
28.993124,1.6647753975666002,0.06579303159295721
28.995512,1.6605388786482893,0.06576815102730255
28.997896,1.652437927864005,0.06581373771737985
29.000292,1.6395413796539684,0.0659401153452226
29.002684,1.629857637003848,0.06594743167406993
29.00506,1.6176599369281126,0.06593394592619806
29.00746,1.6088148120391534,0.06577181461158405
29.009852,1.6033222623369698,0.06546078280750865
29.012232,1.5943373678211499,0.06532179043341972
29.014644,1.5784150055063015,0.06533188787665821
29.017032,1.5619807865122552,0.06525691067252003
29.019416000000003,1.5386090997191801,0.06532320029316838
29.021812,1.5173792832993822,0.06531874442649215
29.024196,1.4961494668795843,0.06533847092670837
29.02658,1.476921751206203,0.06530428419562714
29.028976,1.4596961362792389,0.06522386616469292
29.031364,1.4393974854192193,0.06523450917694727
29.033744,1.4228234967983129,0.06520463099163669
29.036144,1.4109525578045414,0.06492187466379268
29.038528000000003,1.402946050676743,0.06456236965889274
29.040908,1.3918665076158896,0.06428780682903958
29.043324,1.3877244323540645,0.06385338196026041
29.045712,1.3831630482116593,0.06350455554824967
29.048092,1.3824660959352273,0.06308482134402413
29.050488,1.3804186692184366,0.06277080199541678
29.052876,1.3807454303004,0.06251084151487732
29.05526,1.3794421776882844,0.06241147323335627
29.057656,1.3798614865688648,0.062323909929970195
29.060044,1.3833538313825007,0.06215220370370828
29.062424,1.393364335114585,0.06191944903586845
29.06482,1.4020243644063104,0.06178917096001365
29.067208,1.4145488255640095,0.06159062692733812
29.069592,1.4290753874681252,0.06135901247984292
29.071988,1.448816855678573,0.06096722291801555
29.074376,1.4693497198219392,0.06061038699000311
29.076756,1.4901621232190259,0.06021193622739277
