Time,Force,Position
29.63002,0.06233595757403131,0.0
29.632408,0.06712397156830614,0.0
29.634788,0.08145595858584148,0.0
29.637184,0.1038416745594181,0.0
29.639572,0.13255855799633962,0.0
29.641968,0.1637421770306325,0.0
29.644364,0.20090700326182764,0.0
29.646752000000003,0.24081810434411458,0.0
29.649136,0.2822647754639946,0.00962103627557104
29.651532,0.3244556206885495,0.019502220908599176
29.653920000000003,0.36925297113733613,0.029313004255537307
29.656304,0.417867531623853,0.03879399584551407
29.6587,0.4712304677078785,0.04787453742748194
29.661088000000003,0.5233354771501623,0.05746944418689318
29.663468,0.5787458399509786,0.06674570088958184
29.665868,0.6343885201772722,0.07617690109445922
29.668252,0.6891925826424046,0.08593948920534224
29.670636,0.7422557485446841,0.09567672706887735
29.673032000000003,0.7946672881409058,0.10538976561519477
29.67542,0.8457755751250118,0.11491487135068337
29.6778,0.8897140768846115,0.12464529517653017
29.680196,0.9324890956589557,0.13419265377808612
29.682584,0.973309235515126,0.14362561219013947
29.684968,1.0113831005202047,0.15285159341126894
29.687364,1.0472225473533892,0.16206678356638177
29.689748,1.0879048134405687,0.17079761185642328
29.692132,1.1215570639301022,0.1798185102157765
29.694528,1.152695356994021,0.1889615883071689
29.696916,1.1865345989386582,0.1881855159235464
29.6993,1.2247973512567094,0.18681141125595252
29.701696,1.2644105780151196,0.18534239792412271
29.704084,1.302021704027113,0.18424398387824473
29.706480000000003,1.33805003817327,0.1834255494209173
29.708876,1.3791535089988993,0.1819841646137811
29.711264,1.415693699824254,0.1811402196990664
29.713648000000003,1.4588918191949172,0.17980339361985495
29.716048,1.505954370431554,0.17806629917801373
29.718436,1.5525976127876102,0.17644538480773958
29.720816000000003,1.6037569133156977,0.1746362994905748
29.723216,1.6566387753364817,0.172887506816672
29.725604,1.7149678610890753,0.17079669098400085
29.727984000000003,1.7699443716548933,0.16905565882781504
29.730384,1.8243618037132703,0.16748622710692523
29.732772,1.8752868909580112,0.16629230477867077
29.735156,1.9279345396954488,0.16505210534805345
29.737552,1.9720147069397775,0.16460346123691721
29.73994,2.0228925723562754,0.16366526703679146
29.742324,2.07563276889233,0.1625912574383654
29.74472,2.123297828748912,0.16195378384483883
29.747112,2.1661672911797427,0.16170295960498776
29.749492,2.20573140025204,0.16161962639499122
29.751888,2.2430610911524442,0.16156500065262308
29.754276,2.275595184627096,0.1617939387136953
29.756656,2.305894859929853,0.16208647557691747
29.75906,2.339175023367049,0.1620333525306622
29.761444,2.3659370278857974,0.16236553881944688
29.763824,2.389114139792292,0.16285894070412976
29.76622,2.413921265392866,0.16317292707336223
29.768604,2.4275544042761004,0.16404723091958878
29.770984,2.435600549800665,0.165195668017561
29.773392,2.4381994715934194,0.16657922129006264
29.77578,2.445501443013309,0.16759685824887446
29.778156,2.4540141192466978,0.16850827011916894
29.78056,2.4632256436143867,0.16929780161794264
29.782948,2.4700629801833216,0.17014362658134055
29.785328,2.4863989638051427,0.17038930256924495
29.787728,2.4971479540682946,0.170900161271489
29.790112,2.508456022838887,0.17131808591599565
29.792492,2.524606910863474,0.1713929249596473
29.794896,2.542899669261338,0.17134340625698793
29.797284,2.5641256939653974,0.17116237074865598
29.799664,2.5864226538560957,0.170914473234451
29.80206,2.612072188933569,0.1704510091714695
29.804448,2.635719623264626,0.17009024013802138
29.806832,2.6601584535286014,0.16972812610550456
29.809228,2.684085427113379,0.1693375613726143
29.811616,2.7132273070044888,0.16868441665724399
29.813996,2.741717560589541,0.16805460416263737
29.816396,2.7822204186530937,0.16684321435022822
29.818784,2.828589809329038,0.16537441310741857
29.821164,2.879242940751535,0.16369690676934257
29.823564,2.9280337410544757,0.16216523566961583
29.825952,2.9765922239319393,0.16061478978260657
29.828336,3.0263614116229016,0.15899209892515115
29.830732,3.0773413041273634,0.15731980222114317
29.833116,3.1191493106609016,0.15601643472878224
29.835496000000003,3.1635184964482974,0.15456577911230734
29.837892,3.206165120742997,0.15319683589356742
29.84028,3.2425259035447254,0.15212887885352935
29.84266,3.2735792322415045,0.15121443413506083
29.845056,3.298254171646695,0.15050980783459977
29.84744,3.3305654269852156,0.14950227914081057
29.849836,3.3600831856444016,0.1485870329426936
29.852236,3.3912309579976667,0.14755914156059677
29.854624,3.420935708111956,0.14656025261022548
29.857004,3.450919997479965,0.1455274598257142
29.8594,3.4734549623697477,0.14473770748085463
29.861788,3.495058761699753,0.14398868903447937
29.864168000000003,3.50893369729781,0.14351309777483226
29.866564,3.5145679124847233,0.1432652668958598
29.868952,3.51261303356655,0.14324992025371078
29.871336000000003,3.506514183528682,0.14339230824770263
29.873732,3.4973422975577586,0.1436474373405353
29.87612,3.4880306419599765,0.14391626681751243
29.878504,3.479789921548831,0.14413552296105023
29.880908,3.4751340937499395,0.1442676938310301
29.883292,3.4641924244580773,0.1446422975271089
29.885672,3.451388424046658,0.14507066031690632
29.888068,3.4419369988220145,0.1453571770374173
29.89046,3.4362102358364846,0.14553731131332534
29.89284,3.4363500054633453,0.1455211998614352
29.895236,3.423918092104263,0.14598283516345592
29.897624,3.414838753931958,0.14629841720373882
29.900004,3.405479876505931,0.14664121282233997
29.9024,3.393187732773709,0.14707897598025765
29.904788,3.3848997905343214,0.14737350183071898
29.907172,3.3836890857208224,0.14742906209414797
29.909568,3.3846202512806007,0.14740479822168323
29.911956,3.386901891280738,0.14731064826198137
29.914352,3.395329603146986,0.14700787808105995
29.916748,3.4097636172524846,0.14650794296255623
29.919136,3.428760911358258,0.14581609573236418
29.921516,3.445756104717614,0.14517486842736452
29.923912,3.461168506211134,0.14455362504623773
29.9263,3.470714375092264,0.14411675874731938
29.92868,3.481470948786892,0.14362949494683314
29.931076,3.5002359254671878,0.14287672885195823
29.933464,3.521934168453679,0.1420372677621142
29.935844,3.5434926418133097,0.14122193937153588
29.93824,3.5661220503595796,0.14037901071521974
29.940628,3.5826053870397376,0.1397434872667736
29.943012,3.603652003720171,0.1389021107474028
29.945408,3.619483714094272,0.1382466184922338
29.947796,3.6345240285354548,0.13760441709697976
29.950192,3.653708314096331,0.1368201357577431
29.952588,3.6678174629777356,0.13621554619120227
29.954976,3.6775031014857253,0.1357914045148596
29.957356,3.680530811448407,0.13554541687222438
29.959752,3.6815564206646716,0.1353601284551651
29.96214,3.681371325067438,0.1352292022310043
29.96452,3.681046459843344,0.13511418995898508
29.966916,3.6795108898057505,0.13505048800394553
29.969304,3.6874739668210434,0.13468240214267566
29.971684,3.699441245329171,0.13420701010330838
29.97408,3.7116880630910187,0.13369169093821218
29.976464,3.723143484919948,0.13319131198408043
29.978864,3.730082848576846,0.13278775723788283
29.98126,3.7362308163008264,0.13239590352562008
29.983648,3.7417271577187483,0.13199859647035395
29.986032,3.745500937643974,0.1316305854164137
29.988428000000003,3.7535584583157537,0.13112587971861947
29.990816,3.7604052741740346,0.13066789279267427
29.9932,3.7692541907787325,0.13014880605921586
29.995596000000003,3.777171941823652,0.12964939980215956
29.997984,3.780945721748878,0.1292741505668983
30.000368,3.783928105741185,0.1289022351523971
30.002764000000003,3.787469568240934,0.12847483814007798
30.005152,3.7927335922333785,0.12801231723813403
30.007536,3.800791112905159,0.1274859709208775
30.009932000000003,3.8040530361511866,0.127075638656615
30.01232,3.8037300667849614,0.12673635616770634
30.0147,3.800334061485681,0.12648870931853143
30.017096,3.788789883573873,0.12647729465157004
30.019484,3.7729619649155097,0.1266010412944667
30.021864,3.7639317444293168,0.12655331200040013
30.024264,3.753970358383345,0.12652363569329095
30.026652,3.744800368270291,0.126487564908394
30.029032,3.7326971118510412,0.12652371346998556
30.031428,3.7215250209915713,0.12653792016489843
30.03382,3.7103529301321005,0.12655046354743368
30.0362,3.698109904085992,0.1265938770860186
30.0386,3.68814851804002,0.12655714673472754
30.040984,3.680608541621046,0.12642713550953485
30.043368,3.6772125363217647,0.12618225216956597
30.045764,3.675678862142041,0.12589953685358973
30.048152,3.6769386846416525,0.12556080982325046
30.050532,3.6768480327009043,0.12528097945987668
30.052932,3.6816927478127686,0.12488340301237502
30.05532,3.686677232551493,0.12447574539766305
30.0577,3.6985991850892463,0.12390123003530729
30.060096,3.711172763933058,0.12333090330516461
30.062488,3.7261677524038666,0.12266652388280315
30.064868,3.742093906434454,0.12197792909215055
30.067264,3.7587189085993424,0.12121779980233385
30.069656,3.7714794788982564,0.12055887084865835
30.07204,3.781306782890976,0.11996355684338804
30.074436,3.7912738565105557,0.11935635677484441
30.076824,3.800169994943497,0.11877194860729287
30.079204,3.808926363749577,0.11820668265762381
30.0816,3.8175429629287976,0.11765668781034194
30.083992,3.8261595621080184,0.11710773562823439
30.086372,3.8314235861004633,0.11666648941001205
30.088768,3.836128531585467,0.1162835104036799
30.091156,3.8346874052043605,0.1160600665259762
30.09354,3.8335258180769736,0.11580974167278206
30.095936,3.832504000576448,0.11554733520997676
30.098324,3.8294800823295048,0.11533074270879425
30.10072,3.82152079702995,0.11522752095519928
30.103116,3.8115594109839783,0.1151712168514418
30.105504,3.8006668593782282,0.11512790785265246
30.107888,3.7928473437055334,0.11500833755542728
30.110284,3.7846085191522585,0.11492741409240088
30.112672,3.7771610905319006,0.1148432963276558
30.115056,3.771016914523659,0.11477850858334815
30.117452,3.764593199261697,0.11473950036713021
30.11984,3.7609629806790696,0.11465212158877366
30.122224,3.7564015965366644,0.11458039478219606
30.12462,3.7559841835139536,0.11440414486376559
30.127008,3.7530528130656275,0.1142494164854854
30.129392,3.7493300466843835,0.11409708773954863
30.131788,3.744676114743361,0.1139604096461185
30.134176,3.741512426869558,0.11375355040653831
30.13656,3.7386282782494753,0.1135208923199047
30.138956,3.739748331122226,0.11319659476591946
30.141344,3.7417995495547554,0.11285798361267711
30.143724,3.740917501681089,0.11257955046058807
30.14612,3.7443191945539773,0.11218342705643312
30.148508,3.751725088919699,0.11169811501114851
30.150892,3.7580600480987822,0.11123805115576132
30.153288,3.759180100971533,0.11091085958079204
30.155672,3.759508757911366,0.11058935461320864
30.158056,3.760256723731779,0.11022864710227881
30.160452000000003,3.7623551639925514,0.10981471769296815
30.16284,3.763662208320406,0.10940414976447074
30.16522,3.764457395969063,0.1089689038674805
30.167620000000003,3.7693965547374133,0.10844182783587702
30.170004,3.7760582749984604,0.10789965912855788
30.172388,3.782580225632647,0.10737546289827701
30.174788,3.7897538025728923,0.10685973717166448
30.177176,3.799720876192472,0.10630501419586531
30.179556,3.81075888499869,0.10572335287833334
30.181952,3.8264527216037996,0.10508214248346463
30.184344,3.8401444574624923,0.10448292041189029
30.186724,3.854767358880964,0.10387875797233678
30.189124,3.864315123619962,0.10337392141068363
30.191512,3.8746542842918794,0.10286405402399904
30.193892,3.8857848408967146,0.10236083320741844
30.196292,3.8942616704490747,0.10188815116290295
30.19868,3.905159909628433,0.10133888832496961
30.20106,3.9192709543677062,0.10070826192083814
30.203456,3.931379898360563,0.10011937119181383
30.205848,3.941207202353283,0.09959205098211016
30.208228,3.9499635711593637,0.09909394886209383
30.210624,3.957788774405666,0.09860791568955808
30.213016,3.9681279350775833,0.09811247098150928
30.215396,3.9692479879503337,0.09780254209701861
30.217792,3.96757454414375,0.09752919975396257
30.220180000000003,3.963898999590749,0.09729287076243613
30.222564,3.9611546205975263,0.09704378764541385
30.224964,3.951612543432135,0.09690454498708573
30.227352,3.9420704662667436,0.0967642682878539
30.229732,3.930805827608656,0.09663356579819286
30.232132,3.919680958577429,0.0964897626277253
30.23452,3.903760492120449,0.09641529639083474
30.236904,3.894125867156441,0.09620895207402241
30.239308,3.8858417166327923,0.09595331309501737
30.241692,3.8738329038700288,0.09574264902365437
30.244072,3.862615487040184,0.09553125352017114
30.246472,3.850838991702899,0.09536756933274357
30.248856,3.8402732011791123,0.09516693370118179
30.25124,3.8295676410284654,0.0949773154616461
30.253636,3.821283490504816,0.09471577902902223
30.256024,3.8089951384883336,0.09452108088015959
30.258408,3.798057260912209,0.09427683942759835
30.260804,3.781532389977415,0.09409727595482156
30.263192,3.769291259789175,0.09382260016894088
30.265572,3.7611941007206293,0.09346448097464743
30.267968,3.7552388120253597,0.09305896567379239
30.270356,3.745558861090978,0.09269446907769094
30.27274,3.7426766083287646,0.09222390222170601
30.275136,3.7388631900067724,0.09176369245685267
30.27752,3.727692995005171,0.09145551908274341
30.27992,3.72252910224282,0.09104513392348738
30.282316,3.718156605413388,0.09063204102398856
30.284704,3.711782007837538,0.09025464704740162
30.287084,3.7054074102616887,0.0898768146246293
30.289484,3.7019660789920343,0.0894544531349743
30.291872,3.6954517117893246,0.08908561996552077
30.294252,3.6884254879074176,0.08868829431561703
30.296652,3.6763241273460374,0.08837754251636658
30.299036,3.664502306038378,0.08803927626264686
30.30142,3.654403046223415,0.08769291404587749
30.303816,3.653243354953897,0.08720890241681568
30.306204,3.6518041244306603,0.08675061150676404
30.308588,3.654369095400256,0.08622489591979396
30.310984,3.6590759367431294,0.08565711859783605
30.313372,3.6613613684590054,0.0851617500776619
30.315756,3.6645779657346593,0.08466296305482608
30.318152,3.673521325995844,0.08409711263427055
30.32054,3.680742124764332,0.08354202950434395
30.322924,3.689825254652377,0.08297175576782313
30.32532,3.703052355660115,0.08231890601010848
30.327708,3.706129183308909,0.08182885696622354
30.330088,3.7094855502114235,0.08130934006090891
30.332484,3.712422608233357,0.08082787100945134
30.334872,3.712007091068515,0.08041880482360368
30.337256,3.7083787683437572,0.08007216625480323
30.339652,3.7098255822984716,0.07964488188988052
30.34204,3.7128551881190224,0.07922656270520409
30.344424,3.7204008521116045,0.07877516906817442
30.346824,3.7315314087164397,0.07830795829542185
30.349212,3.739449159761359,0.07790526012867008
30.351592,3.736425241514416,0.07765239686698538
30.353992,3.7332615536406126,0.07741183870667204
30.356384,3.729678556886229,0.07720811674749857
30.358768,3.7246053160646255,0.07706115464784596
30.361164,3.717809513750326,0.07691654082378847
30.363552,3.7060783443834144,0.07683328991427606
30.365936,3.6904827431505294,0.07679101678264753
30.368332,3.674607602663924,0.07677119741136135
30.370724,3.656870131057763,0.07676368600270388
30.373104,3.641134760198018,0.07672807306979075
30.375512,3.6314056915775232,0.07661283136960811
30.377904,3.6263324507559207,0.0764615253700787
30.380284,3.621678518814898,0.07627336322402004
30.382684,3.622099723553348,0.07601356059015335
30.385076,3.6255939642248527,0.07570819635848941
30.38746,3.6268065648962207,0.07545501980426585
30.389856,3.6312319711275047,0.07515083442942726
30.392248,3.637799247732065,0.07481445529825224
30.394628,3.638360222097375,0.07455080269800134
30.397024,3.638921196462685,0.07428582417812725
30.399412,3.650423840119858,0.07389318497104096
30.401796,3.6599243830306136,0.07352312509446103
30.404192,3.6714270266877858,0.07313150379902275
30.40658,3.6842801447853177,0.07270118573223007
30.40896,3.6988558243755456,0.07226851938984225
30.411368,3.717807792510945,0.07182754192174928
30.413756000000003,3.7412758188183757,0.0713699709444464
30.41614,3.764604075498946,0.0709251652507906
30.418544,3.7904462896051307,0.07048918589415124
30.420932,3.814938029270957,0.0700969284248078
30.423316,3.8370083593097855,0.06976356062947893
30.425716,3.8562851926692794,0.06945391141539947
30.4281,3.8748631778944715,0.06920297116554724
30.430484,3.893301393492804,0.06896891838205324
30.432884,3.913462170583833,0.06874081786613839
30.435272,3.93483365248836,0.06848714768680084
30.437652,3.9497795232730564,0.06833402928265177
30.440052,3.960721192564919,0.06822479935503607
30.44244,3.9765982289093933,0.06806824535720409
30.44482,3.99727086267962,0.06787854106697128
30.447216,4.011797424583735,0.06776566641916841
30.449604,4.0332614542868805,0.06759136784618644
30.451988,4.0522115265644105,0.06741189778391232
30.454388,4.070742289961359,0.06726736536255272
30.456772,4.092625628545084,0.06707183030001956
30.459156,4.110924074516557,0.06688166757218933
30.461556,4.127639728622193,0.06668208772479887
30.463944,4.14449515235469,0.06647254081478329
30.466324,4.1565549786614335,0.06629247025613004
30.46872,4.167032013102341,0.06609840297805684
30.471108,4.181001392356886,0.06584067896589964
30.473492,4.194691232357709,0.06560480777144037
30.475892,4.210011086052612,0.06531380960256906
30.47828,4.223468608627958,0.06503306850760539
30.48066,4.229057497844498,0.06481285178789309
30.483056,4.234506617434178,0.06460472193913931
30.485444,4.242377146650853,0.06434628809823957
30.487828,4.2514583806810275,0.06406313263077638
30.490228,4.258956822845367,0.06376929789529528
30.492612,4.258074774971701,0.06350776641158243
30.494996,4.258123892657813,0.06324204600480937
30.497392,4.247510880305784,0.06304611308720796
30.49978,4.2364785590731735,0.06288011303663202
30.502164,4.224003215601588,0.06268911125128454
30.504564,4.207383901010307,0.0625415305703223
30.506952,4.191975291232525,0.06236860923890392
30.509332,4.174564580708327,0.06221143154728874
30.511732,4.154220603877933,0.06207324732575043
30.51412,4.141233403727149,0.061849529247737116
30.5165,4.1323901746960585,0.06158172469802801
30.5189,4.118471808985496,0.06135850911143255
30.521284,4.105624378461572,0.06112226044747712
30.523668,4.090635077564371,0.06091114355330031
30.526068,4.071641575174336,0.0607305570243352
30.528456,4.057211352784576,0.060473001612070074
30.530836,4.038916698528842,0.060236094452913565
30.533236,4.015407137966776,0.06005437989345952
30.535628,3.9878933759118773,0.05990375229069384
30.538012,3.95809797385684,0.05978896915158976
30.540408000000003,3.9332379388544156,0.05963471608888389
30.5428,3.9058639464263756,0.05946504344319203
30.545184000000003,3.8851478825436447,0.059262544440422456
30.547584,3.862569487541357,0.05906449337096324
30.549972,3.8405029492182674,0.058895203166715426
30.552356,3.8155031445889818,0.058744071429976244
30.554752,3.7931570670121717,0.058594003259591194
30.55714,3.7729528598086377,0.058413589850569325
30.559520000000003,3.7556819189112995,0.058212347227375304
30.56192,3.729983266147713,0.05810985106767981
30.564308,3.6998611030107136,0.058071936087952025
30.566688000000003,3.6729517454336285,0.05798997630619812
30.569084,3.6445993656175677,0.05787465361537995
30.571476,3.615176050614868,0.05777192750146092
30.573856000000003,3.5871032100525264,0.05763050254623188
30.576252,3.559402456542523,0.05752979472304279
30.57864,3.533703803778937,0.05741157721434609
30.581024000000003,3.5112179565752664,0.057250113905144444
30.58342,3.4936674764242075,0.05705057701873659
30.585808,3.478119097019566,0.056832919310271436
30.588192000000003,3.4621514087343437,0.056650038059826775
30.590588,3.4497686130613743,0.05646827578174612
30.592976,3.430168810335655,0.05636343839404919
30.595360000000003,3.4153646050356885,0.05623379086459495
30.597756,3.39562503268311,0.0561412523456753
30.600148,3.3797498921965046,0.05602493975874444
30.602528,3.3589393846572873,0.05594634313901096
30.604924,3.331982805251959,0.05593236832694003
30.607316,3.303955290659992,0.05593290801833814
30.609696,3.2790008120010814,0.05590266480966092
30.612096,3.256188203715447,0.05584100682611652
