Time,Force,Position
27.643232,0.004492027847702481,0.0
27.645616,0.004794406259518951,0.0
27.647996,0.007098885417752271,0.0
27.650396,0.00712172457584832,0.0
27.652784,0.007121724575848321,0.0
27.655164,0.007121724575848321,0.0
27.657568,0.010869225973057652,0.0
27.659956,0.016618828116683835,0.0
27.662336,0.02357913507380876,0.0
27.664739999999995,0.032681312404210745,0.0
27.667124,0.042714655294391043,0.0
27.669508,0.04995450150523639,0.0
27.671904,0.05826528290272027,0.0
27.674288,0.06655322514210808,0.0
27.676672,0.07027788738122136,0.0
27.679068,0.07865837741922625,0.0
27.681456,0.0872014762421874,0.0
27.683836,0.09653597099806664,0.0
27.686232,0.10386836500752905,0.0
27.68862,0.11120075901699145,0.0
27.690999999999995,0.12053525377287069,0.0
27.693396,0.12863620455715516,0.0
27.695784,0.1316620186619674,0.0
27.698167999999995,0.13818017758041562,0.0
27.70056,0.14579211084359844,0.0
27.702948,0.15154171298722463,0.0
27.705344,0.14860844668102946,0.0
27.70774,0.1428588445374033,0.0
27.710128,0.13589853758027834,0.0
27.712512,0.12679636024987637,0.0
27.714908,0.11676301735969609,0.0
27.717292,0.10952317114885075,0.0
27.719676,0.10121238975136689,0.0
27.722068,0.09197044279410468,0.0
27.724456,0.08501013583697976,0.0
27.72684,0.0763272673871584,0.0
27.729236,0.06778416856419726,0.0
27.731624,0.058449673808317996,0.0
27.734004,0.0511172797988556,0.0
27.736408,0.04378488578939319,0.0
27.738796,0.034450391033513945,0.0
27.741176,0.026047061837413014,0.0
27.743572,0.02134401221027826,0.0
27.74596,0.017292588889201405,0.0
27.748344,0.009680655626018577,0.0
27.75074,0.0039310534823923955,0.0
27.753128,0.0031168183913782366,0.0
27.755508,0.0031168183913782366,0.0
27.757904,0.004208696878243575,0.0
27.760292,0.009956403164000512,0.0
27.762688,0.01514503094231661,0.0
27.765084,0.019774580213191867,0.0
27.767472,0.024264359857206912,0.0
27.769856,0.02647249950108469,0.0
27.772252,0.028121560637521626,0.0
27.774636,0.028280377706739402,0.0
27.77702,0.028280377706739402,0.0
27.779416,0.028280377706739402,0.0
27.781804,0.028280377706739402,0.0
27.784184,0.028903829626911712,0.0
27.78658,0.03204123897269857,0.0
27.788968,0.03289700831834815,0.0
27.791348,0.03470832589392316,0.0
27.793744,0.03610033458891753,0.0
27.796136,0.039562609158798716,0.0
27.798516,0.04367651003473779,0.0
27.800912,0.05244623870956848,0.0
27.8033,0.06200736331731729,0.0
27.805696,0.07233894055775739,0.0
27.808091999999995,0.07373094925275177,0.0
27.81048,0.07647343238810508,0.0
27.812864,0.08349965627001255,0.0
27.815259999999995,0.0911775064579779,0.0
27.817648,0.1017886229521384,0.0
27.820028,0.11361044425979769,0.0
27.822432,0.12850530150051231,0.0
27.824819999999995,0.14593316360919908,0.0
27.8272,0.162801947210445,0.0
27.8296,0.1811137530506669,0.0
27.831988,0.2001053595828323,0.0
27.834368,0.2189571964881375,0.0
27.836763999999995,0.24125415637883554,0.0
27.839152,0.26220064182917463,0.0
27.841532,0.28114502653309686,0.0
27.843936,0.3047452390359107,0.0
27.84632,0.32978847377770054,0.0
27.848704,0.35054796777293634,0.0
27.851099999999995,0.3715397791936493,0.0
27.853488,0.38983064173364435,0.0
27.855868,0.415570828751866,0.0
27.858264,0.44489590838234083,0.0
27.860652,0.47007701689312165,0.0
27.863032,0.49926232689673616,0.009501402746105716
27.865432,0.5328239254455219,0.018409036064355476
27.86782,0.5679683158601441,0.02718564858053202
27.870204,0.604555728513742,0.03578641380252229
27.8726,0.6396528971001206,0.04455518097082556
27.874987999999995,0.6774037927389742,0.053266734064048415
27.877372,0.7195309769229989,0.06153948370263049
27.879768,0.7573744203604695,0.07040153709752552
27.882152,0.7949383245442198,0.07920783498220038
27.884536,0.8334333942877482,0.08796216624126388
27.886932,0.8707177592177779,0.09705482390742307
27.88932,0.9102365423197019,0.10622985092408965
27.891704,0.9453318150482114,0.11568832244196561
27.8941,0.9822894188962776,0.12487879705787483
27.896488,1.022272836849156,0.13400187286420107
27.898868,1.0659809170411478,0.1428600765934905
27.901268,1.1171383217113662,0.1513418458692589
27.903656,1.1697387486205604,0.15966298981136823
27.906036,1.216285651462261,0.16839534746664553
27.908432,1.2686518650881087,0.17692755248250208
27.91082,1.3180375905795183,0.17605727061742077
27.913204,1.3654212153245109,0.1756886047888263
27.9156,1.4143876319353397,0.17533641067916297
27.917988,1.464424983732807,0.17499765970518563
27.920384,1.5167439755304115,0.17439183246129672
27.92278,1.5721360032610714,0.17362815588314137
27.925168,1.6222205768867817,0.17333305852447095
27.927552,1.683386589431215,0.17210208213325462
27.929948,1.7417591052963133,0.17104453275340112
27.932336,1.8013423259749102,0.1699436418025039
27.934716,1.8682823233331167,0.16825775732395928
27.937112,1.9354093121464269,0.16641745764879032
27.939504,2.006308185027093,0.1641760674895594
27.941884,2.0739017045492267,0.1622097609449005
27.94428,2.1399596540337673,0.16024455689980907
27.946672,2.198196191987744,0.15868547178745093
27.949052,2.2476801528513786,0.15761470894853932
27.951448,2.291764111811446,0.15671941622469965
27.953835999999995,2.34152950778667,0.15523157892988923
27.95622,2.3857551322314667,0.15396428920269037
27.958616,2.430027978504507,0.15257130459614363
27.961004,2.4680622051128203,0.15143498103172856
27.963384,2.5042813224298186,0.1503230458008557
27.965784,2.535053216015008,0.14946991656891254
27.968172,2.56545302254786,0.14861236155206806
27.970552,2.593199102028237,0.14790998896334984
27.972952,2.619734476695115,0.1472771193092882
27.975336,2.637749591697128,0.14705087960494498
27.97772,2.6614914696846714,0.1465869819827398
27.980115999999995,2.683231246925798,0.14623102998552345
27.982504,2.697754017114175,0.14623693390641843
27.984884,2.7122295654743094,0.146351043176159
27.987288,2.7249353305135036,0.14661805737756028
27.989672,2.7401550529783125,0.1468247726775432
27.992052,2.7566780280552377,0.14704678715153524
27.994448,2.777157982796753,0.14719229301654707
27.996836,2.801874456456579,0.14722364501411553
27.999216,2.828126500153999,0.1473209986639544
28.001612,2.85153782534384,0.14762679728524708
28.004,2.8793254390788525,0.14781484083335258
28.006395999999995,2.9069732831870043,0.14802251528877833
28.008792,2.9409995165867446,0.1480186228871513
28.01118,2.9751182977851016,0.14810337078622862
28.013563999999995,3.0138929067823508,0.1480310222961584
28.015968,3.0502461061526023,0.14809910912482793
28.018352,3.0804532336567427,0.14840767762830115
28.020736,3.111871065974382,0.1486376972627372
28.023128,3.145290999038438,0.14878351796680944
28.025516,3.1726120820646275,0.14909407359605212
28.027896,3.200492243598257,0.14933533891739734
28.0303,3.233075454759021,0.14933601275801725
28.032684,3.2689186933079437,0.14912485055862149
28.035064,3.3058800888717483,0.14878955326170346
28.03746,3.342189858129495,0.1484650609270166
28.039848,3.37398356921521,0.14825948850086712
28.042224,3.409828703622003,0.14784268917516527
28.044628,3.4422287150434023,0.14749421387506972
28.047016,3.476817818666322,0.14698181673485358
28.049396,3.511826231169822,0.14642556864325068
28.051792,3.5412476503146526,0.146031402652193
28.054179999999995,3.5718797742729818,0.1455909708276166
28.056576,3.6012086456191956,0.1451536309818196
28.05898,3.6293740339801532,0.14469614115758414
28.061368,3.6551652345423564,0.14427788029841113
28.063744,3.6792338736118633,0.1438852199246945
28.066148,3.7100076630549217,0.14322052850368738
28.068536,3.7412007613785607,0.14251416181475637
28.070916,3.7685294278362265,0.1419146770922063
28.073324,3.7955785550401715,0.1413330874884793
28.075708,3.8222083733635364,0.14080547194718782
28.078088,3.8417609542610114,0.1405111131750918
28.080484,3.8526062840385187,0.14054670559551596
28.082872,3.8603785778829702,0.1406854804272252
28.085252,3.8636348135553904,0.140929440072582
28.087656,3.870243624414586,0.14104269935834218
28.090044,3.8677730971014763,0.14144408068683686
28.092424,3.8677239794153637,0.14173975084482499
28.094828,3.864741595423056,0.1421184964092503
28.097212,3.8635289947516878,0.14238340705143548
28.099592,3.863806638147539,0.142569331354753
28.101996,3.861710093744636,0.14278020339814004
28.104384,3.857751218222176,0.14303504266903785
28.106764,3.8487172060202446,0.1434510765077139
28.109168,3.8387520282585337,0.14388857593004567
28.111556,3.8305566338177637,0.14421974360605413
28.113935999999995,3.8203591386305753,0.1446035894744518
28.116332,3.8092304778836095,0.14500838078030978
28.11872,3.8065295290028915,0.14513453710671
28.1211,3.80746069456267,0.14511271618605345
28.123496,3.808439081950692,0.14501788284381356
28.125879999999995,3.814911914898766,0.1447332954239268
28.12826,3.8285092071009723,0.14416853468995927
28.130664,3.8454590744899546,0.1434931520203778
28.133052,3.8656217474388526,0.142710948886142
28.135428,3.8831306933352754,0.14198493496788014
28.137832,3.90706525035153,0.1410429545207511
28.14022,3.9322105121812836,0.14006788986315077
28.142604,3.956843917331839,0.1390736048595184
28.145008,3.974120545802785,0.13830647036748475
28.147392,3.99153694390059,0.1375284858176482
28.149772,4.005880306065341,0.13683426544164815
28.152176,4.017430171550757,0.13619686687312704
28.154564,4.0346142522230855,0.13534940810522494
28.156944,4.051146706589358,0.13449502636708358
28.159352,4.071543592821602,0.13356054819738628
28.16174,4.08993837830743,0.13268272882540075
28.16412,4.109683638233617,0.13174955315180809
28.166528,4.119697933681438,0.13107132544750044
28.168916,4.128920833196344,0.13040986383636935
28.171299999999995,4.132928826404915,0.12989643693068267
28.173704,4.132141222187736,0.129494818050539
28.176092,4.126278481291084,0.12923068417189337
28.178472,4.11683084778218,0.129029179139689
28.180868,4.105800422407438,0.1288379033085918
28.183256,4.095701162592475,0.12862694073605987
28.185635999999995,4.084810506844594,0.12841976938027633
28.188036,4.074059620723573,0.1281982495746244
28.190424,4.064751756841529,0.12797852115200747
28.192803999999995,4.0580050722133425,0.12765883286155666
28.1952,4.052329322771794,0.12730885243981868
28.197588,4.052659875569495,0.12681575548228582
28.199971999999995,4.057274169113751,0.12620031549175276
28.202372,4.060537988217648,0.12564315988259775
28.20476,4.064593203254463,0.12508069206028327
28.207139999999995,4.059569080118973,0.12473590595609424
28.20954,4.052822395490786,0.1244111849156202
28.211928,4.0448650060491005,0.12412905516605872
28.214308,4.043565545152723,0.12371248377974257
28.216708,4.03891350906957,0.12339760236115695
28.219096,4.039336609665889,0.12295607659489793
28.221476,4.0436241421281816,0.12243106000708272
28.223876,4.048703070523392,0.12189806336887742
28.226264,4.050289654104968,0.12147702043406093
28.228644,4.050385993619322,0.12112362006175711
28.23104,4.047549066827483,0.12083533749282087
28.233428,4.042430500035506,0.12062200293568814
28.235812,4.033167962123835,0.12051795896527173
28.238208,4.022462401973189,0.12040925286497861
28.240596,4.016412669621434,0.12021215736849078
28.24298,4.008360836523261,0.12006144046058655
28.24538,3.995373636372477,0.12001981004907673
28.247764,3.981035961781334,0.12003051295685163
28.250148,3.9657671216304125,0.12005755745339212
28.252544,3.9487757199867946,0.1201051188215548
28.254932,3.9387217861422057,0.11999782045682199
28.257316,3.934534384910007,0.11976344727056014
28.259716,3.9335597892377243,0.11944300733024357
28.262104,3.92778959613969,0.11921672298996644
28.264484,3.928025705280906,0.11885795891113499
28.266884,3.9269113399817632,0.1185534957132441
28.269272,3.9275195361753164,0.11823377291908682
28.271652,3.931060998675065,0.11785768632534997
28.274052,3.938606662667646,0.11739134828613892
28.27644,3.949225362593284,0.1168533995040061
28.27882,3.96650199106423,0.11619913700482672
28.281236,3.9847097850949544,0.11552886955610181
28.283624,4.002777809498818,0.11486290929713248
28.286,4.0216372298356005,0.11419564854921724
28.288416,4.037423614239327,0.11360848576056015
28.2908,4.051859524202695,0.11306876397229174
28.29318,4.066015894912343,0.11254693019018765
28.295576,4.080172265621989,0.1120263495800672
28.297964,4.09833283782447,0.11142587568202947
28.300344,4.1203578418929245,0.11075632137694198
28.302744,4.140380745214962,0.110136316362908
28.305128,4.156539216671027,0.1095950767887044
28.307508,4.165760220328062,0.10919266236104233
28.309923999999995,4.174050058425319,0.10879940728375795
28.312308,4.176473363910185,0.10852051158809181
28.314688,4.1803869134622715,0.10818027894810216
28.317104,4.181506966335023,0.10788508110417414
28.319488,4.177831421782021,0.1076703717201922
28.321867999999995,4.174575186109601,0.10741953176179163
28.324284,4.171458720064042,0.10715768100796846
28.326668,4.161032699167116,0.10698918899725707
28.329048,4.147813181590854,0.10685988067495616
28.331444,4.1378064695745085,0.10665418271251637
28.333828,4.128870692744802,0.10642266564215694
28.336212,4.118212354422398,0.10620430120043202
28.338608,4.107973324980575,0.10594902738542324
28.340996,4.101226640352388,0.10559314739043929
28.343392,4.096901365351198,0.10516458825391216
28.345788,4.08577839217784,0.10484883482338848
28.348172,4.0714426134445665,0.10460638692929902
28.350556,4.05938847471143,0.10430245556046255
28.352948,4.050267602284489,0.10394940679640918
28.355336,4.043940226536882,0.10355621340869327
28.357716,4.044690088215165,0.10303120158164528
28.360119999999995,4.043577618773891,0.10252419329643413
28.362504,4.0392523437727,0.10208952640910153
28.364884,4.033856133584872,0.10167827772323461
28.367292,4.0315329593301,0.10120361004190062
28.369676,4.028790476194747,0.10076519455628802
28.37206,4.02204379156656,0.10039784418564324
28.374455999999995,4.018742229923766,0.10000258567305875
28.376844,4.020376035333584,0.09952143904264137
28.379228,4.017074473690789,0.09912319685366258
28.381623999999995,4.009489171301441,0.0988212132912675
28.384008,4.001484560031511,0.09855405870667167
28.386392,3.9953422798811395,0.09826054919636314
28.388796,3.98691835973063,0.0980280644793847
28.391184,3.974070929206706,0.0979044920444031
28.393564,3.9710942327880066,0.09761168967091532
28.395959999999995,3.9734722123024993,0.09720320854247147
28.398348,3.972777155883937,0.09685468668461057
28.400728,3.965144631666346,0.09661934604961947
28.403124,3.961516308941588,0.09631594173861438
28.405512,3.950670979164081,0.09614839183271433
28.407896,3.943550311625687,0.09593578579874851
28.410292,3.9392231407666283,0.09568951689884568
28.41268,3.9358271354673477,0.09543168547933503
28.41506,3.935224626847402,0.09514325901104324
28.41746,3.9316888519212614,0.09489722431402493
28.419848,3.9309465736744547,0.0946170327623245
28.422228,3.932346165800926,0.0942933603197026
28.424624,3.932674822740759,0.09399490645938434
28.427012,3.9404528041588187,0.09361408920648077
28.429396,3.9534456918832106,0.09313420915425931
28.431792,3.9707223203541573,0.09256713731936062
28.434176,3.9927945462508543,0.09195057494447707
28.436575999999995,4.019010743267247,0.09126831158424167
28.438976,4.0473688106569154,0.09054072963526813
28.441364,4.0665077702474175,0.08997904142080966
28.443743999999995,4.07950065797181,0.0895255459692692
28.446148,4.0922140064424815,0.0890930364833389
28.448536,4.114658319391516,0.08853619965652529
28.450916,4.1341693660343575,0.08802659283837702
28.453312,4.156334139729672,0.08749551176861178
28.4557,4.182642884544681,0.08690614129164453
28.458079999999995,4.211233269359827,0.08627836601402673
28.460476,4.24210529417511,0.08560959899446657
28.462864,4.269764513430477,0.08500711506652775
28.465244,4.303290265298235,0.08433571421557758
28.46764,4.340820218658827,0.08362338718023289
28.470028,4.37713946720592,0.08295127138697204
28.472408,4.414669420566512,0.08226328832111844
28.474812,4.446752150195294,0.08161675973899342
28.477196,4.472828577584825,0.08104448110420462
28.47958,4.496111508295021,0.08049987343940601
28.481976,4.510734409713494,0.08004246383072416
28.484364,4.51520703777302,0.07971247742923035
28.486744,4.518608730645908,0.0793995292611378
28.489148,4.524292063518932,0.07903873876572003
28.491532,4.529835626765097,0.0786852323436489
28.493916,4.538591995571179,0.07828106023967903
28.496312,4.541621601391729,0.07793316665325596
28.4987,4.545582372772058,0.07758019903170287
28.50108,4.554106424152663,0.07714472262916773
28.503484,4.553411367734101,0.07682711967619187
28.505872,4.546570239449426,0.07658785978752618
28.508252,4.536376535977977,0.07640740197491477
28.510656,4.523808644707774,0.07621365488776548
28.513044,4.509797731198595,0.0760009913601458
28.515424,4.489128889144107,0.07583738820263612
28.517828,4.464875154477365,0.07568523600542651
28.520216,4.435406513504293,0.0755993650197138
28.522596,4.409802304397192,0.07547820655038352
28.524992,4.389413001596425,0.07528754112539973
28.52738,4.370886029915214,0.07508377305838124
28.529764,4.359296526033032,0.07481130244023323
28.53216,4.358928230696432,0.07440898316210666
28.534544,4.362843676106388,0.07394889055093404
28.536924,4.365036560023646,0.07348617670941206
28.53932,4.369511083941043,0.07298190313463516
28.541708,4.36718790968627,0.07253073989197827
28.544087999999995,4.363933569871719,0.0720821493838424
28.546492,4.354812697444777,0.07168050226051274
28.54888,4.338754357218807,0.07134311583778627
28.55126,4.331263498485945,0.0708844846829987
28.553656,4.326054279753221,0.07038200870080895
28.556044,4.321264369901076,0.0698469816777314
28.558423999999995,4.3191281871014064,0.06930498102957718
28.560824,4.3144308250478804,0.06882388486406746
28.563208,4.309314154113773,0.06836784520015601
28.565591999999995,4.306990979858999,0.06789502925984724
28.567988,4.3076010719104225,0.06739459698404346
28.570376,4.306348832842288,0.06690655510151255
28.572756,4.304817054520433,0.06644197059524075
28.575152,4.298070369892246,0.06603769690611838
28.57754,4.286108778957727,0.06569636955271706
28.57992,4.2718655480230705,0.06539578140179167
28.582324,4.2510569363417225,0.06518835962982454
28.584712,4.234624613205545,0.06498015854472251
28.587095999999995,4.220054621188925,0.06476341196552628
28.589492,4.213213492904251,0.06449621347296175
28.59188,4.210097026858691,0.06421472055751631
28.594263999999995,4.215780359731716,0.06387153018538334
28.596668,4.223326023724299,0.06351924329419806
28.599056,4.226448177343467,0.06323350284709175
28.601436,4.229290791708914,0.06296711022883876
28.603832,4.233855967567058,0.06270527948028741
28.60622,4.239212539358119,0.06245152774186576
28.6086,4.24577981596268,0.06217478447815138
28.610996,4.2597038692468505,0.06182013910593001
28.613384,4.274698857717659,0.0614558746215058
28.615764,4.2889024502555495,0.061084997838436
28.618164,4.301895337979941,0.060737322412370114
28.620548,4.312886124957916,0.06040582966178086
28.622932,4.332025084548419,0.06000618890895219
28.625328,4.35223497932556,0.05959175292309115
28.62772,4.367649276676949,0.05920046136340911
28.6301,4.386555918841975,0.05874966002263954
28.632496,4.403739999514304,0.05829776139867624
28.634884,4.41598871313402,0.05787833706299196
28.63728,4.421160189327848,0.05751406844184784
28.639672,4.425400499961898,0.05715529991564984
28.64206,4.420841011677362,0.05684419571224823
28.64444,4.4189352504453,0.05653750982651734
28.646844,4.418100424399878,0.056218696981585714
28.649228,4.419407468727733,0.055877139372375026
28.651612,4.417781246749391,0.055550325361998554
28.654012,4.413361528091715,0.05522818932969772
28.6564,4.410012744620678,0.05489547283885204
28.658784,4.399586723723752,0.05461243870788033
28.66118,4.387018832453547,0.05435078401524448
28.663564,4.374311171556483,0.054097107360146494
28.665944,4.362534676219199,0.0538412205277406
28.668348,4.353551677561249,0.05358169820566047
28.670732,4.340424707783605,0.053356651262794125
28.673112,4.329299838752377,0.053119375755219876
28.675516,4.317895430467429,0.052898348970483726
28.6779,4.302067511809067,0.052727996989701
28.68028,4.283957953150568,0.052587936303840524
28.682688,4.265289315984627,0.05248639017546676
28.685072,4.253697916244576,0.05233656652282034
