Time,Force,Position
3.416416,8.04558977623151,0.1555953755431905
3.418752,8.06588653123366,0.1554698872161914
3.4210959999999995,8.088232608810472,0.1552784174129231
3.423436,8.114677331536601,0.1549474889306356
3.425784,8.133440412359029,0.1546920920897381
3.428128,8.147128356501982,0.1545209651748684
3.430472,8.164680732510911,0.1542948303161884
3.432816,8.182605195572176,0.1540845407059972
3.435148,8.206628508671308,0.1538092050812227
3.437492,8.231815304755695,0.1535451919520814
3.439832,8.255092547892286,0.1533437492826454
3.44218,8.27953327401413,0.1531564861829526
3.4445239999999995,8.306627727188449,0.1529422807485604
3.446868,8.333210323683572,0.1527176048583525
3.449212,8.356814327902123,0.1524694748276955
3.4515519999999995,8.371945294284055,0.1523034590937352
3.4539,8.381768806561036,0.1521967308690475
3.456244,8.393082562905235,0.1520522806487539
3.458588,8.401230735517762,0.1519266056703926
3.460932,8.407144489958396,0.1518095371552452
3.463276,8.419855942571198,0.1516008107865203
3.465616,8.430937381489919,0.1514355501862997
3.467948,8.442343685632737,0.1513206871697
3.4703,8.457147890932704,0.1512088534291848
3.4726479999999995,8.47660792403156,0.1510385288553554
3.4749919999999994,8.497930288249977,0.1508448203215017
3.47734,8.516831242841395,0.1507014823088271
3.479684,8.537734298179227,0.1505304361266312
3.482028,8.55440083459875,0.1503970394089
3.484368,8.568600635420905,0.150250732049426
3.4867159999999995,8.581404635832325,0.1500738813857746
3.489064,8.59239352695243,0.1498878336284734
3.4914,8.604313583632313,0.1496931100516473
3.4937439999999995,8.620377611431891,0.1494369600614702
3.496092,8.643751194082835,0.1491033555222191
3.498432,8.666705467853202,0.148787994758023
3.500768,8.690031828675904,0.1484889499801892
3.503112,8.711308866923943,0.1482502564788452
3.50546,8.73975569039649,0.1479397927828662
3.507796,8.772486254615592,0.1475659548338322
3.51014,8.798186803237046,0.1472615887516905
3.5124879999999994,8.830312962978333,0.1468604053347885
3.514824,8.860624013428307,0.146448103298969
3.517168,8.886326457907632,0.1460551728812681
3.519512,8.912355663468919,0.1456192035269609
3.521856,8.937780464552393,0.1451503030109937
3.524192,8.965114818583665,0.1446313094602365
3.526532,8.989236367055023,0.1441617984720949
3.528884,9.017873973698412,0.1436503258686239
3.53122,9.047954602580775,0.1431384453396948
3.533568,9.076824526649643,0.1426488753766416
3.535912,9.1012709403451,0.1422299871029943
3.538256,9.121433613293997,0.1418760511655253
3.540588,9.141037207735453,0.141549133143906
3.542928,9.153331247325545,0.1412955448165807
3.54528,9.16502088243782,0.1410071928993996
3.54762,9.171682602698866,0.1407523496901045
3.54996,9.179322710347932,0.1404547745242832
3.5523039999999995,9.182726299078691,0.1401892470774454
3.554648,9.176398923331083,0.1400378896853353
3.556984,9.16928015165056,0.1398898677486232
3.559328,9.157645321798004,0.1397838702806967
3.56168,9.145823500490344,0.1397158808265653
3.564024,9.138750054780196,0.1396260644656986
3.582764,9.060084575628684,0.1395627146603575
3.585108,9.049890872157231,0.1395439273580637
3.587452,9.040396016820086,0.1394952070658344
3.589796,9.033694658162275,0.1394185355396749
3.592144,9.026946077676218,0.1393735644609025
3.594484,9.027227512787809,0.139272041446416
3.5968279999999995,9.034538963497042,0.1391156062111806
3.599172,9.04501599793795,0.1389468563218225
3.601516,9.066155162417,0.1386611882135219
3.603856,9.086735248388612,0.1383972196693912
3.606192,9.108618586972336,0.1381396589228301
3.6085439999999993,9.134413579250278,0.1378100684268764
3.610884,9.16225789410288,0.1374310195439578
3.613228,9.183584050037032,0.1371152237547929
3.6155719999999993,9.208123011531102,0.1367558492086245
3.6179159999999992,9.235595239331364,0.1363647329639059
3.620264,9.263486776012211,0.1359611437268205
3.6226,9.2895159815735,0.1355740907934501
3.624952,9.321271950120318,0.1351274626812733
3.627292,9.355541876092753,0.1346657839453025
3.629632,9.390742967624965,0.1341977461952591
3.631976,9.42808592953045,0.1337054632486171
3.63432,9.462076316249162,0.1332640078674988
3.636656,9.495787163714157,0.1328348963977705
3.638996,9.531639881552426,0.1323774811488731
3.6413439999999992,9.567260281965217,0.1319067694836834
3.643696,9.593196939727887,0.1315085660276883
3.646032,9.61410568263933,0.1311385891579225
3.6483719999999993,9.625143691445547,0.1308736652940337
3.650724,9.64246754174474,0.13053318140587
3.65306,9.661421405738006,0.1301600698835698
3.6553999999999993,9.6765108378653,0.1298265722520167
3.657743999999999,9.682101622939708,0.1296087082568741
3.660092,9.692488005439868,0.1293457238291347
3.662424,9.702455079059447,0.1290999951378239
3.664768,9.711910295999829,0.1288471129087171
3.667116,9.715638749954682,0.1286468715238624
3.669452,9.722580009469448,0.1284071248973638
3.671796,9.72845033379758,0.1281811476462556
3.67414,9.736602298125844,0.1279250435239464
3.676484,9.744521945028634,0.1276512279922667
3.678816,9.748716929692309,0.1274086219604598
3.6811599999999993,9.753191453609704,0.1271551000363237
3.683516,9.75780574715396,0.1268964545788566
3.685856,9.764841450325214,0.1266033893745142
3.6881999999999993,9.769083656817134,0.1263339069302895
3.690544,9.778633317414002,0.126030824589628
3.6928959999999993,9.790417396182765,0.125726073123145
3.695232,9.814353849056888,0.1252988762311963
3.697576,9.8321442300649,0.1249378190603137
3.699916,9.8449992440203,0.1246243512919643
3.702264,9.861578920214814,0.1242838995971224
3.704604,9.883373502715664,0.1238848373192703
3.706947999999999,9.903305754096952,0.1235020761061238
3.709287999999999,9.92207452249299,0.1231083399955992
3.711624000000001,9.93697885902305,0.1227478337787455
3.713968,9.95681856260572,0.1223420405073917
3.716308,9.977449662121307,0.1219371126872331
3.718651999999999,9.9980807616369,0.1215328397445677
3.720991999999999,10.011914162980323,0.1211875470290748
3.723336,10.023186385069888,0.1208823667748965
3.725676,10.036972564585067,0.120567620669723
3.728028,10.052201766339222,0.1202549022573369
3.730376,10.067291198466515,0.1199476724665073
3.732720000000001,10.075163623541064,0.1197139439419533
3.735059999999999,10.081406034921532,0.119512571295944
3.737404,10.085925884809305,0.1193203557705118
3.739744,10.095009014697345,0.1190721790714797
3.742087999999999,10.08993766973361,0.1189578138004431
3.744424,10.087147964770017,0.118814794384213
3.746772,10.085149655739338,0.1186698734598442
3.749112,10.076353648536491,0.1185815601710598
3.751464,10.067417871706786,0.11849816018886
3.753808,10.055129519690302,0.1184549266391134
3.756148,10.045215355472571,0.1184066995820974
3.758492,10.040888184613513,0.1183188790673988
3.763176,10.01565795841662,0.1183088070617561
3.765516,10.00490517643773,0.1182900879058082
3.767871999999999,10.002160797444509,0.1181993739725666
3.770211999999999,9.997833626585448,0.1181112548341506
3.772556,9.988059231994578,0.1180568771558516
3.774896,9.97898368553801,0.1179770696991433
3.777239999999999,9.9724693183353,0.1178592146193291
3.779584,9.972101022998702,0.1176828090980237
3.781932,9.972291806169542,0.1174859984142037
3.784267999999999,9.9744846900868,0.1172720862076331
3.786612,9.96932079732445,0.1171325858671824
3.78896,9.974027638667325,0.1169094386149266
3.791295999999999,9.979805415196836,0.1166756361896495
3.793644000000001,9.985722961353208,0.1164365036489402
3.795983999999999,9.996436104935333,0.1161602748921481
3.798332,10.007009478890597,0.1158893400790032
3.800668,10.023217068032771,0.1155520779085634
3.803011999999999,10.036770930122476,0.1152295574530933
3.80536,10.046879669226785,0.1149231937009735
3.807692,10.063414019450924,0.1145495117341576
3.810032,10.08129884411542,0.1141539651101606
3.812376,10.092665509861472,0.1138027379810979
3.814724,10.098957038928054,0.1134986126547415
3.817064,10.109112999860605,0.1131650228074897
3.8194079999999992,10.128068759711743,0.1127634948847597
3.821755999999999,10.143811714002965,0.1123953332738727
3.8241,10.156062323480551,0.1120709620666634
3.82644,10.168173163331277,0.1117536885027305
3.828783999999999,10.184288204674838,0.1114050135738325
3.831128,10.195188339712065,0.1111048534351401
3.8334639999999993,10.207438949189653,0.1107827692198289
3.835808,10.2181067668014,0.1104646922151904
3.838156,10.226912253293593,0.110158751457447
3.840500000000001,10.236928444599284,0.1098376068763137
3.842844,10.248434879972196,0.1094933186273778
3.845184,10.261571329039189,0.109120484097148
3.847524,10.275499174039094,0.1087502298334852
3.84986,10.291429119785422,0.1083651769840113
3.852204,10.309221396651305,0.1079703702642843
3.854548,10.325942738330546,0.1075881425317045
3.856888,10.344386641502489,0.1072009869975717
3.859232,10.3654842717269,0.1068020917010689
3.861576,10.385930275645258,0.1063984996106774
3.863923999999999,10.40944931549667,0.1059734178525626
3.866268,10.426310426802772,0.1055917794125931
3.868616,10.44731550922857,0.1051766902498991
3.87096,10.469671066094728,0.1047428021048654
3.873303999999999,10.49044383109505,0.1043118868405149
3.875648,10.5061414594159,0.1039212371646503
3.877991999999999,10.525331432550384,0.1034918132168181
3.880336,10.549317003110618,0.1030345572691774
3.882672,10.56994999848408,0.1026110313476519
3.885024,10.592165785723376,0.1021878575595964
3.887371999999999,10.614102033708953,0.1017748289883948
3.889712,10.632545936880891,0.1014007448124252
3.892052,10.652572631918668,0.1010292708635874
3.894392,10.667384420650109,0.1007006998013698
3.896732,10.678703864567916,0.1004089160486977
3.89908,10.686810502925807,0.1001449144232313
3.901424,10.69477737165684,0.0998864653291149
3.903768,10.701673305201234,0.0996377236871269
3.906108,10.710711109118904,0.0993717456902465
3.908448,10.723333805648828,0.099092731507838
3.910791999999999,10.72715670326017,0.098867913257885
3.91314,10.729489356804288,0.0986647727472791
3.9154839999999993,10.728469435161628,0.0984934512443154
3.917824,10.728101139825029,0.0983269295821241
3.920171999999999,10.727033996354129,0.0981829294646467
3.9225119999999993,10.725966852883229,0.0980385015878367
3.924856,10.725411566091523,0.0979033649562826
3.927204,10.724856279299823,0.0977690392968288
3.92954,10.726303093254534,0.0976214643908669
3.931884,10.725887576089695,0.0974825671639679
3.934227999999999,10.724680662991936,0.0973434584470578
3.936572,10.72575538989431,0.0971825853224835
3.93892,10.720684044930575,0.097064965793881
3.941264,10.71654386552662,0.0969428422436703
3.943616000000001,10.7158960309363,0.0967856555530007
3.945955999999999,10.72139426821209,0.0965859006298806
3.9483,10.72703227511474,0.0963824556763872
3.95064,10.731878886084472,0.0961787873045675
3.952983999999999,10.733652461121148,0.0959967251104604
3.955323999999999,10.733423935411407,0.0958276775626988
3.957664,10.740784503806754,0.0956215281923976
3.960011999999999,10.756433014441487,0.0953576189318549
3.96236,10.772361064329942,0.0950847615878963
3.9647039999999993,10.78763748791234,0.0948080462587894
3.967044,10.8025418244424,0.094517923584681
3.969388,10.819308492092016,0.0942196160314298
3.971727999999999,10.835143994181852,0.0939260105367437
3.974076,10.84711506440572,0.0936537424757462
3.976416,10.86122800500286,0.093366099235034
3.978764,10.87641188078664,0.0930704285310584
3.981104,10.89159575657042,0.0927747350058594
3.983447999999999,10.904777531607785,0.0924916997211371
3.985783999999999,10.921172112205063,0.0921835666585509
3.988128,10.937706462429205,0.0918707616214571
3.990472000000001,10.953309647093564,0.0915629214450073
3.992816,10.965979565451727,0.0912730236930432
3.995156,10.97543667824998,0.0910072677276594
3.997499999999999,10.986616352540926,0.0907387965576059
3.999839999999999,10.995793926085456,0.0904811840700076
4.002184,11.005111269256847,0.0902196187362682
4.004519999999999,11.010564180562266,0.0899777495845754
4.006867999999999,11.007868919255156,0.0897867932683353
4.009216,11.00675644981388,0.0895972653958803
4.011559999999999,11.00336234037247,0.089427460153175
4.013904,10.997686590930924,0.0892771404370221
4.016247999999999,10.991079675929598,0.0891302610952689
4.018592,10.984752300181992,0.0889747979487404
4.020935999999999,10.975491658128188,0.0888336747381327
4.02328,10.962226814581552,0.0887150878622551
4.025627999999999,10.94588893510186,0.088615322968
4.027963999999999,10.929411285995313,0.0885195251755885
4.030308,10.91186270170212,0.0884311863997902
4.032648,10.892451786289376,0.0883494598176424
4.034991999999999,10.873040870876627,0.0882674516646309
4.03734,10.853350416210164,0.0881936380158312
4.039679999999999,10.829515990424005,0.0881462293944299
4.042028,10.809685766130675,0.0880760920624374
4.044368,10.791206016277709,0.087989239876002
4.046711999999999,10.77994327347749,0.0878571160051625
4.049059999999999,10.767609595490631,0.0877323879446643
4.051396,10.756626391944131,0.0875912672098392
4.053744,10.751509721010024,0.087421680697369
4.056084,10.74695212858336,0.0872354116155636
4.058432,10.745607341716608,0.0870265353942344
4.060768,10.747335590782912,0.086798945316243
4.063108,10.750274544662716,0.0865596423202363
4.065455999999999,10.755075829662076,0.0863146975290689
4.067791999999999,10.764532942460328,0.0860532641561662
4.070136,10.776131925631857,0.0857768944902685
4.072476,10.792945815109716,0.0854679242035934
4.074824,10.81376390608041,0.0851391902641297
4.077168,10.836304558543802,0.0848080784720846
4.079511999999999,10.86350103880608,0.0844625016935387
4.081864,10.892979159068505,0.084099154418025
4.084204,10.924599149704202,0.0837230345102491
4.086547999999999,10.960083572205871,0.0833301536226004
4.088887999999999,10.993845433214844,0.0829413029124484
4.091232,11.021600991984569,0.0825834395991603
4.093567999999999,11.0452125796346,0.0822526967795726
4.095912,11.068963936911487,0.0819177637321592
4.098255999999999,11.090433654188235,0.0816013762492252
4.100603999999999,11.10510567329282,0.0813137737377114
4.102948,11.119218613889965,0.0810438638398175
4.105288,11.132120849673608,0.0807858463085045
4.107628,11.148747747696364,0.0805181321804784
4.109983999999999,11.16602627202518,0.0802566943709546
4.112328,11.18023176042094,0.0800125053183165
4.114671999999999,11.1944372488167,0.0797691257876751
4.117023999999999,11.20943413314538,0.0795279464667282
4.119368,11.22228914710078,0.0793013174735168
4.121708,11.232210894749985,0.0790877172070863
4.124051999999999,11.240549850533352,0.0788710842666571
4.126391999999999,11.24516414407761,0.078665457533389
4.128739999999999,11.250569833554785,0.0784622335151538
4.131079999999999,11.254113191912404,0.0782646895105314
4.133431999999999,11.254863053590686,0.07807454031768
4.135776,11.252400109709054,0.0779034299009819
4.138116,11.254732763253172,0.0777156707834716
4.140459999999999,11.253061215304456,0.0775452672322701
4.142807999999999,11.25218106328866,0.0773763647933935
4.145152,11.255956739071756,0.0771955226409082
4.147499999999999,11.2657387170941,0.0769879989738516
4.149839999999999,11.274217442504328,0.0767696419625748
4.152184,11.28297570716828,0.0765436413003777
4.154532,11.287217913660198,0.076326399285266
4.156872,11.292810594592478,0.0760958326307751
4.15922,11.297332340338116,0.0758710770446025
4.161564,11.30013152459106,0.0756471530323852
4.163907999999999,11.301208147351304,0.0754240607983858
4.166248,11.301353604551773,0.0752032145075589
4.168592,11.302569996938878,0.0749765877252751
4.17094,11.308442217124878,0.0747393830555911
4.173283999999999,11.314314437310877,0.0745020637569145
4.175628,11.318184556750456,0.0742737155389989
4.177968,11.31870210100326,0.0740670805314423
4.180304,11.326296882681955,0.0738308058957986
4.182639999999999,11.338035635480344,0.0735742727111337
4.184984,11.347912057159176,0.0733223239199236
4.187332,11.36272384589062,0.0730517686311262
4.189667999999999,11.3798172746222,0.0727665122866437
4.192008,11.393465580368389,0.0724826398017302
4.194352,11.402178519061964,0.0722167564258917
4.196688,11.412334479994517,0.0719589897623211
4.199024,11.42006903130007,0.0717204799013599
4.201368,11.425521942605489,0.0714969987634798
4.203719999999999,11.426411573910633,0.0713047864218421
4.206059999999999,11.43051401077569,0.0710951072398618
4.208404,11.437689483573804,0.0708724740173987
4.210744,11.446447748237754,0.070654117156704
4.213087999999999,11.458790905513956,0.0704328386041668
4.21542,11.468852422790022,0.0702271411148912
4.21776,11.476260213013614,0.070024001840539
4.220103999999999,11.48646149991654,0.0698159715846822
4.222448,11.495312312379108,0.069621190396926
4.224791999999999,11.508446865588228,0.0694038708897225
4.227131999999999,11.513433246184825,0.0692204620287341
4.229467999999999,11.51613798678128,0.0690521282713294
4.231807999999999,11.519354584056934,0.0688934538483757
4.234147999999999,11.523781886146088,0.0687261454874245
4.236492,11.526998483421742,0.0685687389916708
4.238835999999999,11.530726937376595,0.0684210354133091
4.24118,11.541392859130474,0.0682510811367078
4.24352,11.54819434901838,0.0680911928162009
4.245863999999999,11.56035051483948,0.0679048910549929
4.248208,11.57637111252655,0.0677083278576199
4.250548,11.59709475984076,0.0674795192559679
4.252891999999999,11.615676536781692,0.0672619006693619
4.255232,11.63090573853585,0.067064582124605
4.257576,11.644924235476507,0.0668765926985356
4.259919999999999,11.65521807017805,0.0666952230695847
4.26226,11.66672260969309,0.0665049588102626
4.264604,11.67887877551419,0.0663211919734027
4.266952,11.689172610215731,0.0661410074157754
4.269295999999999,11.703889955290688,0.0659371872552519
4.271635999999999,11.716325660365507,0.0657476361851126
4.27398,11.728761365440327,0.0655572122268137
4.27632,11.743338940888425,0.0653568018127393
4.278672,11.761408861150157,0.0651346281009081
4.281008,11.772122004732282,0.0649440692264121
4.283356,11.778691177194712,0.0647699599433273
4.285696,11.7866108240975,0.0645837578283029
4.288048,11.78824462950732,0.0644245468201637
4.2904,11.792951470850191,0.0642536773813103
4.292743999999999,11.794725045886874,0.0640911043825914
4.295092,11.795986764244356,0.0639191094846401
4.297435999999999,11.79468730334798,0.0637683164233133
4.299776,11.795389943198018,0.0636114838379154
4.302123999999999,11.798374223048194,0.0634413899333139
4.304459999999999,11.803919682152229,0.0632511488084558
4.306804,11.81160701162954,0.0630515257226138
4.309151999999999,11.81929434110685,0.0628521851355975
4.311484,11.826050505024382,0.0626543444973932
4.313832,11.830804568195498,0.0624622925122472
4.3161760000000005,11.83034372506028,0.0622906438226549
4.31852,11.835237557858257,0.0620960938677639
4.320855999999999,11.844135592149067,0.0618898499644215
4.3232,11.8521024608801,0.0616851458229581
4.325548,11.85499419293166,0.0614968975479856
4.327883999999999,11.868036198342162,0.0612769926916145
4.330228,11.885361944499222,0.0610385535280185
4.332568,11.90133721621592,0.0608124504487589
4.33492,11.921735998306035,0.0605648801650189
4.337256,11.945347585956066,0.060305175725962
4.339599999999999,11.967748468792596,0.0600539119774947
4.341948,11.990521438681466,0.059816687937054
4.34428,12.013573947824051,0.0595727569022004
4.346624,12.034764125847085,0.0593312091373232
4.348967999999999,12.055674764616397,0.0590976619243388
4.351308,12.071230727452512,0.0588863307434221
4.353652,12.085436215848274,0.0586869297527182
4.355991999999999,12.100433100176954,0.0584906898238728
4.358343999999999,12.114778358199574,0.0582884882866786
4.360683999999999,12.133779444021084,0.0580826682511735
4.363028,12.153991234656091,0.0578688296768366
4.365371999999999,12.166054852678576,0.0576793417242275
4.367711999999999,12.179189405887698,0.0574864645829191
4.370056,12.195257225403015,0.0572887932944641
4.372396,12.21532924641117,0.0570817135074433
4.374739999999999,12.232747540366844,0.0568753059809898
4.377079999999999,12.25002606469566,0.0566731686574333
4.379424,12.268934602718552,0.0564539317375025
4.381767999999999,12.284770104808391,0.0562441782594164
4.384108,12.295250930965038,0.0560550891765678
4.38646,12.306802692308322,0.0558621136036685
