Time,Force,Position
4.573952,7.896205786630874,0.1583878104204828
4.576291999999999,7.922416296073657,0.1581173480288567
4.578636,7.9387107454408445,0.1579415240631324
4.580979999999999,7.943039812157771,0.1579282485570881
4.585668,7.957702351973008,0.157906178650867
4.588011999999999,7.965149780593365,0.1579061549894809
4.590359999999999,7.978603511452973,0.1578084306944997
4.592696,7.992149790111197,0.1577420091556335
4.595039999999999,8.014820732912103,0.1575938960884478
4.597387999999999,8.043171216870295,0.1573987703329931
4.599724,8.076596837507958,0.157120577436622
4.602067999999999,8.1128631766532,0.156765772280921
4.604412,8.142518809081377,0.1564749101459404
4.60676,8.173664685576773,0.1561462411549583
4.609095999999999,8.196989150541604,0.1559019365949254
4.61144,8.216356635841846,0.1556859709235713
4.613788,8.229253184051883,0.1555203692282073
4.616123999999999,8.236470191104633,0.1553999195264003
4.618459999999999,8.241685097410965,0.1553125493235885
4.620804,8.25034512670269,0.1551906185820437
4.623151999999999,8.264172840472506,0.1550176502810702
4.625492,8.279583346108156,0.1548324618798509
4.627835999999999,8.294993851743806,0.1546454410878609
4.630184,8.314548328499152,0.1543926874381846
4.632527999999999,8.339829568240026,0.1540645704669217
4.634867999999999,8.368183843913956,0.1536881604634272
4.637212,8.386854376937766,0.1534155697991695
4.639564,8.39984536880429,0.1531864038775842
4.641895999999999,8.412092186566136,0.1529326232532603
4.64424,8.42303575171587,0.1526767593779905
4.64658,8.430906280932547,0.1524693968496691
4.648928,8.437613327163968,0.1522526086417852
4.651271999999999,8.444180603768526,0.1520422609831704
4.653616,8.450887649999947,0.1518272515346705
4.655963999999999,8.467138669254629,0.151522060422129
4.658299999999999,8.485996193733541,0.1512234214750377
4.660639999999999,8.508159071570988,0.1508974245879366
4.662984,8.536468021274542,0.1504798451649678
4.665331999999999,8.563473718365982,0.1500636405051112
4.667676,8.592900825084422,0.1496059300956673
4.670015999999999,8.618743039190605,0.1491883454825512
4.672355999999999,8.64742597180437,0.1487061231398967
4.6747,8.678158226992792,0.1481620589089367
4.677043999999999,8.704002336956847,0.147657041775455
4.679395999999999,8.720255252069396,0.147271089425645
4.68174,8.73515769274159,0.1469159202566111
4.684083999999999,8.75550735714559,0.1465007896973263
4.686423999999999,8.775996791176452,0.1460767574170084
4.688768,8.788897131102226,0.1457464182786333
4.691108,8.805382363640254,0.1453831924798859
4.693455999999999,8.822658992111199,0.145015692737069
4.6958,8.840307707634484,0.1446632626710215
4.698139999999999,8.859726206478706,0.1442643148190373
4.700483999999999,8.876258660844979,0.1438718246308443
4.702824,8.886692265173382,0.1435352966228543
4.705176,8.89596238651653,0.143188410685511
4.707516,8.907933456740396,0.1427862182001159
4.709868,8.91566800804595,0.14241842509415
4.712211999999999,8.917955335619695,0.1421037609558194
4.714544,8.913025656140691,0.1418892760154997
4.716887999999999,8.910470164460442,0.141663649670499
4.719239999999999,8.905213723899472,0.1414940747270745
4.721575999999999,8.901540075204341,0.1413173420433696
4.723915999999999,8.89092895871018,0.1412263886878253
4.72626,8.888838101880886,0.1410410574684347
4.728603999999999,8.888609576171145,0.1408365964858798
4.730939999999999,8.890383151207823,0.1406073308845212
4.733283999999999,8.898861876618053,0.1402736997950969
4.735631999999999,8.908271767588062,0.1399286765877666
4.737971999999999,8.91181512594568,0.1396542708572258
4.740311999999999,8.916429419489935,0.1393648620138761
4.742656,8.921183482661052,0.1390696870435726
4.745004,8.92486661064553,0.1387909524096599
4.74734,8.927571351241985,0.1385537315211511
4.749684,8.931998653331139,0.1383038627437526
4.752032,8.943595740644797,0.1379939288610536
4.754368,8.95156071351796,0.1377481338456017
4.756715999999999,8.95882683825682,0.1375318085617973
4.759055999999999,8.967396215607799,0.1373190894057439
4.761396,8.981552586317445,0.1370504695949088
4.763736,8.995988496280814,0.1367719796922964
4.766076,9.015918851804235,0.1364148051837847
4.768428,9.027328947662792,0.1361440260229986
4.770776,9.050192569492408,0.1357510817592085
4.773119999999999,9.068400363523132,0.1354059709612761
4.775464,9.086747927180715,0.1350576584687584
4.777807999999999,9.106166426024936,0.1346985460904565
4.780144,9.116598134495472,0.1344748311179044
4.782487999999999,9.128472865204984,0.1342503280186393
4.784827999999999,9.145794819646303,0.1339794010533626
4.787172,9.16483933558032,0.1336990250466681
4.789515999999999,9.182952685954556,0.1334275329038694
4.79186,9.199436022634716,0.1331935680706449
4.794207999999999,9.216850524874657,0.1329502045528842
4.796552,9.235987588607289,0.1326970757351473
4.7989,9.246883931928776,0.1325177134907196
4.801243999999999,9.26220378562368,0.1322771212080691
4.803588,9.274310833758664,0.1320773039268984
4.805931999999999,9.292284414506044,0.1318155480137285
4.808275999999999,9.30681287226803,0.1315772479871741
4.810616,9.3193392292836,0.1313626055815544
4.812959999999999,9.325300205552471,0.1312388586221736
4.815308,9.340013758911692,0.131052775818306
4.817648,9.350303801897496,0.1309301675725155
4.819991999999999,9.363247571935776,0.1307885731514748
4.822336,9.374980637160556,0.1306673735520712
4.824679999999999,9.381359026452143,0.130615581084962
4.827027999999999,9.393883487609845,0.130491788356909
4.829364,9.409341215073736,0.1303384395858765
4.831712,9.42070219324618,0.1302045980044639
4.834059999999999,9.427686882873452,0.1301006722797926
4.836395999999999,9.43639413399342,0.1299863245883812
4.838735999999999,9.448174421046444,0.1298369487018897
4.84108,9.45916331216655,0.1296897668249892
4.843432,9.469500576980598,0.1295409152015772
4.845772,9.481700172914204,0.1293759517218303
4.848115999999999,9.491198819967089,0.1292610831741633
4.850467999999999,9.506983308512948,0.1290709128301195
4.852803999999999,9.520253839633188,0.1288953550320385
4.855148,9.53552647149985,0.1286990485496064
4.857503999999999,9.55187003855315,0.12849019749377
4.85984,9.572497346353003,0.1282288168645997
4.862191999999999,9.59224071042132,0.1279471112945628
4.864531999999999,9.6098894259446,0.127661158731564
4.86688,9.62516395366913,0.1273828217029193
4.869216,9.638995459154682,0.1271039576675858
4.871559999999999,9.657110705386788,0.1267732751618739
4.873908,9.672432454939562,0.1264664075599254
4.876247999999999,9.687521887066856,0.1261430450815155
4.878591999999999,9.703542484753928,0.1258125752991848
4.880936,9.72100610467998,0.1254827200018793
4.883275999999999,9.740751364606169,0.1251246751084073
4.885612,9.758913832666517,0.1247723247643619
4.887955999999999,9.779637479980725,0.124379686511843
4.890295999999999,9.794913903563122,0.1240253338636094
4.89264,9.807257060839326,0.1236972753019108
4.894979999999999,9.816434634383857,0.1233767093531286
4.897323999999999,9.821747776062413,0.123091111978351
4.899668,9.822265320315218,0.1228467578611266
4.902007999999999,9.822131238261964,0.1225995287628153
4.904351999999999,9.819343429156238,0.1223686470601303
4.906696,9.814553519304097,0.1221578824005294
4.909035999999999,9.81041523575801,0.1219510534629151
4.911379999999999,9.80907044889126,0.1217229082784774
4.91372,9.809587993144069,0.1214808565996558
4.916063999999999,9.810896933329788,0.1212369757748096
4.918408,9.80834144164954,0.1210264599234357
4.920755999999999,9.808998755529206,0.1207798336303732
4.923091999999999,9.806583033475816,0.120564736720718
4.925436,9.803887772168704,0.1203600791935163
4.927779999999999,9.802682754928814,0.1201281595775766
4.930123999999999,9.795471435449672,0.1199525314135169
4.932464,9.786397784850973,0.1197901270093663
4.934804,9.77504249425214,0.1196564770878115
4.937151999999999,9.766061391452055,0.1195176908705179
4.939492,9.76201565570459,0.1193345471028443
4.941835999999999,9.760623647009592,0.1191358640362791
4.944179999999999,9.765098170926988,0.1188870415946119
4.946524,9.777161788949472,0.1185798438074202
4.948875999999999,9.787874932531595,0.1182949774319888
4.951212,9.800962263912474,0.1180055510096947
4.95356,9.812047494546936,0.1177342549269418
4.955907999999999,9.818988754061705,0.1175053831684545
4.958243999999999,9.823788143203194,0.1173003746796791
4.960583999999999,9.8293789282776,0.1170948888907435
4.962928,9.835109482978869,0.1168845643227844
4.965271999999999,9.842562599172831,0.1166659958865143
4.96762,9.847454536112942,0.1164868590306584
4.969963999999999,9.85192716417247,0.1163228482749433
4.972311999999999,9.857610497045496,0.1161425188859994
4.974648,9.86287452103794,0.1159781634298277
4.976991999999999,9.873073912082996,0.1157716379807298
4.979343999999999,9.885927030180529,0.1155512032890584
4.981679999999999,9.902504810517174,0.115306376963983
4.984019999999999,9.92429749716015,0.1150113717048702
4.986364,9.94394831342985,0.114740363945886
4.988712,9.965601230445966,0.1144533866767323
4.991047999999999,9.980316679663057,0.1142256224417462
4.993392,9.989025826640894,0.1140503774852758
4.995747999999999,9.999876843992007,0.1138532688907384
4.998095999999999,10.010355774290788,0.1136428794365672
5.000435999999999,10.025909841269035,0.1133882004292358
5.00278,10.04495625306092,0.1130909363631757
5.005132,10.065213369666305,0.1127779044621548
5.007467999999999,10.081606054405713,0.1124941606940758
5.009815999999999,10.097719199891404,0.112220803948626
5.012167999999999,10.11704515093701,0.1119165992568148
5.014503999999999,10.13571947567656,0.1116083007430755
5.016848,10.15360240448319,0.1112999256019868
5.019191999999999,10.169343462916542,0.1110137536515273
5.02154,10.18243079429742,0.1107403043663124
5.023883999999999,10.192584859372104,0.1104901753157055
5.026231999999999,10.20087659332723,0.1102520379137817
5.028575999999999,10.20651460022988,0.1100274658657135
5.030916,10.20721724007992,0.1098422194462935
5.033259999999999,10.20927035437032,0.1096370307951924
5.035603999999999,10.208250432727665,0.1094588012848736
5.037955999999999,10.2118863388839,0.1092522858457043
5.040291999999999,10.217664115413411,0.1090244232334979
5.042639999999999,10.2231623526892,0.1088069739636573
5.044984,10.227449885151492,0.10860490733934
5.047327999999999,10.226522511307454,0.108450336090219
5.049671999999999,10.223825354142472,0.1083304367288636
5.052016,10.223921693656829,0.1081944672933596
5.054359999999999,10.2260201339176,0.1080425716285163
5.056699999999999,10.228258343805232,0.107885963274076
5.059051999999999,10.226632121826894,0.1077562399243822
5.061396,10.224866130221692,0.1076311196910468
5.063735999999999,10.22910644085574,0.107459812365512
5.066075999999999,10.235348852236209,0.1072731851353245
5.068427999999999,10.244384760296011,0.1070705855385075
5.070763999999999,10.255422769102228,0.1068529563761846
5.073103999999999,10.268183339401142,0.1066297470852594
5.075443999999999,10.279733204886558,0.1064214313738658
5.077791999999999,10.290863761491392,0.1062270112710342
5.080128,10.29971267809609,0.106057807334199
5.082471999999999,10.30763042914101,0.105893420938069
5.084819999999999,10.312894453133454,0.1057404170693027
5.087156,10.31801870749904,0.1055923110341762
5.089504,10.321420400371927,0.1054500374595816
5.091844,10.327475820297291,0.1052971481625399
5.094192,10.33674404578257,0.1051143803198994
5.096535999999999,10.34536064496179,0.1049270989938292
5.098875999999999,10.34876233783468,0.1047851054697528
5.101224,10.350953325894071,0.104657725415732
5.103575999999999,10.351002443580184,0.1045500562734577
5.105915999999999,10.350492482758854,0.1044612812606632
5.10826,10.353707184176638,0.1043519741201595
5.1106,10.352638144847868,0.1042826316196481
5.112936,10.35049817033246,0.1042231735100664
5.115276,10.348078656563333,0.1041732102241516
5.117619999999999,10.3461709994734,0.1041323712613395
5.119959999999999,10.346265443129887,0.1040770178457699
5.122304,10.351155484212123,0.1039925182585722
5.124647999999999,10.35846693492136,0.1038796564066076
5.126992,10.366569781563514,0.1037664248651639
5.129332,10.378397290444784,0.1036336097301565
5.131672,10.393018296005383,0.1034865634832689
5.13402,10.409501632685542,0.1033303435856546
5.136363999999999,10.428638696418176,0.1031646918577347
5.138707999999999,10.445773659404392,0.1030138724189038
5.141048,10.46048721276361,0.1028912858152644
5.143391999999999,10.47613193168261,0.1027638713116758
5.145731999999999,10.4988538880275,0.102585350947433
5.14808,10.52450911067858,0.102388313181708
5.150423999999999,10.55724157075555,0.1021412892461396
5.152768,10.59104496601916,0.1018844032290256
5.155107999999999,10.622194634230294,0.1016387534082934
5.157451999999999,10.654415237628063,0.1013843741646466
5.159796,10.686635841025836,0.1011303373552427
5.162132,10.71913598367733,0.1008682927936447
5.164479999999999,10.749913564836124,0.1006119160270178
5.166824,10.77575577894231,0.1003883668741274
5.169167999999999,10.79852495711544,0.1001893055723565
5.171512,10.820874826407987,0.1000045831294298
5.173852,10.844435400514037,0.0998068801964253
5.176191999999999,10.868275513873806,0.0996018381503091
5.178528,10.887180260180962,0.0994280280604672
5.180876,10.904502214622282,0.0992550659744161
5.183223999999999,10.919170442011126,0.0990914135277184
5.185568,10.93532891346719,0.0989062096847748
5.187911999999999,10.952977628990476,0.098698877184477
5.190256,10.973978919700537,0.0984622323256509
5.192596,10.986320181118868,0.0982739681577013
5.194932,10.999360290671504,0.0980652030118443
5.197279999999999,11.003600601305552,0.0979081580206736
5.199627999999999,11.009470925633682,0.097725505892212
5.201963999999999,11.016412185148448,0.0975347553908423
5.204307999999999,11.022841587984018,0.0973356000157071
5.206652,11.029690299700167,0.0971237240149313
5.208991999999999,11.033885284363842,0.0969199032590809
5.211335999999999,11.035286772348185,0.0967279513687323
5.21368,11.038318274026604,0.096509828966538
5.216028,11.03711325678671,0.0962988073761971
5.218363999999999,11.035675922121342,0.0960704686905481
5.220708,11.033586961149917,0.0958378639101828
5.223059999999999,11.028564733872292,0.0956219773982532
5.225403999999999,11.03075951364742,0.0953566928953884
5.227744,11.03709826454224,0.0950640752432945
5.230087999999999,11.04651005137012,0.094751796273533
5.232427999999999,11.053919737451578,0.09445208913241
5.234772,11.065333625025872,0.0941302054574145
5.237115999999999,11.07288308073419,0.093829039819397
5.239471999999999,11.08485604681592,0.0934909491408813
5.241819999999999,11.093616207337735,0.0931778394976611
5.244164,11.10652033897925,0.0928362656138769
5.246507999999999,11.119424470620762,0.0924962609548836
5.248859999999999,11.132747911142854,0.0921451399522618
5.251196,11.14541972535889,0.0917898561111727
5.253544,11.158231309201785,0.0914312169711237
5.255879999999999,11.178259900097432,0.0910291868948941
5.25822,11.20285177099335,0.0905883976154216
5.260563999999999,11.233310174501655,0.0901221891297152
5.262908,11.269914649876078,0.0896196742841507
5.265248,11.307450290810277,0.0891162528705814
5.267591999999999,11.344194535811557,0.0886133310405137
5.26994,11.378564593014085,0.0881068498102954
5.272283999999999,11.407347656857938,0.0876230670575051
5.274628,11.42840185696985,0.0871751386492417
5.276971999999999,11.445871164469503,0.0867371680000753
5.279316,11.467624212715716,0.0862722423113831
5.281663999999999,11.482859102043475,0.0858309757511946
5.283996,11.499164926557876,0.0853831401224762
5.286344,11.517053542938111,0.0849391978538563
5.288696,11.535221698572071,0.0844873208243924
5.291036,11.557533825325724,0.0840144974537562
5.293384,11.5789147865196,0.0835463952530049
5.295727999999999,11.596151776593778,0.0831022049198036
5.298072,11.6132489970411,0.0826624425314438
5.300419999999999,11.63020644786156,0.0822276662189609
5.302764,11.638084560509713,0.0818394829801342
5.305116,11.64261009797109,0.0814758078585832
5.307452,11.637125131700383,0.0811596655450544
5.309792,11.627496194309982,0.0808662828904317
5.312144,11.615213529867106,0.0805767455087538
5.314487999999999,11.603862030984011,0.08028431615904
5.316827999999999,11.598097525459584,0.0799758630605564
5.319172,11.59405558142785,0.0796658668369272
5.32152,11.590525494075315,0.0793635197677183
5.32386,11.58885773784234,0.0790558254205776
5.326207999999999,11.581975075303031,0.078776975020343
5.328548,11.57867730537598,0.0784917266528778
5.330891999999999,11.5750999961952,0.0782144865643083
5.333235999999999,11.56793779440217,0.0779432919346162
5.33558,11.562637923728698,0.0776673754541565
5.337923999999999,11.549189880442698,0.0774300001130789
5.340259999999999,11.537743937903114,0.0771842504163439
5.342604,11.530441966483226,0.0769172601366139
5.344956,11.52071858543634,0.0766696095106511
5.347299999999999,11.510203808456536,0.0764201591818709
5.349644,11.504764168156203,0.0761472463991151
5.351984,11.501885707109729,0.0758502951556485
5.354327999999999,11.506084483489142,0.0755219043813679
5.356663999999999,11.512145590988112,0.0751890144936188
5.359015999999999,11.518066928860222,0.0748595436325625
5.361355999999999,11.523848497105472,0.0745344749751251
5.3637,11.528838669417809,0.0742091127345716
5.366043999999999,11.534108380983858,0.0738766387451528
5.368388,11.544872538109964,0.0735111825555664
5.37074,11.555776464862932,0.0731427792917377
5.373075999999999,11.568822261989174,0.072762784369622
5.375423999999999,11.578003627249444,0.0723944359238912
5.377775999999999,11.585462431017016,0.0720260596325733
5.380115999999999,11.592501925904008,0.071668411824278
5.38246,11.59847048560436,0.0713173777577095
5.384803999999999,11.611656052357464,0.0709344181372098
5.387155999999999,11.616413907244317,0.0705922989324453
5.389491999999999,11.62168361881037,0.0702611091565838
5.39184,11.632168236682752,0.0699057134994825
5.394188,11.64223354567456,0.0695616519056674
5.396523999999999,11.650529071345424,0.0692428461693045
5.398868,11.657846209628266,0.0689511014132715
5.401211999999999,11.662602168657251,0.0686825352660985
5.403559999999999,11.6662871924996,0.068419543232787
5.405911999999999,11.67206686488698,0.0681703224755199
5.408256,11.67756699802064,0.067928910738585
5.410608,11.681437117460222,0.0677084112610875
5.412948,11.68661048951192,0.0675003089045436
5.415291999999999,11.688151747123122,0.0673198023534932
5.417651999999999,11.6899253221598,0.0671566496886151
5.42,11.68913771794262,0.0670150356405151
5.422343999999999,11.692726402270612,0.0668731301446607
5.424688,11.700691375143776,0.0667313589106907
5.42704,11.712520779882912,0.0665800949665457
5.429383999999999,11.72299971018169,0.0664415703882117
5.431732,11.727704655666692,0.0663403481954886
5.434083999999999,11.740278234510503,0.0662159212591198
5.436427999999999,11.74777667667484,0.0661099855556959
5.438772,11.75578697551838,0.0660143932436455
5.441115999999999,11.766590771041248,0.0659147835315
5.443467999999999,11.77795364507156,0.0658006533659108
5.445812,11.79117885022143,0.0656840397300162
5.44816,11.80468359462502,0.0655603162501114
5.450507999999999,11.818700195707809,0.0654462689362372
5.452848,11.830994235297895,0.0653313580992102
5.455191999999999,11.841146404514712,0.0652264166796282
5.457531999999999,11.853440444104802,0.0651118155855175
5.459871999999999,11.86079911664228,0.0650112776835419
5.462211999999999,11.873232925859233,0.0648935972933131
5.464556,11.883524864702906,0.0647858656111334
5.466904,11.892745868359942,0.0646826099436717
5.469239999999999,11.901315245710917,0.064573814142526
5.471584,11.905089025636146,0.0644754289108043
5.473936,11.907652100747873,0.0643859347973021
5.476272,11.911006571792512,0.0642987286245293
5.478612,11.917573848397073,0.0641966919692729
5.480955999999999,11.92334972906872,0.0640927227536048
5.4833,11.935131911979614,0.0639704140601361
5.485631999999999,11.941047562278117,0.0638629751177424
5.487976,11.946171816643702,0.0637535867828796
5.490331999999999,11.949666057315207,0.0636634479320458
5.492676,11.95451077242707,0.0635618182599958
5.495016,11.956934077911937,0.0634768384875652
