Time,Force,Position
5.633087999999999,5.720592105316544,0.1620282948875089
5.635432,5.726039329048354,0.1619358977709697
5.637768,5.742660539497504,0.1616435341173194
5.640108,5.766079448118822,0.1612081309809965
5.642451999999999,5.796807911591506,0.1606336622067893
5.644791999999999,5.829258936556888,0.1600393426810664
5.647136,5.869718364507935,0.1592897953809247
5.649479999999999,5.919257130631289,0.1583366688553321
5.651824,5.969634514515805,0.1573208243413054
5.654156,6.0104679253770605,0.1564501623839436
5.656499999999999,6.043712242133228,0.1557339761531527
5.65884,6.075745854075898,0.1550537798312364
5.661187999999999,6.107779466018567,0.1543657799251939
5.663532,6.140744243521015,0.1536601672139705
5.665875999999999,6.169192962851431,0.1530263482009141
5.668227999999999,6.200015869980603,0.1523733576703453
5.670563999999999,6.21891872042989,0.1520265217175161
5.741807999999999,6.253458706366697,0.151795466603692
5.744187999999999,6.249968257410931,0.1517555432391714
5.746592,6.247688513268663,0.1516822395481873
5.74898,6.2416841068872815,0.1516707407086117
5.75136,6.241778550543767,0.1515776318983572
5.753764,6.241640676774777,0.151456628959392
5.756152,6.236846975206896,0.1514107772162082
5.758531999999999,6.230330712146316,0.151385131764671
5.760928,6.227958420205432,0.151275295709609
5.763311999999999,6.223956114570466,0.1512228118052165
5.765692,6.225960111174752,0.1510567097529554
5.768091999999999,6.235460654085508,0.1507322873281411
5.770476,6.249244937742817,0.1503161371640701
5.77286,6.260468042146269,0.149967921547811
5.775264,6.283424211774502,0.1494070249964307
5.777647999999999,6.306659920656455,0.1488351962648425
5.780028,6.333947052859487,0.148146728175787
5.782423999999999,6.368451192115266,0.1473207704279062
5.784811999999999,6.405888597677241,0.1464375904389422
5.787191999999999,6.43438643469377,0.1457191233273096
5.789588,6.464374515777518,0.1449538432577753
5.791976,6.487145589808517,0.1443341918587235
5.794371999999999,6.507774793466239,0.1437615251122266
5.796768,6.5329200552959925,0.1431265528942475
5.799156,6.554480424513492,0.1425453240935429
5.801535999999999,6.572548448917355,0.1420501495978222
5.803932,6.5896853077614415,0.1415690671153544
5.80632,6.602398656232112,0.1411826135296509
5.808703999999999,6.61068849432937,0.1408956686241153
5.8111,6.625264173919597,0.1404837465158142
5.813483999999999,6.635463564964653,0.140127098959953
5.815868,6.63365035153121,0.1399838218713054
5.818263999999999,6.629275958843907,0.1399089238586784
5.820651999999999,6.63449276100811,0.1396841028915903
5.823032,6.636404209813778,0.1394900872942072
5.832607999999999,6.614947763542109,0.1393320331565322
5.834996,6.614949659399981,0.1392098188404929
5.83738,6.616022490444489,0.1390679567497206
5.839775999999999,6.622170458168468,0.1388402195905149
5.842164,6.631251692198644,0.1385684307987631
5.844543999999999,6.638610364736123,0.1383147226417688
5.84694,6.646108806900462,0.1380535552243228
5.849328,6.660032860184631,0.1376761701281633
5.851708,6.678612741267692,0.1372427672293711
5.854108,6.702267759030227,0.1367237547179985
5.856496,6.727273251233121,0.1361685552916488
5.858875999999999,6.746412210823624,0.1357014684665962
5.861272,6.766202796720183,0.1352383634672953
5.863659999999999,6.794513642281609,0.1346565746818206
5.86604,6.827899624522507,0.1339969800609489
5.868435999999999,6.8555588437778745,0.133425569127664
5.870823999999999,6.878934322286689,0.1329309597200613
5.873208,6.903380735982139,0.1324221710928834
5.875603999999999,6.930620646356927,0.1318776538442861
5.877991999999999,6.96121313191849,0.13126729222691
5.880388,6.98714978968116,0.1307143690074995
5.882783999999999,7.00680060595086,0.1302719587907951
5.885171999999999,7.0223074511008665,0.1298989334905
5.887552,7.031807994011622,0.1296161129151
5.889948,7.038375270616183,0.1293759678106436
5.892336,7.043871612034105,0.1291547203446806
5.89472,7.04787770938481,0.1289750444583675
5.897115999999999,7.04559796524254,0.128901925564697
5.899504,7.038522623674522,0.1288916960543945
5.901883999999999,7.033309613226058,0.1288590345108094
5.904283999999999,7.029958933897153,0.1288045688298975
5.906668,7.037549923860109,0.1285969904200734
5.909051999999999,7.04821394975612,0.1283450557388692
5.911448,7.059297284532711,0.1280750735503967
5.913836,7.065724791510411,0.1278579893794859
5.916216,7.070150197741694,0.1276677093881888
5.918619999999999,7.077369100652314,0.1274459096808713
5.921007999999999,7.081514967629876,0.1272697741597291
5.923387999999999,7.083146877181825,0.1271094300067668
5.925787999999999,7.082217607479917,0.1270054609658215
5.928175999999999,7.088225805577036,0.1268098668929164
5.93056,7.097586578860931,0.1265552011522353
5.932955999999999,7.106947352144828,0.1262986775984952
5.935343999999999,7.120591866175277,0.1259704589078762
5.937719999999999,7.134096610578866,0.1256485003927996
5.940116,7.147601354982454,0.1253257076887412
5.983139999999999,6.90940634603706,0.125238565610204
5.985527999999999,6.8954879803264975,0.1252298898069817
5.987904,6.882361010548853,0.1252186539849452
5.9903,6.880547797115409,0.1250819073384353
5.992687999999999,6.878455044428244,0.1249591262460898
5.995068,6.877013918047137,0.1248408873608508
5.997463999999999,6.882510259465059,0.1246311713461873
5.999848,6.890148471256257,0.124387503431577
6.002243999999999,6.906446712339181,0.124038148353696
6.00464,6.923815888608744,0.1236695197236868
6.007024,6.942116230438085,0.1232906068717215
6.009407999999999,6.956552140401453,0.1229594935676019
6.011804,6.974572942977075,0.1225963786931022
6.014192,6.993385141485614,0.1222327227488941
6.016572,7.0154101455540685,0.121816712639178
6.018976,7.034501883316328,0.1214394874431008
6.02136,7.056247348131062,0.1210439564995519
6.02374,7.086932381491241,0.1205341600729889
6.026144,7.119200206717257,0.1200234240609373
6.028528,7.145461729704023,0.1195981310666251
6.030908,7.167346964145617,0.1192091447297061
6.033303999999999,7.193236400080045,0.1187744067823594
6.035691999999999,7.22140747601461,0.1183032511689249
6.038067999999999,7.243200162657588,0.1178939074424561
6.040464,7.269556129300841,0.1174086708348233
6.042852,7.297402340011311,0.1168892485339196
6.045244,7.319382018109392,0.1164375592497253
6.04764,7.34215309214039,0.1159880802252256
6.050027999999999,7.359476942439579,0.1155841020290668
6.052408,7.378802893485186,0.1151569079421779
6.054803999999999,7.3951955782245955,0.114760330602138
6.057191999999999,7.413869902964143,0.1143251677800634
6.059588,7.428819565464578,0.1139248655571998
6.061983999999999,7.443629458338154,0.1135334290841063
6.064368,7.458579120838587,0.1131375640685618
6.066751999999999,7.4756706537123,0.1127121864669719
6.069148,7.491179394720176,0.1122940861605005
6.071532,7.499610898302163,0.1119626202564411
6.073912,7.505248905204815,0.1116561466971677
6.076316,7.5106073728537455,0.1113624160189821
6.078704,7.514615366062317,0.1110960231531752
6.081083999999999,7.513548222591417,0.110891274158103
6.08348,7.509268273560601,0.1107307208550942
6.085868,7.507502281955402,0.1105599067321565
6.088251999999999,7.504246046282981,0.1104239686859197
6.090643999999999,7.500710271356841,0.1103014232135277
6.093031999999999,7.504111964229728,0.1101059842755462
6.095428,7.503649225236643,0.1099476419698519
6.097832,7.510915349975504,0.1097168314237418
6.100216,7.520183575460782,0.1094667221071792
6.102596,7.534387167998673,0.1091665940727867
6.104999999999999,7.552315422775677,0.1088404366556896
6.107384,7.576110210165071,0.10846021184768
6.109764,7.60297803348752,0.1080504530118144
6.112167999999999,7.628495382369611,0.1076683493237506
6.114556,7.651731091251564,0.1073200778108859
6.116935999999999,7.67254539050652,0.1070120074536988
6.119339999999999,7.695222020881032,0.1066887998103977
6.121727999999999,7.718038420882405,0.1063587965721313
6.124103999999999,7.742717152003334,0.1060147476931239
6.126507999999999,7.773541954990375,0.1056059742837606
6.128895999999999,7.805297923537194,0.1051901100228578
6.131276,7.841197863203706,0.1047302169338418
6.13368,7.87737734212394,0.1042627364775141
6.136063999999999,7.911414950670895,0.1038214231935126
6.138448,7.94517301996413,0.1033949175849724
6.140844,7.974647348510812,0.1030243589720399
6.143231999999999,8.005844238550191,0.1026455597813732
6.145612,8.02982412153682,0.1023468841613151
6.148016,8.047657932657337,0.102112754314501
6.150399999999999,8.064420808591215,0.1018930454660802
6.15278,8.074246216726065,0.1017376980740627
6.15518,8.081138358554721,0.1016091930941043
6.157563999999999,8.081093032584347,0.1015432351333615
6.159948,8.081327245867692,0.1014652269000292
6.162352,8.085705430270734,0.1013445441917572
6.16474,8.093016880979969,0.1011994986990974
6.167119999999999,8.100607870942925,0.1010426112905447
6.169516,8.110852587958355,0.1008737704818805
6.171899999999999,8.121656383481227,0.1006820396039314
6.17428,8.13031830863082,0.1005164839986032
6.176675999999999,8.140051168967053,0.100339645441536
6.179064,8.14792169818373,0.1001761185758677
6.181443999999999,8.152719191467353,0.1000421446001256
6.18384,8.163011130311025,0.09984562363453
6.186223999999999,8.172511673221782,0.0996493941616925
6.188604,8.182151985759399,0.0994474745378861
6.191008,8.192863233483653,0.0992345094435842
6.193396,8.206787286767822,0.0989869823870285
6.195775999999999,8.225926246358327,0.0986878414596154
6.198172,8.247207076322104,0.0983685871920543
6.200555999999999,8.272352338151858,0.0980202863999055
6.202935999999999,8.294284794421694,0.0977058588811483
6.205328,8.320081682557506,0.0973622741590135
6.207711999999999,8.344947405133539,0.0970247088450421
6.210108,8.365948695843597,0.0967173934232299
6.212512,8.381362993194987,0.0964428841395799
6.2149,8.401712657598988,0.0961325949503056
6.217276,8.42248163088357,0.0958081019733616
6.219671999999999,8.441620590474074,0.0955183946984438
6.222056,8.456755348571741,0.0952616727042845
6.224451999999999,8.468817070736355,0.0950321497716884
6.226844,8.479807857714329,0.0948144732674614
6.229232,8.48879654394589,0.0946119506083427
6.231612,8.48856612237828,0.0944911453235058
6.234007999999999,8.488615240064393,0.0943590751072659
6.236392,8.486802026630949,0.0942372777852514
6.238788,8.484476956518305,0.0941038676582034
6.241183999999999,8.482291656032524,0.093965117536037
6.243572,8.479175189986965,0.0938319157607127
6.245951999999999,8.47219429207543,0.0937246427974961
6.248355999999999,8.465492933417618,0.0936062842349999
6.250739999999999,8.464425789946718,0.0934244397892584
6.253119999999999,8.463777955356399,0.0932265222765022
6.255523999999999,8.466854783005193,0.0930098479508094
6.257911999999999,8.470583236960046,0.0927992229634736
6.260287999999999,8.480969619460206,0.0925493144038548
6.262692,8.483487368601558,0.0923551335415782
6.265079999999999,8.482792312182994,0.0921919598211221
6.267455999999999,8.482656334271875,0.0920069658151421
6.269852,8.486664327480446,0.0917869615202346
6.272236,8.492814191062296,0.091546240318882
6.274616,8.498964054644146,0.091305832748511
6.277008,8.510189054905467,0.0910256963121468
6.279396,8.528491292592678,0.0906900113160183
6.281791999999999,8.546653760653028,0.0903606640462581
6.284196,8.566818329459792,0.0900161264593619
6.286579999999999,8.58670335901284,0.0896836531304397
6.288959999999999,8.603515352632833,0.089376159272219
6.291364,8.618185475879546,0.089089349671066
6.293752,8.63285559912626,0.0888023216027978
6.296132,8.646315017559477,0.0885316762464321
6.298536,8.654279990432638,0.0883171152455074
6.30092,8.659963323305663,0.088128118581394
6.3033,8.662992929126215,0.087947838170635
6.305691999999999,8.66937511013354,0.0877339586197937
6.30808,8.676176600021448,0.0875061811633261
6.310459999999999,8.684980190655772,0.0872637302647502
6.312863999999999,8.696996586850014,0.0869934902706217
6.315247999999999,8.710083918230891,0.0867149635752645
6.317627999999999,8.721308918492214,0.0864460600379391
6.320024,8.734536019499952,0.0861650488024875
6.322407999999999,8.745621250134413,0.0859021974290304
6.324788,8.754704380022458,0.0856537780641106
6.327192,8.760994013231166,0.085418044777631
6.32958,8.768075042372793,0.0851841285104893
6.331959999999999,8.779160273007253,0.0849260239343659
6.334356,8.79224760438813,0.0846563058744878
6.336744,8.808407971702065,0.0843650116068839
6.339136,8.825779043829497,0.0840597792224576
6.34154,8.845152216703346,0.0837426339168746
6.343928,8.863594224017419,0.0834291418573262
6.346307999999999,8.885388806518264,0.0830840046431966
6.348699999999999,8.910396194579027,0.0827136664540463
6.351087999999999,8.933401481893373,0.0823558867483183
6.353468,8.953473502901522,0.0820168050552457
6.35586,8.967399452043558,0.0817206476663005
6.358243999999999,8.982396336372238,0.081416092815935
6.36064,8.993249249581224,0.0811415966883524
6.363044,9.005964493909763,0.0808623645249251
6.365432,9.017608803051663,0.0805918587104981
6.367808,9.025388680327596,0.0803404995823024
6.370211999999999,9.03745229835008,0.0800557947832865
6.3726,9.050726621186062,0.079758693263012
6.374979999999999,9.065863275141597,0.0794557295302365
6.377383999999999,9.07955690685816,0.0791448766673469
6.379768,9.091667746708886,0.0788338409182455
6.382147999999999,9.101916255440054,0.0785304442789983
6.384551999999999,9.113095929731005,0.078225621414204
6.386939999999999,9.12427560402195,0.0779214383230763
6.389315999999999,9.132661781633564,0.0776265667153853
6.391719999999999,9.142398433685536,0.0773140928629305
6.394107999999999,9.151995316110646,0.0770079045201599
6.396483999999999,9.158658932229564,0.0767162853120811
6.39888,9.168255814654676,0.0764112664253936
6.401268,9.173848495586954,0.0761265399261562
6.403647999999999,9.18158304689251,0.0758253233020822
6.406044,9.19024876375784,0.0755221270170266
6.408427999999999,9.199985415809811,0.0752104617279712
6.410807999999999,9.205857635995809,0.0749162117916865
6.413212,9.214011496181945,0.0746023864005901
6.4156,9.224307226741354,0.0742732182111633
6.41798,9.23381156136785,0.0739439003729832
6.420384,9.241313795247928,0.0736253684050745
6.422772,9.248816029128005,0.0733080453208905
6.425151999999999,9.254036623007943,0.0730094280423548
6.427548,9.252831605768051,0.0727549009388111
6.429931999999999,9.247622387035332,0.0725193662458744
6.432312,9.238828275690352,0.0722890989233763
6.434716,9.230034164345376,0.0720587644344512
6.437099999999999,9.22589588079929,0.0718163612667209
6.43948,9.220546892439703,0.0715858447849697
6.441884,9.213195803333702,0.071364942998442
6.444272,9.20649634053376,0.0711510412641345
6.446652,9.200728043293594,0.0709353923386667
6.449048,9.200826278665817,0.0706958769201652
6.451435999999999,9.202786845157595,0.0704520024880176
6.453828,9.202745310902962,0.070217654469729
6.456232,9.20670797814116,0.0699655994682925
6.45862,9.20945994056586,0.0697247154788918
6.460996,9.207788392617148,0.0695161725466011
6.4634,9.207839406161128,0.069308628079098
6.465783999999999,9.202675513398775,0.0691303035758379
6.468164,9.20030511731576,0.0689458448565676
6.470568,9.198865886792523,0.0687599592542038
6.472956,9.202362023321898,0.0685543385796915
6.475335999999999,9.210793526903888,0.068328488824581
6.477739999999999,9.22602272865804,0.0680790059200804
6.480124,9.24269495265117,0.0678396548864664
6.482503999999999,9.26029834220408,0.0675993172241669
6.484907999999999,9.275108235077656,0.0673664004033816
6.487295999999999,9.293922329444062,0.067117692489902
6.489675999999999,9.313667589370247,0.066867328629323
6.49208,9.331830057430595,0.066611351808527
6.494463999999999,9.346267863251835,0.0663635557165866
6.496843999999999,9.35898310758038,0.0661160444571925
6.49924,9.37076718634914,0.0658711764985083
6.501628,9.385484531424096,0.0656171871582279
6.504007999999999,9.39512673981958,0.0653864365607621
6.506411999999999,9.405700113774849,0.0651533913582229
6.508796,9.420417458849805,0.0648993882722925
6.51118,9.432341307245428,0.0646513656377736
6.513575999999999,9.44999191862658,0.0643884389766665
6.51596,9.4648490333284,0.0641314855237118
6.51834,9.475981485791102,0.0638816420652256
6.520743999999999,9.486322542320888,0.0636302295438808
6.523132,9.495872202917756,0.063376498997943
6.525511999999999,9.500766035715731,0.0631310685151718
6.527915999999999,9.509012443700486,0.0628642377857501
6.530299999999999,9.51632768612546,0.0625995905449755
6.532679999999999,9.521501058177156,0.0623465782241909
6.535084,9.52173906317624,0.0621101616962496
6.537471999999999,9.522116837802184,0.0618694297043681
6.539852,9.525288109107464,0.0616246484456955
6.542256,9.528319610785884,0.061383647860592
6.544644,9.530280177277668,0.0611485575270323
6.547023999999999,9.53130957820967,0.0609147752730401
6.54942,9.530616417648975,0.0606797309060981
6.551807999999999,9.53220489708842,0.0604285023782971
6.554188,9.534072915781586,0.0601679891168001
6.556592,9.535009768914971,0.0599091950154604
6.55898,9.537017557234996,0.0596448270463475
6.561359999999999,9.541306985555158,0.0593668455572776
6.563751999999999,9.547458744994875,0.0590870634123502
6.566139999999999,9.555612605181013,0.0588006748479323
6.56852,9.564697630926927,0.0585147605149588
6.570915999999999,9.57485359185948,0.0582243422689493
6.5733,9.59194702059106,0.0579159085836705
6.57568,9.60196321189675,0.057631743902485
6.578075999999999,9.613050338389082,0.0573432340162186
6.580459999999999,9.628281436001105,0.0570387084081179
6.582839999999999,9.646725339173043,0.056719139562618
6.585243999999999,9.664377846412068,0.0563966246103151
6.587627999999999,9.682170123277947,0.0560713125972186
6.590007999999999,9.706760098316,0.0557338788835464
6.592404,9.736145670779804,0.0553906677558307
6.594792,9.767393574363162,0.0550471197303889
6.597183999999999,9.796359837946383,0.0547179784146899
6.599587999999999,9.826257267089384,0.0543899034880574
6.601975999999999,9.85801702735194,0.0540616423336811
6.604355999999999,9.890987492427998,0.0537261116305441
6.60676,9.925680518996748,0.0533956760926958
6.609143999999999,9.951573746646917,0.0530836778354786
6.611528,9.97346277280425,0.052782155656467
6.613928,9.992930389334584,0.052498453454631
6.616315999999999,10.007602408439167,0.0522218651292519
6.618696,10.020132557170475,0.0519551736254489
6.621091999999999,10.024514533289253,0.0517138065042554
6.623476,10.031690006087366,0.0514702031557117
6.625859999999999,10.0367236085122,0.0512361377656707
6.628252,10.036821843884429,0.0510123130154208
6.63064,10.033707273696736,0.0508020359377376
