Time,Force,Position
9.215704,5.562958439870883,0.1561574534885871
9.218084,5.577435884088885,0.1560513635566779
9.220488,5.593588667971342,0.1559757905569521
9.222872,5.614117740398969,0.1558364127770339
9.225252,5.640932654319567,0.1555410094951877
9.227656,5.667655020441548,0.1551969273725239
9.23004,5.687487140592744,0.154956285346469
9.232424,5.7115104536918775,0.1545687015444219
9.23482,5.739073333432888,0.1540399154018977
9.237203999999998,5.760444815337416,0.1535578543753306
9.2396,5.786891433921418,0.1529638288561499
9.241996,5.807052211012445,0.1525220378887246
9.24438,5.818785276237225,0.1522813343189412
9.246764,5.829260414820265,0.1521276476954245
9.24916,5.842109741202059,0.1519510722512704
9.251544,5.859055816875303,0.1517251209090051
9.253927999999998,5.881960972959554,0.1514186992319766
9.256332,5.905285437924387,0.1510857881923645
9.25872,5.92809804621002,0.1507436028967064
9.2611,5.952168581137396,0.1503240080202042
9.263504,5.964181185615897,0.1500721180776718
9.265888,5.974378680803085,0.1498052998374353
9.268268,5.978617095579265,0.1496151461598829
9.270664,5.98020178330297,0.149464967650722
9.273052,5.977130643227784,0.1493939650908281
9.275432,5.976852999831934,0.1492749240835864
9.277836,5.980811875354393,0.1491037668441265
9.287388,5.990355848377654,0.148978748221133
9.289764,5.997478411773916,0.1489224024885549
9.29216,6.017172658156121,0.1485957790054137
9.294543999999998,6.036122730433651,0.1482262772865044
9.29694,6.052698614912426,0.1478735124132066
9.299335999999998,6.071323821965861,0.1474372422088825
9.30172,6.088413458981703,0.1469730484841384
9.3041,6.106201944131848,0.1464703467090109
9.306504,6.122128098162436,0.1459966796390483
9.308888,6.132792124058447,0.1456792019356578
9.311267999999998,6.148995921484886,0.1453186516679834
9.313664,6.165851345217382,0.144963284880648
9.316048,6.189644236748906,0.1444847174689751
9.318444,6.21464783309393,0.1439783731927778
9.32084,6.241234221304791,0.1434534821162594
9.323224,6.265678739142374,0.1429742756929623
9.325608,6.289611400300759,0.1424883021979272
9.328,6.310658016981192,0.142016086491976
9.330388,6.333474416982565,0.1414777015992602
9.332783999999998,6.349213579558049,0.1410672137598514
9.33518,6.370307418066723,0.1405420633435919
9.337564,6.387024968030228,0.1400775972387937
9.339948,6.395082488702009,0.139761865019117
9.342344,6.405653966799403,0.13942338559623
9.344728,6.419391028628469,0.139063649998571
9.347108,6.428797127882739,0.1388377758345592
9.349504,6.436573213442928,0.138669216548584
9.351892,6.445140694936038,0.1384988851238725
9.354284,6.455290968294982,0.1383188280767439
9.356684,6.467722881654063,0.1380859876338508
9.359068,6.479131081654749,0.1378302362680906
9.361452,6.4895155682970405,0.1375524299549921
9.363848,6.492310960834244,0.1373878620927874
9.366231999999998,6.491753778184673,0.1372946787693857
9.368612,6.496131962587714,0.1371214263338059
9.371008,6.507866923670364,0.1368133042023583
9.373392,6.517087927327399,0.1365275509476834
9.375788,6.520814485424382,0.1363522935664947
9.378192,6.522911029827285,0.1362301977621012
9.380576,6.532596668335275,0.1359970923637994
9.38296,6.541490910910348,0.1357714692254054
9.385364,6.547871196059804,0.1355669290810441
9.387747999999998,6.553971941955541,0.1353783516235757
9.390128,6.558722213410919,0.13522732023613
9.39252,6.5617499233736005,0.1350929764827528
9.394908,6.566175329604883,0.1348763752130032
9.397288,6.567155612850774,0.1346930980924889
9.399692,6.563060759417192,0.1345974642966469
9.40208,6.562690568222723,0.1344525176251503
9.404459999999998,6.565393412961311,0.1342553931483962
9.406856,6.568887653632816,0.1340546846632548
9.40924,6.573685146916437,0.1338628728255442
9.411624,6.582719159118369,0.1336344652263695
9.41402,6.597479934305833,0.1333272416238829
9.416404,6.611030004679795,0.1330515585062475
9.4188,6.615640506508313,0.132914753998918
9.421195999999998,6.621973569829527,0.1327628317359252
9.423584,6.6344527050168525,0.1325092241596679
9.42596,6.65242628576423,0.1321537521401443
9.428356,6.669236383526353,0.1317846926769784
9.430744,6.682182049422501,0.131469664923888
9.433128,6.699783543117541,0.1310997173567978
9.435524,6.71803666311864,0.1307331373787316
9.437907999999998,6.736429552746598,0.1303590978965234
9.440288,6.758035247934472,0.129929824876177
9.442696,6.784948397227295,0.1294552226732805
9.44508,6.814375503945733,0.1289592350209133
9.447463999999998,6.844594006597091,0.1284557574265896
9.44986,6.871087847009332,0.1280024301958897
9.452244,6.893857025182462,0.1275967576031827
9.454636,6.9178369081690905,0.1271691260062723
9.457032,6.942375869663159,0.1267165727068925
9.45942,6.962678312238917,0.1262943036204628
9.461796,6.974320725522951,0.1259826602489288
9.4642,6.981447080634951,0.1257166265253771
9.466588,6.994579737986204,0.1253642965993471
9.468967999999998,7.006920999404537,0.1250163885917806
9.471372,7.015769916009234,0.124738577314207
9.47376,7.018053451867241,0.1245773263075467
9.47614,7.02364234108378,0.124398380634233
9.478544,7.032024726979655,0.1241883947264456
9.480928,7.039615716942611,0.1239838307975902
9.483308,7.048557181345925,0.1237477278035062
9.485703999999998,7.056567480189463,0.1235215397111247
9.488092,7.063227304592639,0.1233287816741615
9.490472,7.063089430823649,0.1232207340695366
9.492876,7.063510635562101,0.1230837803115649
9.49526,7.067144645860466,0.1228959979764965
9.49764,7.070778656158832,0.122708363299231
9.500036,7.0761352279498935,0.1225086826743654
9.50242,7.081352030114095,0.1223179438869885
9.5048,7.081214156345103,0.1222107671269303
9.507204,7.084661175188366,0.1220721959433497
9.509592,7.095185431457516,0.1218367765185741
9.511971999999998,7.111436450712197,0.1215369012336655
9.514376,7.117397426981075,0.1213822844911438
9.516763999999998,7.126151899929287,0.1212000791386073
9.519144,7.1391901136240525,0.12095168603165
9.521548,7.15157670101276,0.1206956540765373
9.523936,7.159307460602576,0.1204895127861647
9.526316,7.166107054632613,0.1202935355437346
9.52872,7.167551972729458,0.1201810402331019
9.531108,7.167925955639667,0.1200854840676911
9.533487999999998,7.17002250004257,0.1199781239546835
9.535892,7.169185778139277,0.1199063078709433
9.538276,7.17114255291532,0.1198057509366539
9.540655999999998,7.176404681049895,0.1196896426845098
9.559776,7.152897016345699,0.1196686267975994
9.566948,7.147404466643516,0.1196429487047147
9.569328,7.147172149218038,0.1196168592424512
9.571732,7.149733328471895,0.1195634277980301
9.574115999999998,7.152014968472033,0.1195240682454921
9.576496,7.156718018099168,0.1194376249520246
9.5789,7.161560837353163,0.1193442994025725
9.581288,7.165612260674241,0.1192533191967232
9.583668,7.173016259182093,0.1191065547212233
9.586072,7.179768631383887,0.1189552949454512
9.58846,7.180422153547814,0.1188469068787017
9.59084,7.177351013472627,0.1187745904729351
9.593236,7.178284074890275,0.1186515968289086
9.595624,7.186294373733812,0.1184364686619548
9.598004,7.196586312577486,0.1181820577339919
9.6004,7.203013819555187,0.1179705165389124
9.602788,7.210791800973244,0.117729371402472
9.605172,7.215916055338829,0.1175090356155295
9.607568,7.220528453025216,0.1172765014695513
9.609956,7.222487123659129,0.1170651538925139
9.612336,7.224865103173621,0.1168315496727195
9.61474,7.228453787501613,0.1165748560999044
9.617128,7.228457579217352,0.1163477271874512
9.619508,7.226878579067256,0.1161249294589301
9.621912,7.2270693622380975,0.1158521093334623
9.624296,7.229402015782217,0.1155484825743269
9.626676,7.23494747488625,0.1152005209554115
9.629079999999998,7.243705739550201,0.1148089897696954
9.631468,7.25260377384101,0.1144129348064297
9.633848,7.2628522825721795,0.1139900647109348
9.636252,7.278687784662019,0.1135194584413194
9.638636,7.29959842343133,0.1129883886577869
9.64102,7.323721867760556,0.112419831558739
9.643412,7.3489162472764225,0.1118458454408301
9.6458,7.375461101232646,0.1112496886115418
9.648184,7.408012257428123,0.1105891094209109
9.65058,7.441494579183375,0.1099268335347106
9.652964,7.476047836125267,0.1092514370446216
9.655344,7.514465524933132,0.1085451840899105
9.657748,7.555025084114275,0.107817489642671
9.660136,7.596376039228335,0.1070865329071693
9.662515999999998,7.635585123969119,0.1063825982276372
9.664912,7.674514669456183,0.1056910408988306
9.6673,7.7133044453163855,0.1050082719737425
9.66968,7.7496728115495905,0.104368562797329
9.672076,7.785761638529076,0.1037465197660814
9.67446,7.815424854388729,0.1032071003977162
9.67684,7.841083868755549,0.102712225653084
9.679236,7.867394509428427,0.1022274814843675
9.681624,7.890212805287667,0.101795586162327
9.684004,7.908235503721159,0.1014057819527245
9.686407999999998,7.925187266968011,0.1010322639531784
9.688796,7.936132727975612,0.1007192348525757
9.691172,7.943073987490379,0.1004469195934306
9.693568,7.94652290219151,0.1002253644304195
9.695956,7.949040651332863,0.1000118683803147
9.698352,7.950627234914439,0.0998056504222059
9.700748,7.952865444802071,0.0996059107440939
9.703136,7.951099453196869,0.0994430380428336
9.705512,7.948914152711089,0.099298911977468
9.707916,7.950593284091282,0.0991258050339951
9.710304,7.959349652897362,0.0988896196818857
9.712684,7.970247892076721,0.0986305697795897
9.71508,7.980075196069439,0.0983831522685732
9.717467999999998,7.990833665621937,0.0981298944120525
9.719848,8.000381430360935,0.0978947514774885
9.722244,8.013933396592769,0.0976242262818583
9.724632,8.030139089877077,0.0973434133829303
9.727011999999998,8.042200812041688,0.0971031849566303
9.729408,8.058266735699135,0.0968287789432817
9.731792,8.076846616782197,0.0965491196413523
9.734188,8.091934153051621,0.0963157566437995
9.736584,8.108604481186884,0.0960824569509235
9.738972,8.122062003762231,0.0958831009905314
9.741352,8.136730231151079,0.0956660879930564
9.743747999999998,8.14553192592753,0.0954950016957814
9.746136,8.152051980703849,0.0953533756588368
9.748516,8.154847373241052,0.0952341552688401
9.750912,8.157223456897675,0.0951325835520973
9.7533,8.158528605367662,0.0950430912442642
9.755696,8.160904689024287,0.0949431332016446
9.758092,8.15685516156108,0.0949113628532045
9.76048,8.15331749077707,0.094891634042687
9.76286,8.153784021485894,0.0948390402853407
9.765256,8.157323588127772,0.0947594615184104
9.767644,8.16328456439665,0.0946469476776266
9.770024,8.168454144732609,0.0945342045220207
9.77242,8.169247436523396,0.0944357275777601
9.774807999999998,8.176326569807154,0.0942785168900373
9.777183999999998,8.181263832717635,0.094143365260743
9.779588,8.185549469322057,0.0940021842194164
9.781975999999998,8.19626071704631,0.0937976070652671
9.784356,8.207903130330344,0.0935883415882649
9.786752,8.22368951473407,0.0933415988938373
9.78914,8.239475899137796,0.0930954509682314
9.791531999999998,8.260709507273333,0.0928244371668512
9.793936,8.283293589849228,0.0925315598245637
9.796323999999998,8.312535600970431,0.0921993798717175
9.798704,8.342988316905135,0.0918503311537379
9.801108,8.369576600973867,0.0915260447283124
9.803492,8.390298352430204,0.0912446468196305
9.805876,8.41330174388668,0.0909366271490749
9.808272,8.434862113104181,0.0906230366961262
9.810656,8.455351547135042,0.0903231672307279
9.81304,8.470765844486431,0.0900647961326161
9.815435999999998,8.482687797024184,0.0898491911833152
9.81782,8.496472080681494,0.0896253185883101
9.8202,8.514772422510836,0.0893840773210948
9.8226,8.526275066168006,0.0891873451293636
9.824988,8.540199119452176,0.0889605113112356
9.827368,8.556125273482763,0.0887204955908586
9.829764,8.566045125274103,0.088524861027085
9.832152,8.577594990759517,0.088298989487889
9.834532,8.589284625871793,0.0880688672452564
9.836936,8.601905426543848,0.0878352075723047
9.839324,8.613222974603785,0.0875896448420921
9.841704,8.627334019343058,0.0873331611797765
9.8441,8.636789236283441,0.0870988362433695
9.846488,8.647594927664182,0.0868452990441607
9.848868,8.662265050910896,0.0865695258253183
9.851272,8.677074943784472,0.0862873613807951
9.85366,8.688951570351852,0.0860228766454458
9.856039999999998,8.698546556919094,0.0857822763161501
9.858436,8.702275010873944,0.085576562927285
9.860824,8.705212068895879,0.0853684601047681
9.863204,8.708568435798393,0.085143760041305
9.8656,8.708060370834934,0.0849411262779648
9.867988,8.708483471431254,0.0847356358680312
9.870384,8.711560299080048,0.0845227470147395
9.87278,8.70942222042251,0.0843514948178823
9.875168,8.704071336205056,0.0842085515930875
9.877548,8.701653718293796,0.0840480822362471
9.879943999999998,8.693741654822482,0.0839395241693588
9.882332,8.684479116910813,0.0838509218003909
9.884712,8.674285413439364,0.0837661283319928
9.887108,8.665674501833749,0.08368398799191
9.889496,8.650265892055968,0.083639229010475
9.891876,8.635928217464825,0.0835849240636265
9.894272,8.62103146436624,0.0835514101376878
9.89666,8.60534331533474,0.0835161098177311
9.89904,8.59445076372899,0.0834564563102319
9.90144,8.587562413616073,0.0833712894231886
9.903823999999998,8.586680365742408,0.0832484857873034
9.90622,8.59380672085441,0.0830757085002914
9.908616,8.606008212645882,0.0828692884603693
9.911003999999998,8.62221390593019,0.0826393388607459
9.913384,8.64335496626711,0.0823821129385577
9.915784,8.660771364364916,0.0821402990906503
9.918171999999998,8.679258697649361,0.0818905893664033
9.920552,8.702681397986417,0.0816131070971315
9.922948,8.72959644313711,0.0813008161083402
9.925336,8.755440553101165,0.0809981417921062
9.927715999999998,8.785568403811773,0.0806607042547394
9.93012,8.815184397843183,0.0803114525721094
9.932508,8.843589687061096,0.0799758992472217
9.934888,8.867339148480117,0.0796577476191301
9.937292,8.897746538444443,0.0793108642218587
9.939676,8.92987648990147,0.0789645390607194
9.942056,8.962705289492796,0.0785948065212722
9.944448,8.994602923524342,0.0782288470800421
9.946836,9.0206340249435,0.0778936508120309
9.949232,9.04494256486996,0.0775620849083839
9.951628,9.066876916997668,0.0772286131597958
9.954016,9.080151239833649,0.0769335865804613
9.956396,9.093285793042773,0.0766457967183388
9.958799999999998,9.10283545363964,0.0763665674354996
9.961184,9.108800221624254,0.0760952762983185
9.963564,9.114113363302812,0.0758165048257102
9.96596,9.117052317182615,0.0755316193018009
9.968348,9.115754752144106,0.0752460679580411
9.970728,9.1115239207994,0.0749743214927482
9.973128,9.10813170721586,0.07467324870853
9.975516,9.10329647139334,0.0743630471275525
9.977896,9.099811710011185,0.0740354481894888
9.980288,9.100098832696382,0.0736665464959715
9.982676,9.107323423180608,0.0732660993545946
9.985072,9.11203405623922,0.0728653275269463
9.987468,9.113299566312438,0.072465241219809
9.989852,9.110281335639105,0.0720937745738545
9.992232,9.109684514592766,0.0716985950256535
9.99464,9.112300499106343,0.0712808906042003
9.997024,9.111983217313728,0.0708743306675111
9.999403999999998,9.106590798841635,0.07049316603039
10.0018,9.10692514335508,0.0700919256520885
10.004188,9.105676696002682,0.06968688936708
10.006568,9.104940105329485,0.069294057678467
10.008964,9.104203514656286,0.0689008774626224
10.011352,9.105049715848924,0.0685125244115287
10.013732,9.105336838534122,0.0681422801812235
10.016127999999998,9.109069084204712,0.0677728887752264
10.018516,9.112382020994724,0.0674176055982463
10.020896,9.112062843344232,0.0670970487703851
10.023295999999998,9.111975983119224,0.0667986102789974
10.02568,9.111190274759911,0.0665245985623834
10.028076,9.10477035121369,0.0662941617359601
10.030472,9.092064586174496,0.0660997999070076
10.03286,9.077077181135165,0.065923149460377
10.03524,9.06474350314831,0.0657451199741494
10.037636,9.056414026654284,0.0655495234062919
10.040024,9.04659430609304,0.0653749642151864
10.042408,9.038497147024495,0.065201741033372
10.044804,9.03463650687426,0.0650337224721893
10.047192,9.037014486388754,0.0648627643737316
10.049572,9.040183861836166,0.0646955516589109
10.051968,9.040652288402857,0.0645600474917959
10.054356,9.04084117571583,0.0644340738746922
10.056752,9.0403312148945,0.0643316420895799
10.059148,9.038750318886535,0.0642355744809667
10.061535999999998,9.04182525067746,0.0641312800277636
10.063916,9.04769367914772,0.0640228716714864
10.066312,9.055564208364393,0.0639066876992761
10.068696,9.071954997245935,0.0637721347160645
10.071079999999998,9.091279052433672,0.0636290323314798
10.073476,9.108601006874991,0.0634934958878233
10.075864,9.127785292435869,0.0633541391181806
10.078244,9.151904945049358,0.0631979971628208
10.080644,9.176955763222626,0.0630399846842076
10.083032,9.199585171768897,0.0629041788102725
10.085412,9.221143645128526,0.0627754407090199
10.087815999999998,9.24028070886116,0.0626682075412697
10.0902,9.261280103713348,0.062559528024151
10.09258,9.283490203379037,0.0624410875344373
10.09498,9.302906806365392,0.0623276793931308
10.097364,9.320321308605328,0.0622223285471405
10.099748,9.342810947524736,0.0620963814702648
10.102151999999998,9.365440356071003,0.0619659728815087
10.104539999999998,9.393424440550469,0.0618066436379043
10.106916,9.425133187269044,0.0616425339354522
10.109316,9.458192408427978,0.0614658474951661
10.1117,9.4851055577208,0.0613159216691052
10.114096,9.511878937386763,0.0611713089181913
10.116492,9.530132057387863,0.0610436090571901
10.11888,9.546383076642543,0.0609237630291078
10.12126,9.568500628509618,0.0607880809048045
10.123664,9.595693317056162,0.0606338738059447
10.126052,9.62116344411001,0.0604790957748086
10.128431999999998,9.64956683747005,0.0603170006398335
10.130828,9.679180935643592,0.060144737909235
10.133216,9.71051759530983,0.0599754261469767
10.135596,9.74841963572276,0.0597695002460036
10.137996,9.779244438709798,0.0595896308859883
10.140384,9.80341131315153,0.0594222413347167
10.142764,9.82650725240662,0.0592602814504769
10.145164,9.849603191661718,0.0590985754963269
10.147552,9.870836799797257,0.0589402506127381
10.149932,9.894072508679209,0.0587761654926015
10.152328,9.912233080881688,0.0586313608304046
10.154716,9.928810861218333,0.0584810078147509
10.1571,9.940173735248644,0.0583535173832996
10.159496,9.954889184465731,0.05820599525323
10.161884,9.968813237749904,0.0580555745742652
10.164264,9.986601722900048,0.0578969919052283
10.166664,10.003598812117271,0.0577355487329179
10.169052,10.018081943908882,0.0575697592621138
10.171432,10.02884041346138,0.057408648764929
10.173828,10.037457012640605,0.0572579442096594
10.17622,10.045142446260044,0.0571087457231056
10.1786,10.054038584692986,0.0569507159203626
10.180996,10.06135193126009,0.0567864891611871
10.183388,10.06559224189414,0.0566340333557955
10.185768,10.077049559580937,0.0564559149138472
10.188164,10.095444345066769,0.0562604380313689
10.190548,10.114118669806311,0.0560565002313126
10.192944,10.136285339359498,0.0558311802980064
10.19534,10.155658512233346,0.0556081847595459
10.197728,10.17438005880114,0.0553789454084075
10.200107999999998,10.19296183574207,0.0551534778866186
10.202504,10.208330807123083,0.0549423757480931
10.204892,10.22411908738468,0.0547188052347636
10.207272,10.23883643245964,0.0545006394347125
10.209663999999998,10.253553777534597,0.0542828297718843
10.212052,10.2634755251838,0.0540717312527303
10.214448,10.27260587690009,0.0538572486680175
10.216843999999998,10.278663192683323,0.0536528136262826
10.219232,10.285791443653194,0.0534443244443099
10.221612,10.293339003503643,0.053223461587933
10.224011999999998,10.30023493704804,0.0529954888442344
10.226396,10.304337373913096,0.0527690354351218
10.228776,10.307368875591516,0.0525471258081832
