Time,Force,Position
8.186296,4.960756540540083,0.1678842691527457
8.188676,4.974395366996925,0.1678092157978278
8.191072,4.994180265319877,0.167568849405181
8.19346,5.013732846217354,0.1672984924646878
8.195844,5.03398427524913,0.1669769044495674
8.19824,5.063454812080073,0.1664100122242738
8.200624,5.097441407083047,0.1657457080292114
8.203008,5.134640807645936,0.1649869343352266
8.205404,5.172444612686641,0.164280826980486
8.207792,5.215975180712876,0.1634405371443625
8.210176,5.253452224671617,0.1628243104766184
8.212572,5.293023917175391,0.1622043195965463
8.21496,5.332595609679165,0.1615784838177859
8.217344,5.3728661503172415,0.1609083486627217
8.21974,5.423566503567983,0.1599470115539489
8.222128,5.473894769766384,0.1589783161986677
8.224524,5.520917682606255,0.1580652516020142
8.22692,5.562493371714316,0.1572803678302934
8.229312,5.6015551033967625,0.1565474211664395
8.231692,5.640896374332929,0.1558042747776989
8.234092,5.676932291910562,0.1551119868357279
8.23648,5.7097554039282805,0.1545148255902144
8.238859999999999,5.738574314453167,0.1540203332686969
8.241252,5.76590298091083,0.1535857014967689
8.243636,5.791881172928138,0.1532011793092913
8.246016,5.812644458639111,0.1529489314959126
8.248408,5.832756118044029,0.1526958380148096
8.250792,5.854730108568502,0.1524153028576403
8.253188,5.88275762316047,0.1519647200328169
8.25558,5.908131410699961,0.1515594958330691
8.257964,5.937044764881333,0.1510128721738087
8.26036,5.966284880144667,0.1504065649633465
8.262756,6.000228045035136,0.1496806140940716
8.26514,6.03151748287313,0.1489977281561371
8.26752,6.057499466606176,0.1484005221403426
8.269928,6.078546083286609,0.1478959972044257
8.272312,6.10066363515368,0.1473681371441054
8.274692,6.1221295607146935,0.1468388029360786
8.277088,6.14252455108907,0.1463361278876799
8.279472,6.1571927784779135,0.1459309416201053
8.281868,6.171069609933841,0.145531204399587
8.284272,6.18401527582999,0.1451463743741393
8.28666,6.194167445046806,0.1448057059119054
8.28904,6.20501846239792,0.1444207052397169
8.29144,6.215637162323558,0.1440062066709832
8.324872,6.119054803542258,0.1436541552446886
8.327268,6.11621598089255,0.1436115593824389
8.329652,6.117101820481954,0.1435129328290071
8.332032,6.119477904138579,0.1433659327317098
8.334427999999999,6.127860290034453,0.1431105516817042
8.336816,6.136754532609525,0.1428685859653215
8.339212,6.145741322983214,0.1426645256992269
8.341616,6.158685093021493,0.1424338901657655
8.344,6.171628863059771,0.1422057455496197
8.34638,6.187505899404247,0.1419292048324423
8.348784,6.198447568696109,0.1417363691219174
8.351168,6.21032040354775,0.1415270297593358
8.353552,6.228479079892362,0.1411909415269547
8.355952,6.253762215491105,0.1406747439133149
8.35834,6.280815134410789,0.1400989166686186
8.360724,6.309078758143971,0.1394926110376003
8.363128,6.337202612250292,0.1388924132326224
8.365511999999999,6.3586685378113055,0.1383994120622843
8.367892,6.376409801133206,0.1379662688520767
8.370296,6.394151064455106,0.1375364991307096
8.372684,6.410541853336648,0.1371480531444438
8.375064,6.429446599643804,0.1367409661662181
8.37746,6.443276209271488,0.1364251184495005
8.379844,6.460178854832228,0.1360594461107046
8.382228,6.473636377407575,0.1357328557729502
8.384624,6.485371338490225,0.1354238426097359
8.387008,6.498317004386373,0.1350866625729078
8.389388,6.511030352857045,0.134723151363548
8.391784,6.5224404487156,0.134354259475549
8.394172,6.535340788641375,0.1339463007944809
8.396552,6.552105560433123,0.1334786779527377
8.398956,6.573945468904343,0.1329283828005112
8.40134,6.589779075136312,0.1324750105344731
8.40372,6.601468710248589,0.1320965442815552
8.406124,6.608455295733731,0.1318219727145152
8.408508,6.61567419864435,0.1315760090505519
8.410888,6.62168239674147,0.1313562640598956
8.413292,6.634628062637619,0.1310303198188057
8.41568,6.647713498160627,0.1306970819581804
8.41806,6.659867768123858,0.1303771990821198
8.420463999999999,6.6716027292065085,0.1300809378131021
8.422852,6.679613028050046,0.1298329471277171
8.425232,6.689113570960801,0.1295399310642578
8.427636,6.690186402005309,0.1293965652074153
8.430019999999999,6.690700154542375,0.1292850933701128
8.4324,6.694798799691696,0.1291356667641522
8.446724,6.673944862039973,0.1291183703602466
8.449128,6.673572774987635,0.1290985101910385
8.451512,6.675342558308575,0.129041084404245
8.453892,6.678462816069874,0.1289488254038946
8.456292,6.684843101219331,0.1287586797514304
8.458676,6.694715731182424,0.1284967659295838
8.461056,6.700723929279544,0.128288600564272
8.46346,6.7076632929364415,0.1280705373769265
8.465848,6.717396153272674,0.1278224246196211
8.468228,6.728759027302987,0.1275266355617098
8.470623999999999,6.740913297266217,0.1272274528282558
8.473012,6.754790128722144,0.1269153490135618
8.475392,6.776023736857681,0.1264831465760625
8.477788,6.795255244246801,0.1260776889153346
8.480176,6.809830923837029,0.1257266246908878
8.482572,6.8242668338003964,0.1253819825109929
8.484968,6.837911347830846,0.1250385383183101
8.487352,6.856119141861571,0.1246093550849648
8.489732,6.875537640705794,0.1241515643339723
8.492128,6.897098009923292,0.1236597946054667
8.494515999999999,6.914002551341903,0.1232225301815748
8.496908,6.922898689774843,0.1229002780163978
8.499304,6.930164814513706,0.1226270330281659
8.501688,6.943297471864957,0.1222794194847555
8.504068,6.949957296268135,0.1220815238951691
8.50646,6.959270847723788,0.1218632914928267
8.508844,6.96816509029886,0.1216673992180547
8.511239999999999,6.974917462500654,0.1215065596653923
8.513644,6.976454928396116,0.1214253936646276
8.516028,6.977992394291579,0.1213446828953565
8.518407999999999,6.976736363507706,0.1212933471487982
8.520804,6.976691037537332,0.1212177055400152
8.523188,6.972641510074124,0.1211956893950216
8.525568,6.97259618410375,0.121120306082414
8.527972,6.977346455559128,0.120989608264414
8.530356,6.985169762947562,0.1208160141194611
8.53274,6.999790768508164,0.1205631144528082
8.53514,7.009568954814771,0.120406749989183
8.537528,7.018136436307879,0.1202732790979475
8.539908,7.027495313733906,0.1201394193093386
8.542311999999999,7.040578853399047,0.1199686097890558
8.5447,7.058597760116798,0.1197353535388309
8.547076,7.078106910901769,0.1194645906326254
8.549472,7.087605557954657,0.1193233319829571
8.551855999999999,7.100084693141981,0.1191048418893578
8.554252,7.107768230903553,0.1189418608174219
8.556648,7.115731307918847,0.1187645809982772
8.559032,7.124485780867058,0.1185846789438847
8.561411999999999,7.137523994561825,0.1183387678359364
8.563816,7.14921173381623,0.1181246080311361
8.566203999999999,7.168628336802584,0.1178236503895509
8.568579999999999,7.184552594975302,0.1175866829314201
8.570976,7.204341285013992,0.1173078535291862
8.57336,7.221476248000209,0.1170504755115193
8.575756,7.236469340613148,0.1168275881073278
8.578148,7.252253829159005,0.1166057661437983
8.580536,7.263242720279111,0.1164372015661094
8.582915999999999,7.275861625093296,0.1162250565345121
8.585316,7.295837306587091,0.1159138515861598
8.587704,7.314230196215049,0.11560935771174
8.590084,7.3309005243503105,0.1153166527321646
8.592488,7.350783658045488,0.1149829906874703
8.594872,7.371737726927303,0.1146376524224601
8.597252,7.4031216084217855,0.1141592564864015
8.599648,7.435157116222324,0.1136885306389787
8.602032,7.46919472476928,0.1131962564714128
8.604428,7.503511872569957,0.1126922732754924
8.606831999999999,7.539039725184133,0.1121680597362056
8.609216,7.568980584439639,0.1116911424384511
8.611596,7.600132148508641,0.1111946893327556
8.613999999999999,7.629700920711808,0.1107101302999549
8.616388,7.661970641795693,0.1101717521233596
8.618764,7.689304995826967,0.1096863121303305
8.621164,7.71663934985824,0.1092004288424269
8.623548,7.74038881127726,0.1087372112647559
8.625928,7.758691048964469,0.1083140183783991
8.628332,7.775922351465042,0.1079049435015478
8.63072,7.792082718778975,0.1075099688873208
8.6331,7.803959345346355,0.1071755196973398
8.635496,7.81169200079404,0.10688953471191
8.637884,7.818353721055088,0.1066173377404411
8.640264,7.820871470196441,0.1063955862572954
8.642668,7.821387118591378,0.1061954939532376
8.645056,7.814406220679844,0.10609040855627
8.647435999999999,7.807425322768312,0.1059853720415352
8.649832,7.795509057804166,0.1059281463052636
8.652216,7.783453023213159,0.1058768163007287
8.654596,7.774889333435789,0.105772616493557
8.656996,7.772843802576868,0.1056200773872767
8.659384,7.768796170971529,0.1054875227088368
8.661764,7.75860246750008,0.105420807208361
8.664164,7.7471980592151315,0.1053728751024262
8.666552,7.734862485370405,0.1053319768358763
8.668932,7.725320408205015,0.1052703359422894
8.671336,7.71764066215918,0.1051949629407628
8.71194,7.480457991424962,0.1051874860784388
8.714336,7.468634274259434,0.1051565396807881
8.716724,7.456810557093906,0.1051249361304315
8.719104,7.449270580674932,0.1050400549744296
8.721508,7.449366920189288,0.1048575898063305
8.723892,7.450813734144003,0.1046498190889923
8.726272,7.455193814404912,0.104417166000272
8.72868,7.473588599890739,0.1040485683893825
8.731064,7.493194090190066,0.1036610898273956
8.733444,7.510797479742974,0.103295226481914
8.735847999999999,7.536549041908411,0.1028455872373282
8.738232,7.564442474447127,0.1023693933136384
8.740612,7.591125202172342,0.1019127476355994
8.743008,7.621160505084334,0.1014108549784224
8.745396,7.647750685010932,0.1009250965033564
8.747776,7.676342965683948,0.1004228917608268
8.750172,7.714014584529268,0.0998321776914337
8.752559999999999,7.750894807441671,0.099244609135243
8.754952,7.78349128960752,0.0987087552044494
8.757356,7.824235944385897,0.0980966245486364
8.759744,7.868193404724189,0.0974506581614019
8.762124,7.905492936517172,0.096859751354833
8.764528,7.939067806071042,0.0962944074689599
8.766912,7.968498704505219,0.0957753634033404
8.769292,7.987919099207311,0.0953471487714304
8.771696,8.005616932416707,0.0949259309094623
8.774084,8.018658937827212,0.0945349681604128
8.776463999999999,8.024344166558105,0.0942225603526021
8.778864,8.029889625662138,0.0939166230212858
8.781252,8.032501818459979,0.0936323213445277
8.783631999999999,8.031109809764985,0.0933828328885005
8.786032,8.03092850588349,0.0931165547019041
8.78842,8.03423954681563,0.0928053407126354
8.790799999999999,8.038993609986747,0.092502666624329
8.793204,8.04588954353114,0.0921785860094174
8.795588,8.049340354090143,0.0918639211319471
8.797972,8.045993466476974,0.091597267355118
8.800368,8.041575643677168,0.0913413147427103
8.802752,8.03836852569086,0.0910677969261417
8.805132,8.028875566211582,0.0908544464258783
8.807535999999999,8.018171901918803,0.0906579131804195
8.809924,8.00933056874558,0.0904510982761926
8.812304,8.005284832998111,0.0902145447379979
8.814708,8.00109932762378,0.0899833083476082
8.817092,8.006644786727815,0.0896871139774191
8.819472,8.014564433630605,0.0893948189371687
8.821876,8.02406687239923,0.0891042628347022
8.82426,8.033709080794717,0.0888072708588236
8.82664,8.045353389936619,0.0884965664417784
8.829044,8.063935166877549,0.088137304758566
8.831432,8.087452310871093,0.0877464805050653
8.833812,8.111760850797554,0.0873601628528161
8.836208,8.135091003335994,0.0870166872239282
8.838592,8.161214652553767,0.0866646680205671
8.840976,8.189572719943436,0.0863260865988093
8.843372,8.220165205504998,0.0859974287800166
8.845756,8.252340482932397,0.0856698197500698
8.848136,8.287169487412271,0.0853364443695792
8.850532,8.323721053384842,0.0850010742180645
8.85292,8.363066116036746,0.0846543225228113
8.8553,8.401200473875154,0.0843239850567028
8.857704,8.440917623579397,0.0839987571557093
8.860088,8.475699406231028,0.0837066513359838
8.862472,8.51527678630841,0.0833912674955305
8.864876,8.551781130452737,0.0831039848455495
8.86726,8.588565013850785,0.0828089900455453
8.86964,8.62749076762211,0.0824977427163594
8.872036,8.669489557326488,0.0821661329511458
8.874424,8.711208807777147,0.0818485452477383
8.876804,8.744640115988421,0.0815930622319219
8.879196,8.7709941867738,0.0813857690004712
8.88158,8.79213335125285,0.0812179218208104
8.883976,8.809967162373368,0.0810489817471121
8.886372,8.821143044948577,0.0809116597300106
8.888755999999999,8.825521229351619,0.0808101302371759
8.89114,8.829247787448603,0.0807019132427334
8.893544,8.83725808629214,0.0805591510813355
8.895928,8.84354582364298,0.0804187607656519
8.898308,8.853046366553736,0.0802537722730682
8.900712,8.85775131203874,0.0801109627633169
8.903096,8.863946501590965,0.0799445253792089
8.905476,8.867487964090712,0.0797834517568223
8.90788,8.8708896569636,0.0796268486058775
8.910268,8.869775291664457,0.0794825776362479
8.912647999999999,8.86386532893956,0.0793599913141139
8.915052,8.852088833602275,0.0792673268290197
8.917436,8.837239302331936,0.0791946244148923
8.919815999999999,8.81959627438226,0.079131234447008
8.92222,8.798508123447192,0.0790701496165412
8.924604,8.785056288445452,0.0789453332863241
8.926984,8.777890294936682,0.0787756871171497
8.929388,8.775008042174472,0.0785725696276557
8.931772,8.775990221278231,0.0783518323696123
8.934156,8.777391709262572,0.0781150083778317
8.936556,8.784706951687546,0.0778166881502054
8.938944,8.79216196373938,0.0775137145942758
8.941324,8.79547300467152,0.0772393090870054
8.943719999999999,8.795059383364547,0.0769761247481319
8.946108,8.78584596313899,0.0767553053104642
8.948488,8.77905395254043,0.0765071160029734
8.950892,8.768909366755093,0.0762881352151278
8.95328,8.758764780969754,0.0760686609293332
8.95566,8.752903935930972,0.0758167827828168
8.958056,8.747974256451966,0.0755617545475397
8.96044,8.747188548092657,0.0752792550412548
8.962819999999999,8.749336106039541,0.0749814300662161
8.965224,8.753765303986562,0.0746627033770655
8.967611999999999,8.758846128239641,0.0743512900631682
8.969992,8.76471834842564,0.0740414788021069
8.972396,8.765235892678447,0.0737723724798368
8.974779999999999,8.759467595438284,0.0735458506297718
8.97716,8.752768132638339,0.0733223246107856
8.979564,8.74420633871884,0.0731046326858253
8.981948,8.739229437411591,0.0728812199891226
8.984328,8.72819901203685,0.0727214090251458
8.986732,8.718099752221885,0.0725589065294752
8.98912,8.711213297966838,0.072373600903974
8.9915,8.711915937816876,0.0721629075668986
8.9939,8.719416275839084,0.0719238678173929
8.996288,8.731432672033325,0.0716787948420433
8.998668,8.743868377108146,0.0714177997379404
9.001064,8.757375017369604,0.0711495664914493
9.003452,8.772092362444562,0.0708717738116286
9.005832,8.787740873079299,0.0705927204794848
9.00824,8.800967974087037,0.0703386703360774
9.010624,8.816057406214334,0.0700804690286055
9.013004,8.831938234274547,0.0698267320561191
9.015408,8.849960932708035,0.0695598560367516
9.017796,8.870637358194001,0.069292013803145
9.020176,8.893315884426382,0.069014679551169
9.022572,8.919207216218679,0.0687154710525431
9.02496,8.945889943943893,0.0684203209415028
9.02734,8.971781275736191,0.0681233811661429
9.029736,8.991666305289238,0.0678537144364742
9.032124,9.017045780402336,0.0675439992202069
9.034508,9.0384210540226,0.0672525123152746
9.036904,9.054860960590256,0.0669818234102046
9.039292,9.06557410417238,0.0667295117345767
9.041672,9.074285147008087,0.0664871147655912
9.044068,9.07941129723154,0.0662493054298661
9.046452,9.088262109694108,0.0660042591890476
9.048832,9.099115022903094,0.0657518196687083
9.051228,9.104613260178883,0.0655333889399255
9.053616,9.10824916633512,0.0653189105557666
9.055996,9.114306482118351,0.0650820115921533
9.0584,9.120783106782165,0.0648318380658952
9.060784,9.123535069206865,0.0645888724158636
9.06318,9.127497736445063,0.0643365267447431
9.065576,9.128155050324729,0.0640768143943142
9.067964,9.128952133831255,0.0638126241018278
9.070344,9.131751318084198,0.0635415210510939
9.072748,9.132688171217584,0.0632736862644394
9.075136,9.133065945843526,0.0630241726121004
9.077516,9.139310253081865,0.062755833578694
9.07992,9.141410589200506,0.0625078019248364
9.082304,9.14858606199862,0.062238444571706
9.084684,9.160557132222486,0.061957310133749
9.087088,9.175461468752545,0.0616674533314993
9.089476,9.191716279722964,0.0613634036152569
9.091856,9.206760385879884,0.0610704514989469
9.094252,9.222735657596584,0.0607784813653386
9.09664,9.235637893380227,0.0605006294238989
9.09902,9.252684100283568,0.0602044711365936
9.101416,9.272523803866244,0.0599057044845458
9.103804,9.291152802635416,0.0596184612866969
9.106184,9.307360391777593,0.0593526176627981
9.10858,9.325290542412464,0.0590890578127731
9.110968,9.335212290061673,0.0588529646416227
9.113348,9.346996368830432,0.0586148665974764
9.115744,9.360782548345613,0.0583712703226458
9.118132,9.372426857487516,0.0581399081550438
9.120512,9.38914630330889,0.0578914695836566
9.122912,9.40800761950354,0.0576323051583626
9.125296,9.424215208645716,0.0573724292095726
9.12768,9.445637704094224,0.0570909804353794
9.130076,9.465849494729234,0.0568210902713649
9.13246,9.483128019058052,0.0565592077299891
9.134856,9.500406543386866,0.0562985845303115
9.137252,9.51819692439488,0.0560520139626976
9.13964,9.53798940614931,0.0558000756233905
9.14202,9.551915355291348,0.055562000608401
9.144424,9.56877457073958,0.0553180695925225
9.146812,9.583352146187678,0.0550897271865171
9.149192,9.594856685702725,0.0548728040824198
9.151596,9.607432160404404,0.0546515014423094
9.153984,9.623220440665998,0.0544159143344026
9.156364,9.639008720927594,0.0541807474865658
9.15876,9.66038399454786,0.0539410716273364
9.161148,9.68334206003396,0.0537101340637035
9.163528,9.702156154400368,0.0534951726484011
9.165932,9.722972349513192,0.0532758017294148
9.16832,9.734569436826852,0.0530873940853765
9.1707,9.744443962647818,0.0528961051178666
9.173096,9.756180819588335,0.0527042685442412
9.175484,9.763633935782304,0.0525322436649058
