Time,Force,Position
12.71408,4.764772133524957,0.1620491888959801
12.716468,4.776782842145589,0.161901668022288
12.718848,4.792378443378473,0.1616864993777912
12.721244,4.813653585768645,0.1613968275074742
12.723632,4.840468499689244,0.1610393074563551
12.726028,4.865094321408322,0.1607975822168357
12.728424,4.893444805366514,0.1604733682137838
12.730812,4.928313448243154,0.160002206287016
12.733192,4.967046522985767,0.1594349698472896
12.735596,5.004476345116266,0.1588619274823973
12.737984,5.035155690902838,0.1584088351294734
12.740364,5.070305768891068,0.1577623809715246
12.742764,5.108855643894316,0.1569369318065083
12.745148,5.137442236993723,0.1563208739924602
12.747528,5.167007217481152,0.1556315562762264
12.749924,5.192195909423409,0.1550144951069002
12.752312,5.215522270246111,0.1544510746982694
12.754692,5.238149782934511,0.153953691494419
12.757088,5.256353785249497,0.153603826078291
12.759472,5.28214688166957,0.1530879785124263
12.761868,5.299419718424778,0.1527593768993405
12.764264,5.312967892940874,0.1525117440383181
12.766652,5.326516067456967,0.1522695405133123
12.769032,5.337829823801168,0.1520426829059411
12.771436,5.348259636413832,0.1517812319569638
12.773824,5.360738771601157,0.1514147757697807
12.776204,5.373916754922783,0.1510036024578122
12.7786,5.385791485632294,0.1505935500657284
12.780988,5.39380178447583,0.1502631311806786
12.783368,5.403953953692643,0.149878682192677
12.785772,5.415269605894712,0.1495084120759922
12.78816,5.42453593552212,0.1492406498211869
12.790544,5.435896913694564,0.1489737948770803
12.79294,5.456290008211069,0.1485565706298024
12.795328,5.473190757913939,0.1482406116684741
12.797708,5.4923259257887045,0.1479059904663
12.800104,5.509319223290191,0.1476277302864588
12.802488,5.524869498552702,0.1473565787319637
12.804872,5.538045586016459,0.1471085432267946
12.807272,5.5456346801215455,0.1469632832420856
12.80966,5.557507514973187,0.1467094330326165
12.81204,5.5676577883321325,0.146479352528026
12.814436,5.5756661913178,0.1463050995630754
12.828764,5.603363153112063,0.1462138923318456
12.831152,5.611509429866722,0.1461820637586823
12.833548,5.622077116248377,0.1460802226124435
12.835944,5.631341550017917,0.1459719401321299
12.838332,5.641444601548619,0.1458092036608126
12.840712,5.646799277481811,0.1456852659115081
12.843108,5.652992571176165,0.1455036014943792
12.845496,5.662166353004958,0.1452151431968122
12.847876,5.67147990446061,0.144916530944843
12.85028,5.68200416072976,0.1445863412817748
12.852664,5.691177942558553,0.1442983271027647
12.855048,5.703657077745877,0.1439753225758255
12.857452,5.714366429612262,0.1437255797443924
12.859836,5.729731609277539,0.1434010567041624
12.86222,5.746447263383175,0.1430356158447435
12.864616,5.763721995996251,0.1426363677747848
12.867,5.782347203049687,0.1421908516738609
12.869384,5.801112179729983,0.1417363737924368
12.87178,5.825790910850913,0.1411213032140757
12.874168,5.84837499342681,0.1405030223836503
12.876548,5.860716254845143,0.1400531391876408
12.878948,5.863838408464312,0.1397952121836606
12.881336,5.862816590963785,0.1396268159919691
12.883716,5.864588270142594,0.1394137274874771
12.88612,5.864637387828707,0.1392231291913588
12.888504,5.863987657380518,0.1390784957688289
12.890884,5.8622197699174485,0.1390077198342227
12.893292,5.862546530999411,0.138939345854511
12.895676,5.864083996894873,0.1388380320119948
12.898056,5.863619362043919,0.1387754012347888
12.900452,5.86636753275288,0.138641762859287
12.90284,5.867393141969145,0.1385278795552597
12.90522,5.868977829692851,0.1383771931662537
12.907624,5.86897972555072,0.1382386120702298
12.910012,5.865536498423196,0.1381386874077798
12.912392,5.862884667228591,0.1380338523331892
12.914788,5.863677959019378,0.1378919165521303
12.917176,5.868056143422418,0.1377054488085109
12.919556,5.869221522265543,0.1375870758701103
12.921952,5.87504272890756,0.1374025266983483
12.92434,5.889896051893638,0.137101217583612
12.926724,5.9140610304775,0.1366615549287234
12.92912,5.945023707233531,0.1361135690289555
12.931504,5.971470325817531,0.1356260617269572
12.933888,5.994424599587894,0.1352228175438236
12.936284,6.019380974104675,0.1347844757727901
12.938672,6.050623190114427,0.1342243159944011
12.941056,6.077628887205866,0.1337092550363171
12.943452,6.100770152431334,0.1332536576361128
12.945836,6.124190956910521,0.1327823879847703
12.948236,6.14612151732249,0.1323610549601757
12.950632,6.172056279227292,0.1318735179459977
12.953016,6.201855472998068,0.1313327265976021
12.9554,6.227790234902869,0.13085314243648
12.957796,6.256099184606426,0.1303611796497464
12.960184,6.2837092861756805,0.1299174959914662
12.962564,6.308805430319322,0.1294987886664373
12.96496,6.332738091477707,0.1290714586214936
12.967348,6.357090061516672,0.128620406413123
12.969728,6.380371096369,0.1281962955880804
12.972124,6.401138173795712,0.1277968125117022
12.974512,6.419158976371333,0.1273914369445902
12.976896,6.430801389655366,0.1270607644012285
12.979288,6.447379169992012,0.1266596028946627
12.981676,6.46796115182149,0.1261975468520446
12.984072,6.489614068837607,0.1257205379115667
12.986468,6.505540222868193,0.1253205279448471
12.988856,6.520255672085283,0.1249454703468511
12.991236,6.5405581146610405,0.1245041419043988
12.993632,6.564026140968473,0.1240552731338579
12.99602,6.585631836156345,0.1236255742840258
12.9984,6.601370998731829,0.1232781391314006
13.000804,6.610172693508284,0.1230316197204349
13.003192,6.6226990505238525,0.1227419801245001
13.005572,6.636575881979779,0.1224206004291169
13.007968,6.645424798584476,0.1221311806740958
13.010356,6.653994175935453,0.1218577887520703
13.04142,6.604327015332454,0.1217193705295014
13.043816,6.598182839324213,0.1216879292015954
13.046204,6.597905195928361,0.1215808691916962
13.048588,6.601771523652204,0.1214102597233087
13.050984,6.600982023577156,0.1212899585905207
13.053368,6.5957690131286935,0.1212482061122123
13.055748,6.597586018277876,0.1211488372335807
13.058156,6.603407224919893,0.1209953253706155
13.06054,6.60964774044249,0.1208182652081829
13.062924,6.612303363352835,0.1206730325438252
13.06532,6.620266440368129,0.1204819133610381
13.067708,6.62902091331634,0.1202883594615163
13.070092,6.63954516958549,0.1200381211434221
13.072488,6.64639198544377,0.1197835504579491
13.074872,6.6524474053691325,0.1195302458027454
13.077256,6.657012581227276,0.1193188325411098
13.079652,6.665581958578254,0.1190523283378166
13.082036,6.674710414436672,0.1187567786422185
13.08442,6.679834668802258,0.1185169667765011
13.086824,6.684911701339598,0.1183223080992532
13.089212,6.697298288728307,0.1180568583732996
13.091592,6.706611840183959,0.1178383543059782
13.093988,6.71112979421386,0.1176763098541051
13.096376,6.715647748243761,0.1175151750950413
13.09876,6.725752695632331,0.1172972979586068
13.101156,6.741631627834676,0.1169737472715809
13.103544,6.75290195406637,0.1166566885494534
13.105928,6.757933660633338,0.1163910091814877
13.108324,6.7658986335065,0.116091302446605
13.110712,6.7780075774993565,0.1157322249765524
13.113092,6.789092808133818,0.1153493492725308
13.115492,6.803390844328194,0.1149207437110481
13.11788,6.816478175709074,0.1145158353308484
13.12026,6.837806227501096,0.1140410245794749
13.122656,6.861276149666396,0.1135334197751463
13.125044,6.882232114406081,0.11303494825557
13.127424,6.901465517653071,0.1125521174808288
13.12982,6.916275410526646,0.1121397370512207
13.132208,6.934298108960137,0.1116793033257799
13.134592,6.948084288475315,0.1112402553173804
13.136988,6.955631848325767,0.1108491265413096
13.139376,6.961037537802941,0.1104889608420621
13.141772,6.969516263213171,0.1100882429962383
13.144172,6.975481031197786,0.1096992492327211
13.14656,6.976929741010369,0.1093468234087308
13.14894,6.971673300449401,0.1091035180975287
13.15134,6.968371738806606,0.1088778414193582
13.153728,6.968235760895485,0.1086467614683129
13.156108,6.963304185558612,0.108464951295143
13.158504,6.958232840594878,0.1082906302140691
13.160892,6.952462647496843,0.1081521045500774
13.163272,6.943479648838893,0.1080596391968933
13.165668,6.939711556487275,0.1078983429565136
13.168056,6.930076931523267,0.1077991471956634
13.170436,6.922025098425095,0.1076980461396091
13.172832,6.920770963499092,0.1075285632548015
13.175216,6.916443792640034,0.1073960739188844
13.1776,6.922266895139919,0.1071464748686432
13.179996,6.9296727895056405,0.1068975898372867
13.182384,6.941734511670254,0.1066114138336064
13.18478,6.957101587193399,0.1063154347726429
13.187176,6.97540192902274,0.1059897153568604
13.189564,6.994074357904419,0.1056863092570667
13.191948,7.017495162383606,0.105381296730019
13.194344,7.045432025034826,0.1050479298689566
13.196732,7.078444024365517,0.1046561453801351
13.199112,7.109593692576651,0.104279121238468
13.201516,7.140743360787786,0.1039037151338375
13.203904,7.178550957544229,0.1034723184999278
13.206284,7.219431590233726,0.1030132407444961
13.20868,7.264595963669778,0.1025049345894192
13.211068,7.310411963411889,0.1020040294155027
13.213452,7.352735618340364,0.1015648675030689
13.215844,7.395990438828616,0.101118780090237
13.218232,7.4413871296901455,0.1006536880653311
13.220612,7.482779619058842,0.1002341403322066
13.223012,7.526965605106874,0.0997946310150207
13.2254,7.562072252982599,0.0994529313129155
13.22778,7.593733777872932,0.0991269867866396
13.23018,7.624324367576624,0.0988167521080778
13.232568,7.656265431720677,0.0984840717359926
13.234948,7.6934214021710625,0.0981023162061131
13.237352,7.726480623329996,0.0977260327660109
13.23974,7.752649598518144,0.0973735122004471
13.24212,7.777235781840457,0.0970241901255206
13.244516,7.800239173296932,0.0966766203972735
13.246904,7.82938863661952,0.0962726702925603
13.249284,7.85588437288963,0.0958797453167007
13.25168,7.8787952165474895,0.0955078026355278
13.254068,7.897422319458794,0.095186203530029
13.256448,7.912696847183323,0.0949087035602611
13.258844,7.928530453415293,0.0946084113700795
13.261232,7.943572663714345,0.0943082582784071
13.263628,7.959546039573175,0.0940034321412939
13.266024,7.970444278752534,0.0937453365043432
13.268412,7.98255322274539,0.0934709164062745
13.270796,7.995453562671165,0.0931984280954343
13.273192,8.010356003343357,0.0929087103490401
13.275576,8.026561696627665,0.092632342022186
13.27796,8.044769490658389,0.0923418239994088
13.280356,8.060835414315838,0.092075019629737
13.282744,8.070615496480313,0.0918708632576826
13.285124,8.086773967936377,0.0916381533059452
13.287524,8.108379663124252,0.0913807948488233
13.289912,8.12691232237907,0.0911504108494094
13.292292,8.147167543126585,0.0909174996425905
13.294692,8.159274591261573,0.0907538193834499
13.29708,8.177387941635809,0.0905450294596822
13.29946,8.19321965200991,0.0903628976030683
13.30186,8.209330901637733,0.0901696064924639
13.304248,8.222788424213078,0.0899849055578352
13.306628,8.235175011601786,0.08981160879227
13.309028,8.249563699736912,0.0896240334933669
13.311416,8.261298660819563,0.0894450431558752
13.313796,8.27317339152907,0.0892599204261456
13.316196,8.285839518171498,0.0890771978001356
13.318584,8.297993788134729,0.088883347079446
13.320964,8.31028782772482,0.0886842058195673
13.32336,8.323280715449211,0.0884579087799723
13.325752,8.33348010649427,0.088246574505366
13.328132,8.342748331979546,0.0880396473118849
13.330532,8.348431664852573,0.087844156940151
13.33292,8.350390335486484,0.0876677549544636
13.335304,8.34955550944106,0.0875049237531551
13.3377,8.350583014515195,0.08733291720134
13.340088,8.349748188469773,0.087170216300111
13.342472,8.35426803835754,0.0869577310650864
13.344868,8.352781586006062,0.0867886244697423
13.34726,8.355439104774273,0.0865857835935398
13.34964,8.355163357236291,0.0864008451327669
13.35204,8.357960645631367,0.0861918584768067
13.354428,8.359686998839802,0.0859926111404572
13.356812,8.358759624995763,0.085800987563694
13.359208,8.363559014137252,0.0855793136056874
13.361592,8.369569108092241,0.0853424605845949
13.363972,8.366779403128644,0.0851586606405262
13.366368,8.359985496672214,0.0850023838216351
13.368756,8.354262525402424,0.0848364756920083
13.371136,8.348120245252053,0.0846873532004909
13.37354,8.341046799541902,0.0845421083686798
13.375928,8.336115224205027,0.0843776773637646
13.378308,8.337841577413462,0.0841792976261379
13.380712,8.340499096181675,0.0839773200661979
13.383096,8.34837152125622,0.0837348313632347
13.385476,8.359596521517542,0.0834604607194943
13.387876,8.372823622525281,0.0831743151982643
13.390264,8.383908853159742,0.0829080138806265
13.392644,8.39699618454062,0.0826284403239067
13.39504,8.410874911854416,0.0823529689780287
13.397424,8.430759941407462,0.0820401111243066
13.39982,8.447851474281174,0.0817388070390115
13.402224,8.467084877528164,0.0814202338211668
13.404608,8.487109676708071,0.0811038273166648
13.406992,8.49940561215603,0.0808272815131132
13.409384,8.513703648350408,0.0805399890064732
13.411772,8.53694125309023,0.0801980061804881
13.414152,8.565253994509524,0.0798229864636485
13.416556,8.590633469622624,0.0794644463304542
13.418944,8.614430152869888,0.0791030781280405
13.421324,8.637155900930514,0.0787496561923066
13.423728,8.660812814550916,0.0783954503993498
13.426116,8.681955770745704,0.0780434019191839
13.428496,8.700444999888019,0.077696521688306
13.430892,8.715069797164361,0.077371093174042
13.43328,8.726481788880783,0.0770729337766812
13.43566,8.734029348731235,0.0767930641020115
13.438056,8.740785512648769,0.0765112420580098
13.440444,8.7487523813798,0.0762168662709394
13.442824,8.750340860819243,0.0759387187549804
13.445228,8.750067009139133,0.0756681315686871
13.447612,8.753517819698134,0.0753860911505877
13.449992,8.756177234324214,0.0751025991653109
13.452396,8.75897641857716,0.0748143206525119
13.454784,8.770854941002407,0.0744761614658976
13.457164,8.777518557121322,0.0741723447379875
13.45956,8.785392878053736,0.0738581442328325
13.461948,8.787540436000622,0.0735650271938961
13.464332,8.793412656186621,0.0732615052115135
13.466728,8.801286977119036,0.0729482938478594
13.469116,8.811582707678449,0.0726096740340817
13.471496,8.817082840812109,0.072289127097761
13.473892,8.819370168385854,0.0719906776071841
13.476284,8.822309122265656,0.0716990135718119
13.478668,8.822966436145322,0.0714272086669307
13.481064,8.822692584465209,0.0711578181743061
13.483452,8.823349898344874,0.0708852267228984
13.485832,8.824658838530597,0.0706201312064131
13.488236,8.827550570582156,0.0703616212343187
13.490624,8.834027195245971,0.0700975722614775
13.493004,8.840084511029202,0.0698495400214344
13.4954,8.843999956439157,0.069617061045432
13.497788,8.845493992222115,0.0694089802309406
13.500168,8.845777323191577,0.0692131581157646
13.502564,8.840705978227842,0.0690546854237422
13.504952,8.84070976994358,0.0688699287096474
13.507332,8.834427720166346,0.0687233941430131
13.509732,8.835455225240478,0.0685641833838541
13.51212,8.835691334381695,0.0684028712643572
13.514504,8.834716738709412,0.0682538085273896
13.5169,8.833043294902827,0.0681293070008568
13.519284,8.835094513335358,0.0679962869078329
13.521664,8.841010163633861,0.0678498877976194
13.52406,8.8492074539325,0.0676849822889371
13.526448,8.862479880910612,0.0674958875019851
13.528844,8.878545804568061,0.0673014524273915
13.53124,8.89819662083776,0.0671048293577301
13.533628,8.917987206734322,0.0669037610473811
13.536008,8.933121964831992,0.0667131353029367
13.538404,8.951050219608994,0.066517958036768
13.540792,8.965114042520026,0.0663348435106878
13.543176,8.97638436875172,0.0661569642201524
13.545572,8.99072773091647,0.065963695162229
13.547964,9.006002258641,0.0657685271742495
13.550344,9.02141655599239,0.0655688540063483
13.55274,9.034828752597363,0.0653787202633472
13.555132,9.056389121814862,0.0651510843894479
13.557512,9.071151792860192,0.0649461429747586
13.559908,9.083912363159104,0.06475006181721
13.5623,9.09774386864466,0.0645481878589488
13.56468,9.115859114876766,0.0643218609619368
13.567076,9.135045296295512,0.0640905772506984
13.569464,9.15423147771426,0.0638603712652576
13.571844,9.171927415065788,0.0636513997706589
13.574248,9.186270777230538,0.0634671159709031
13.576636,9.200753909022149,0.0632795174119721
13.579016,9.21472518413456,0.0630811068669936
13.581412,9.23069855999339,0.0628760803891264
13.5838,9.245181691785003,0.0626899140201541
13.586184,9.256871326897278,0.0625091453439962
13.58858,9.27056306275597,0.0623201051377537
13.590968,9.291983662346611,0.0621111121102401
13.593348,9.314335427497031,0.0619019760320521
13.595752,9.337897897460946,0.0616830777270275
13.59814,9.360529201865086,0.0614658986812329
13.60052,9.38395190220214,0.0612526151545326
13.602916,9.399878056232728,0.061081766516661
13.605304,9.421530973248846,0.0608984802856064
13.607684,9.445977386944298,0.0607120001679962
13.61008,9.467071225452974,0.0605477028879291
13.612468,9.482158761722404,0.0604056498357324
13.614848,9.492031391685494,0.0602880696716341
13.617244,9.50111262571567,0.0601676583007423
13.619632,9.51340666530576,0.0600306648517131
13.622028,9.526120013776431,0.0598804093354856
13.624424,9.533618455940768,0.0597541341821533
13.626808,9.537252466239137,0.0596373747887526
13.629188,9.537813440604443,0.0595332530367198
13.631592,9.544939795716449,0.0593910859555685
13.63398,9.552205920455307,0.0592447205412869
13.63636,9.562545081127224,0.059086550656372
13.63876,9.566226313253836,0.0589410680708882
13.641144,9.570187084634163,0.0587875653932389
13.643528,9.574008086387634,0.058638970399141
13.645924,9.577549548887385,0.0584989697140038
13.648312,9.581370550640852,0.058350608888055
13.650692,9.588963436461675,0.0581685957214102
13.653092,9.593250968923968,0.0579778474377246
13.655476,9.596747105453344,0.0577844420588987
13.65786,9.60666885310255,0.0575602090457749
13.660256,9.61845293187131,0.057333917181544
13.662644,9.637454017692823,0.057080297714466
13.665028,9.656315333887472,0.0568316249010515
13.667432,9.669449887096594,0.0565928481242518
13.66982,9.681513505119078,0.0563594312223319
13.6722,9.69986296463453,0.0560998771473976
13.6746,9.71993498564268,0.0558431636734097
13.676988,9.744150977770522,0.0555716305137129
13.679368,9.767296034711729,0.0553077818800347
13.681764,9.790161552399216,0.0550530463237745
13.684152,9.810233573407364,0.0548013864044996
13.686532,9.831236759975292,0.0545488073970277
13.688928,9.849958306543083,0.0543114117118007
13.691316,9.86681752199132,0.0540757011623234
13.693696,9.885166981506773,0.0538225706985703
13.696092,9.90179387952953,0.0535671404536168
13.69848,9.914137036805732,0.0533310179083913
13.700864,9.92941346038813,0.0530901555163589
13.70326,9.939754516917915,0.052859923040337
13.705644,9.94502043676823,0.052645839628129
13.708044,9.950845435125988,0.0524152379963433
13.71044,9.951083440125071,0.0521879266484913
13.712828,9.950530049191242,0.0519567562228829
13.715212,9.954912025310016,0.0517153993158718
13.717608,9.961435871802074,0.0514653323669302
13.719996,9.959299689002403,0.051226087653004
13.722376,9.95423023989654,0.050991324455649
13.724776,9.944365193364924,0.0507623775922711
13.727164,9.92742290940742,0.0505512504327233
