Time,Force,Position
14.900324,4.639875137466494,0.1633223420505478
14.912268,4.66156579702151,0.163280677385267
14.914664,4.6730174271347,0.1631568474368558
14.917052,4.683722987285347,0.163156020816212
14.919432,4.698245757473725,0.1631193343544522
14.921836,4.716073881020634,0.1630359779671661
14.92422,4.737486897179798,0.162883177496784
14.9266,4.766536229272289,0.1624845404020087
14.929004,4.7988455887529415,0.1619320675335623
14.931392,4.825754946330026,0.161441037614244
14.933772,4.8522922168547735,0.1609410977659727
14.936175999999998,4.879947644394402,0.1603506220647441
14.938563999999998,4.9032267833888605,0.1598394107059634
14.940944,4.928787562383457,0.1592567077457932
14.94334,4.959935334736722,0.1585544868175339
14.945728,4.996670100448656,0.1577354955265457
14.948108,5.036989758772845,0.156853817501723
14.950504,5.07726219526879,0.1560321385859195
14.952892,5.117487409936492,0.155279957783393
14.955272,5.158084711656532,0.1545426405839413
14.957668,5.196540143003293,0.1538711053916426
14.960056,5.238767458417412,0.153072588895622
14.962436,5.27661848528636,0.1523645262743333
14.964832,5.3146565036104105,0.1515858792556531
14.967216,5.343802175217258,0.1509707582216966
14.969612,5.367780162346018,0.1504466774867034
15.0174,5.428430526495515,0.1504311162096368
15.019784,5.4335509891453615,0.1504112649452566
15.02218,5.4421165747806,0.1503416081234183
15.024564,5.452172404483058,0.1502153384190766
15.026944,5.460273355267342,0.1500815313437446
15.029348,5.46842152787987,0.1498933263944603
15.031736,5.472892260081527,0.1497197976464198
15.034116,5.476990905230847,0.1495218081632058
15.036516,5.483138872954828,0.1492269172303068
15.0389,5.48835567511903,0.1489504056661477
15.04128,5.49464341246987,0.1486459843280785
15.043676,5.50093114982071,0.1483433815688807
15.04606,5.5093135357165846,0.1480424652305693
15.048452,5.52086150534413,0.1477159997752609
15.050848,5.531850396464236,0.1474356156377361
15.053236,5.544142540196458,0.1471637854404646
15.055616,5.557645388742178,0.1468560433177483
15.05802,5.574500812474675,0.14645955329975
15.060408,5.590564840274253,0.1460732972256693
15.062784,5.608678190648491,0.1456015957020741
15.06518,5.626838762850972,0.1450813252297829
15.067564,5.64290468650842,0.14455948082507
15.069964,5.6588780623672505,0.1439981985733535
15.072359999999998,5.6701956104271884,0.1435144219477218
15.074747999999998,5.680442223300488,0.1430555870238029
15.077128,5.690921153599263,0.1426266918054224
15.079532,5.704006589122273,0.1422074527265556
15.081915999999998,5.722539248377092,0.1417064327419912
15.0843,5.737439793191414,0.1413120734099572
15.086695999999998,5.752200568378877,0.1409276336755444
15.089083999999998,5.768963444312756,0.1405058291118822
15.091464,5.779999557261105,0.1401832505183944
15.09386,5.785728216104504,0.1399352477018611
15.117748,5.701802504676287,0.1398654872722775
15.120128,5.699056229825195,0.1398588836703565
15.122524,5.697101350907022,0.1398469874603305
15.124912,5.699569982362261,0.1397310879080472
15.127308,5.705158871578801,0.1395044352992844
15.129703999999998,5.70623170262331,0.1393412700334435
15.132087999999998,5.710145252175394,0.1390863828889318
15.134472,5.716480211354478,0.1387689109579983
15.136867999999998,5.718019573107808,0.1385299485605508
15.139255999999998,5.7255652371003904,0.1381779499723736
15.141636,5.737906498518724,0.1377464311867763
15.144032,5.7530412566163935,0.1372722863870138
15.14642,5.776416735125205,0.1366793113830409
15.1488,5.801514775126716,0.1360687969227775
15.151196,5.822980700687731,0.1355495904850664
15.153584,5.84602941811458,0.1350230549815787
15.155979999999998,5.862512754794739,0.1346422284663277
15.158376,5.87834446516884,0.1342562332715869
15.160764,5.893943858117464,0.1338397247308681
15.163144,5.906470215133033,0.1334855039380765
15.165539999999998,5.914480513976569,0.1331941783080248
15.167927999999998,5.921559647260328,0.132919228901886
15.170308,5.930501111663642,0.1326176620065952
15.172703999999998,5.931946029760487,0.1324768797960477
15.175092,5.932552330096171,0.13239142439755
15.18226,5.937208157895063,0.1323231666126299
15.196604,5.977799772041494,0.1322740228353868
15.198984,5.989485615438031,0.1321374844274836
15.20138,6.000659602155372,0.1319893023941835
15.203763999999998,6.019981761485239,0.1316976109185118
15.206144,6.040886712680943,0.1313980676028435
15.20854,6.0640260820485405,0.1310988419277982
15.210924,6.089167552162554,0.1307659949081489
15.213319999999998,6.116683210075324,0.1304200194931287
15.215724,6.142988163174594,0.1301045414703763
15.218108,6.170503821087364,0.1297658641637349
15.220491999999998,6.208029982732215,0.1292652610121071
15.222896,6.243042186951454,0.1287857501413766
15.22528,6.279684404864772,0.1282571852336387
15.227659999999998,6.308225671993808,0.1278153444706148
15.230056,6.3396076576304194,0.1272937799240545
15.232444,6.361677987669247,0.1268972720537299
15.234823999999998,6.380442964349543,0.1265271293458529
15.237228,6.403351912149533,0.1260852481155495
15.239612,6.428123191069079,0.1256230854709901
15.241996,6.455687966667961,0.125130678169096
15.2444,6.481390411147284,0.1246643844484817
15.246784,6.503972597865312,0.1243004222155422
15.249164,6.528277346076035,0.1239271656839287
15.251564,6.552302555033036,0.1235759516750431
15.253948,6.577678238430399,0.1231936798383239
15.256327999999998,6.5986776332825885,0.122849822836671
15.258728,6.621027502575138,0.1224756604945638
15.261112,6.643936450375128,0.1220723708954651
15.263495999999998,6.669406577428974,0.1216128629410094
15.265892,6.692222977430347,0.121181303412656
15.26828,6.710383549632828,0.1208072858128903
15.270663999999998,6.730406452954865,0.1204140263838564
15.27306,6.749358421090265,0.1200419742938819
15.275448,6.776830648890528,0.1195717959748807
15.277827999999998,6.797597726317242,0.1192191390468725
15.280224,6.821949696356207,0.1188330390563313
15.282607999999998,6.847744688634148,0.1184518984714514
15.285004,6.871537580165674,0.1181000117353267
15.287408,6.891326270204366,0.1178022708898772
15.289796,6.905388197257526,0.1175708743128566
15.292176,6.919589893937549,0.1173326105322393
15.294572,6.933838812445813,0.1170537165492554
15.296956,6.940638406475851,0.1168512984083498
15.29934,6.946926143826691,0.116638411889813
15.301736,6.951211780431114,0.1164527328555958
15.304124,6.95922207927465,0.1162297474447071
15.306504,6.962948637371634,0.1160737375204097
15.3089,6.964673094722199,0.1159438765099095
15.311288,6.966769639125102,0.1158350610919435
15.313667999999998,6.969378040207204,0.1157391774731981
15.316064,6.9690531749831095,0.1156776998161338
15.318447999999998,6.968868079385874,0.1156091994659015
15.32324,6.956764822966626,0.1156084333882761
15.325628,6.957697884384274,0.1154825002382844
15.328008,6.956256758003168,0.1153616265749589
15.330415999999998,6.952720983077026,0.1152316014310062
15.3328,6.951746387404745,0.1150486318774419
15.33518,6.953193201359459,0.1148191185998746
15.337576,6.958644216807007,0.1145395682557475
15.339964,6.964886628187473,0.1142592019126382
15.342348,6.9671248380751045,0.1140278249486318
15.344744,6.976020976508045,0.1137271866959352
15.347132,6.979981747888375,0.1134846682382069
15.349512,6.982080188149147,0.1132590847310611
15.351908,6.978591635051249,0.1130856169282235
15.354296,6.977664261207209,0.1128580656098204
15.356675999999998,6.979949692923085,0.1125832682662618
15.359072,6.97799860572065,0.1123308057047115
15.36146,6.971531460346184,0.1121137335789684
15.363839999999998,6.9679975812779125,0.1118630906226508
15.366236,6.965534637396279,0.1115976605217461
15.368624,6.96721566463434,0.1112758002678266
15.37102,6.970759022991957,0.1109369804463431
15.373416,6.967876770229744,0.1106932595079948
15.375804,6.968579410079783,0.1104232023688617
15.378184,6.968722971422381,0.1101811749894436
15.380587999999998,6.966445123137984,0.1099850141007892
15.382972,6.965238210040223,0.1097739624235012
15.385352,6.964171066569324,0.1095565664562495
15.387755999999998,6.962312527165504,0.1093405632722398
15.390144,6.965249585187438,0.1090774444258894
15.392524,6.965113607276317,0.1088526974539787
15.394923999999998,6.968842061231168,0.1085886405007269
15.397312,6.976574716678854,0.1082792660779286
15.399692,6.990173904738929,0.1079078584151045
15.402088,7.004284949478203,0.1075512117103421
15.404476,7.014252023097783,0.1072477263388558
15.406856,7.024870723023421,0.106949490491643
15.409259999999998,7.04028502037481,0.1066039242074067
15.411644,7.054768152166421,0.1062676711438617
15.414024,7.0660384783981165,0.1059767709734103
15.416427999999998,7.078100200562731,0.10568752955919
15.418815999999998,7.09351449791412,0.1053520491190923
15.421196,7.109999730452147,0.1050005764704943
15.4236,7.127416128549953,0.1046457757670188
15.425983999999998,7.1429701955282034,0.1043033031811119
15.428364,7.158524262506452,0.1039612647072604
15.430763999999998,7.171377380603984,0.1036755858231567
15.433148,7.184090729074654,0.1033986256845527
15.435532,7.196664307918467,0.1031289995974367
15.437928,7.208166951575639,0.1028755937295978
15.440316,7.221811465606088,0.1025946756487295
15.442692,7.235316210009678,0.1023220298576047
15.445088,7.24667908403999,0.1020784816859537
15.447476,7.259904289189859,0.1018246572423748
15.449856,7.275271364713005,0.101546642749824
15.452252,7.289567505049512,0.1012797753166371
15.45464,7.30465504131894,0.1010124221158971
15.457036,7.321744678334782,0.1007279179854127
15.459431999999998,7.338694545723765,0.1004506095900882
15.461816,7.356855117926246,0.1001533662465822
15.4642,7.372082423822532,0.0998837818625151
15.466596,7.3810238882258465,0.0996879826326034
15.468984,7.392898618935357,0.0994668576193044
15.471364,7.401048687405754,0.099272782660444
15.473767999999998,7.415205058115402,0.0990212103081756
15.476155999999998,7.426428162518853,0.0987943132994127
15.478536,7.445008043601915,0.098486476069224
15.480932,7.462516989498337,0.0981925802425444
15.483316,7.482028036141177,0.0978814163273456
15.4857,7.498326277224102,0.0976079417018901
15.488096,7.515835223120525,0.0973181281122172
15.49048,7.531621607524253,0.0970348054820689
15.49286,7.545545660808421,0.0967631638985314
15.495264,7.550530145547146,0.0965720511819599
15.497652,7.554583464726092,0.0963887726555572
15.500032,7.565574251704068,0.0961453806605034
15.502428,7.575773642749125,0.0959013862987804
15.504816,7.580758127487849,0.0957128502341243
15.5072,7.582017949987461,0.0955472231540356
15.509596,7.580996132486934,0.0954121972031963
15.51198,7.581696876479104,0.095271586420591
15.514376,7.586401821964109,0.0950945473520122
15.516775999999998,7.591246537075974,0.0949125989420267
15.519163999999998,7.5948805473743395,0.0947485125017989
15.521544,7.596512456926288,0.0946034630910899
15.523939999999998,7.604150668717487,0.0944052545463928
15.526328,7.603920247149879,0.09427258101197
15.528708,7.603829595209132,0.0941337708589607
15.531104,7.59987451140241,0.094023618248205
15.533492,7.599132233155604,0.0938779334145382
15.535872,7.598110415655078,0.0937453695050767
15.538275999999998,7.599742325207027,0.0936027716911474
15.540663999999998,7.605098896998088,0.0934384782156163
15.543048,7.617392936588179,0.0932167071332236
15.545443999999998,7.625263465804855,0.0930477570146789
15.547828,7.631271663901976,0.0928915963611252
15.550208,7.637559401252816,0.0927230748697956
15.552608,7.64813087935021,0.0925090530166192
15.554996,7.668293552299108,0.0922313595665725
15.557376,7.695673232300755,0.0918889213512201
15.559772,7.71932825006329,0.0915662802846008
15.56216,7.742983267825823,0.0912467778702698
15.56454,7.764496415215079,0.0909515039726023
15.566947999999998,7.788803059283671,0.0906403944338199
15.569332,7.811107602605846,0.0903461938327425
15.571712,7.828337009248548,0.0900963491283014
15.574111999999998,7.847428747010808,0.0898359332368822
15.5765,7.868382815892623,0.0895671507920867
15.57888,7.892270151080635,0.0892775900537111
15.581276,7.916017716641786,0.0889956698550152
15.583664,7.93790295108338,0.0887254075065231
15.586059999999998,7.958205393659139,0.0884547577590652
15.588456,7.976785274742201,0.0881892756151004
15.590844,7.995504925452122,0.0879205542018051
15.593227999999998,8.016785755415903,0.0876124684840588
15.595624,8.036716110939324,0.0873285990115566
15.598012,8.061022755007913,0.0870354187166127
15.600392,8.08360683758381,0.0867480659672097
15.602796,8.100184617920457,0.0865078474573084
15.605184,8.11103563527157,0.086301895809501
15.607563999999998,8.126822019675297,0.0860628501238857
15.60996,8.139814907399689,0.0858376591771531
15.612348,8.153738960683857,0.0856087758910348
15.614727999999998,8.166219991729053,0.0853718866269476
15.617132,8.180703123520663,0.0851212807077039
15.61952,8.199190456805107,0.0848428156939057
15.621895999999998,8.216094998223717,0.084561377100525
15.624296,8.228064172589715,0.0843121638092552
15.62668,8.238031246209294,0.0840773178375256
15.629063999999998,8.246415527963038,0.0838399573972749
15.631468,8.252657939343502,0.0836217404677337
15.633852,8.256758480350692,0.0834228465243592
15.636235999999998,8.260998790984743,0.0832186343354271
15.638632,8.262305835312597,0.0830327869152299
15.641016,8.261331239640313,0.0828715988632165
15.643399999999998,8.260775952848611,0.082694025882693
15.645796,8.256775543071518,0.0825220186798354
15.648179999999998,8.251145119600343,0.0823816148156848
15.650564,8.245934005009747,0.0822244835836963
15.652959999999998,8.24230568228499,0.0820706501647619
15.655347999999998,8.238165502881033,0.0819045515783044
15.657728,8.234956489036856,0.0817344916928885
15.660123999999998,8.229233517767067,0.0815645730684413
15.662511999999998,8.227514747990108,0.0813691120827635
15.664908,8.225935747840008,0.081168714047203
15.667304,8.222634186197213,0.0809706305283159
15.669688,8.221055186047117,0.080770465437441
15.672071999999998,8.223759926643574,0.0805338244129669
15.674472,8.228746307240167,0.0802740368633838
15.67686,8.237597119702734,0.0799960331527174
15.679239999999998,8.251942377725353,0.079669344291764
15.681636,8.272433707614084,0.0793024583837589
15.684024,8.293716433435733,0.0789390290559765
15.686403999999998,8.314207763324465,0.0785730900184945
15.688808,8.338051668399972,0.0781759042099444
15.691196,8.357099976049724,0.0778002200517451
15.693575999999998,8.375217118139702,0.0774284438970734
15.695976,8.396035209110396,0.0770185832615712
15.698364,8.415922134521313,0.0766126335387581
15.700743999999998,8.433574641760336,0.0761954513480849
15.70314,8.44894550899922,0.0758019203355554
15.705528,8.462314275491687,0.0754195393014046
15.707907999999998,8.47861630829035,0.0750230567708755
15.710304,8.490634600342458,0.0746621332291846
15.712692,8.498928230155455,0.074313226862798
15.715072,8.509363730341727,0.0739495104485865
15.717467999999998,8.519939000154862,0.0735811267998692
15.719855999999998,8.52730146440808,0.0732375198974988
15.722252,8.533732763101517,0.0728979818159966
15.724648,8.53643939955584,0.0725711014730421
15.727032,8.532720424890336,0.0722924610048716
15.729411999999998,8.526719810224693,0.0720365988023147
15.731808,8.519927799626133,0.0717784665198827
15.734196,8.515789516080046,0.0715174770898546
15.736576,8.514584498840156,0.0712453390674437
15.738976,8.520177179772432,0.0709455019794042
15.741359999999998,8.52549032145099,0.0706555658501053
15.743756,8.52838205350255,0.0703914429422105
15.746152,8.533136116673667,0.0701228790330964
15.74854,8.541195533203316,0.0698606598868141
15.75092,8.553119381598938,0.0695851241546273
15.753316,8.565182999621422,0.0693035178674464
15.755704,8.575896143203545,0.0690403690883618
15.758083999999998,8.58553835159903,0.0687837846546765
15.760488,8.598625682979907,0.068528039293109
15.762876,8.608220669547151,0.068305402146427
15.765256,8.617536116860673,0.0680932982068646
15.76766,8.629645060853528,0.0678744528921569
15.770048,8.640123991152308,0.0676832948649709
15.772428,8.647762202943506,0.0675314757386663
15.774824,8.65847345066776,0.0673623305738433
15.777208,8.664389100966263,0.0672094196386046
15.779588,8.672306852011182,0.0670478792258194
15.781992,8.683157869362296,0.0668762921044342
15.78438,8.6878628148473,0.0667382039275061
15.78676,8.691357055518806,0.0666132102233246
15.78916,8.698995267310005,0.0664658833477112
15.791548,8.709706515034261,0.066303229480305
15.793928,8.721348928318292,0.0661397833284398
15.796324,8.73019784492299,0.0659825173259484
15.798712,8.737184430408131,0.0658300778628294
15.801092,8.747244051826328,0.0656626661262676
15.803492,8.755441342124971,0.0654986069615531
15.80588,8.767922373170165,0.0653081609489616
15.80826,8.781753878655715,0.065102525525064
15.810656,8.799217498581767,0.0648635152669006
15.813044,8.816820888134677,0.0646200474234515
15.815423999999998,8.836985456941441,0.0643512602171852
15.81782,8.859571435375205,0.0640602231936098
15.820208,8.88993349936916,0.0637153760607463
15.822604,8.920155793736257,0.0633759942019757
15.825,8.952240419222909,0.0630321930640573
15.827388,8.981252008776503,0.0627045220986019
15.829768,9.004536835344569,0.0623926730575939
15.832164,9.029823762659053,0.0620727663066367
15.834552,9.050315092547782,0.0617653931617014
15.836936,9.068804321690097,0.0614682135333179
15.839332,9.085431219712852,0.0611754078145318
15.84172,9.098053916242776,0.0608982055275667
15.8441,9.11146800870562,0.0606243867866594
15.8465,9.123811165981822,0.0603575194133662
15.848888,9.136805949564083,0.0601002603447189
15.851268,9.154875869825815,0.0598232860312079
15.853664,9.174947890833966,0.0595422465468799
15.856052,9.194740372588395,0.0592725670722305
15.858432,9.209038408782774,0.059036978127509
15.860828,9.227480416096844,0.0587849023046498
15.863216,9.243501013783918,0.0585553494247829
15.865612,9.26045277703077,0.058326176091662
15.868016,9.272981029904209,0.0581253365115995
15.870404,9.28779092277778,0.0579099499854188
15.872784,9.307675952330827,0.0576776232265989
15.875184,9.329423313003431,0.0574439597285929
15.877567999999998,9.354895335915147,0.0572072098831645
15.879952,9.379436193267086,0.0569717178718099
15.882348,9.407841482484995,0.0567281587731142
15.884735999999998,9.434104901329633,0.0564959492752186
15.887116,9.462090881666962,0.0562678058982504
15.889516,9.494872459430043,0.0560318289835591
15.891899999999998,9.528724972379766,0.0557914264577198
15.894284,9.560575384583071,0.0555571235536792
15.896679999999998,9.592425796786378,0.0553245744595363
15.899067999999998,9.622274108243266,0.0551001692381804
15.901452,9.645976347834043,0.0548990027420662
15.903847999999998,9.667956025932122,0.0546959516696671
15.906235999999998,9.697804337389009,0.054475328222803
15.90862,9.722437742539569,0.0542768934059793
15.911015999999998,9.746139982130344,0.0540798382642747
15.913403999999998,9.765977789855146,0.053890147355525
15.915788,9.786095136833673,0.0536923128842985
15.918183999999998,9.8020685126925,0.0535101829712948
15.920571999999998,9.811244190379163,0.0533410826283618
15.922952,9.8225617384391,0.0531635165512821
15.925356,9.82894391944643,0.0529969008851163
15.927739999999998,9.838119597133089,0.0528292337760757
15.930124,9.850508080379669,0.0526488329401587
15.932519999999998,9.865969599559298,0.0524592167570238
15.934903999999998,9.87677529094004,0.0522718377396585
15.937284,9.88292515452189,0.0520868881395229
15.93968,9.88828362217082,0.0518985527702581
15.942068,9.896854895379668,0.0516966562459702
15.944448,9.901841275976262,0.0514922220152672
15.946851999999998,9.903754620639798,0.0512971064319628
15.949239999999998,9.906738900489977,0.0510970464817823
15.95162,9.9066501444071,0.0509058478692261
15.954016,9.898972294219131,0.0507214575628525
15.956404,9.891434213658028,0.0505325123358476
15.958784,9.880823097163866,0.0503521649051625
