Time,Force,Position
17.428224,4.9039083941838495,0.1652025892652947
17.430624,4.913312597580251,0.1650433367234998
17.433008,4.9317961391489575,0.1646403769607073
17.435392,4.951537607359405,0.1641407019523956
17.437792,4.962479276651267,0.1638626647583899
17.440176,4.9762144426224655,0.1635256486762653
17.44256,4.995164514899995,0.1630505931371053
17.444955999999998,5.016256457550802,0.1625127120525432
17.447344,5.036045147589494,0.1619545768469142
17.449728,5.055042441695266,0.1614095663323858
17.452128000000002,5.080697664346348,0.1607142671318008
17.454515999999998,5.110170097035159,0.1599870920372465
17.456896,5.141317869388423,0.159282891916182
17.459291999999998,5.174048433607525,0.1585616529689963
17.46168,5.208501559319323,0.1578112795169404
17.464064,5.2454686424567365,0.1570319406347341
17.466459999999998,5.2863927052587405,0.1562203046819172
17.468843999999997,5.329179099180299,0.1553709713585369
17.47124,5.362933376757797,0.1547002848049684
17.473639999999996,5.391659739484064,0.1541031605144505
17.476028,5.416149583292021,0.1535831240475262
17.478408,5.43249125448745,0.1532771807407073
17.480812,5.448553386429158,0.1530006888124643
17.483199999999997,5.460983403930372,0.1528410697912415
17.48558,5.475183204752523,0.1525981346072823
17.487975999999996,5.488731379268618,0.1523566515583178
17.490364,5.498507669717355,0.1522443144468637
17.492748,5.510658147964847,0.1521115751306733
17.495143999999996,5.531748194757784,0.1517807110079986
17.497532,5.551255449684885,0.1514648873480356
17.499912000000002,5.566106876813095,0.1512405921103209
17.502308,5.579887368754666,0.1510458878968201
17.504696000000003,5.599813932562349,0.1507156302206838
17.507080000000002,5.619088870063974,0.1503845860280547
17.509476,5.6342670582741485,0.1500965528132235
17.511864000000003,5.643346396446453,0.1498967404242291
17.514248000000002,5.645255949394254,0.1498118287401155
17.516644,5.649679459767667,0.1496977425281699
17.519032000000003,5.659410424246031,0.1495020685348499
17.521408,5.670724180590232,0.1492897532734573
17.523808000000002,5.680175605814875,0.1491112134671165
17.526196,5.6984268299581045,0.1487586223797834
17.528576,5.713977105220616,0.148499965582885
17.530972,5.734462747535738,0.148141382157725
17.533360000000002,5.754808620224001,0.1477913618726873
17.535756,5.771429830673151,0.1475068470219014
17.538151999999997,5.786328479629604,0.147243885764178
17.54054,5.797502466346943,0.1470480017172206
17.542920000000002,5.806394813064148,0.1469171850629796
17.545319999999997,5.81449576384843,0.1467920640590793
17.547708,5.820874153140019,0.1466886701728137
17.550088000000002,5.829022325752547,0.1465145349587598
17.552487999999997,5.830093260939184,0.1464895829070489
17.554876,5.832746987991658,0.1464524172907995
17.557256000000002,5.84312957877608,0.1462746864802286
17.559652,5.858167997359393,0.1460194849658869
17.562039999999996,5.878933178928236,0.1456621743190375
17.564424000000002,5.898115568631243,0.1453233978917735
17.56682,5.918368893520889,0.1449639418565836
17.569207999999996,5.940764088783814,0.1445562818652105
17.571588,5.963159284046736,0.1441462135760136
17.573983999999996,5.971307456659264,0.1439808107966299
17.576372,5.979502851100034,0.1437669980446216
17.578756,5.9827628784881925,0.1436464323650502
17.581151999999996,5.988676632928826,0.1434907328947886
17.58354,5.996452718489016,0.1433043698551817
17.58592,6.007441609609123,0.1430463346320978
17.588316,6.024297033341619,0.1426851219522684
17.590708,6.039010586700838,0.1423730537241191
17.593088,6.057960658978368,0.1420161024605618
17.595484,6.077981666442537,0.1416327706621843
17.597876,6.091996371667454,0.1413654038237768
17.600256,6.103357349839897,0.1411290270371146
17.602652,6.112064600959866,0.1409289654740033
17.605040000000002,6.113974153907666,0.1408514592962812
17.616999999999997,6.08883837136726,0.1408306641884613
17.619388,6.081763029799239,0.1408302596399717
17.621772,6.083627256776666,0.1406668766574407
17.624167999999997,6.083209843753956,0.1405583398463975
17.626556,6.088798732970494,0.1403385495167464
17.628935999999996,6.092665060694337,0.1401391248991978
17.631335999999997,6.098813028418317,0.1398865808567685
17.633724,6.105520074649737,0.1396022090159974
17.636108,6.1055691923358495,0.1394231071519585
17.638503999999998,6.103895748529265,0.1392619206437837
17.640892,6.101989987297202,0.1390722531382284
17.643276,6.102086326811559,0.1388474995651934
17.645671999999998,6.109399673378663,0.1384884692861898
17.64806,6.121927926252101,0.1380270315338027
17.650439999999996,6.136178740618235,0.1375478923473607
17.652839999999998,6.152291886103924,0.1370406496781802
17.655228,6.164121290843062,0.1366203666109141
17.657612,6.179023731515254,0.1361430608548088
17.660007999999998,6.193646632933725,0.1356789221904467
17.662391999999997,6.211854426964449,0.1351745226729734
17.664772,6.229782681741454,0.1346902996130526
17.667167999999997,6.248502332451375,0.134204410135178
17.669556,6.262798472787883,0.1338138130798749
17.671936000000002,6.280027879430586,0.1333748222893594
17.67434,6.291250983834038,0.1330416163414494
17.676727999999997,6.301542922677712,0.1327211115932958
17.679108,6.3090413648420505,0.1324410865865868
17.681511999999998,6.314258167006251,0.1322138841134612
17.6839,6.322128696222928,0.1319567698936035
17.686279999999996,6.332932491745799,0.1316527352865911
17.688676,6.3374504457757,0.1314666434526871
17.69106,6.34289956536538,0.1312695148633911
17.693440000000002,6.340712369021728,0.1312273190090281
17.695836,6.338105863797496,0.131210094060656
17.698223999999996,6.334707962640347,0.1311968045813642
17.70062,6.333312162229614,0.1311506548211494
17.703015999999998,6.337922664058132,0.131006841170713
17.705399999999997,6.341322461073151,0.1308922042577906
17.707783999999997,6.347143667715168,0.1307200396357743
17.71018,6.347657420252235,0.1306043404884576
17.712567999999997,6.347519546483243,0.1304844196315249
17.714948,6.346310737527613,0.1303847597363414
17.717351999999998,6.350596374132038,0.1301774228036225
17.719735999999997,6.353950845176681,0.1299823884537881
17.722116,6.360797661034962,0.129711454868796
17.72452,6.368575642453021,0.1294285668207852
17.726908,6.378867581296696,0.1291281747711596
17.729287999999997,6.386598340886511,0.1288905008085539
17.731684,6.394468870103188,0.1286458353093828
17.734071999999998,6.4024791689467255,0.1283945426683246
17.736452,6.416495770029513,0.1280485688149772
17.738847999999997,6.426508169619466,0.1277655295119049
17.741236,6.4401526836499166,0.1273969076119028
17.743615999999996,6.452074636187669,0.1270437107105086
17.74602,6.462134257605866,0.1267128800463359
17.748407999999998,6.470052008650786,0.1264231761678984
17.750788,6.474756954135791,0.1261941295525064
17.753183999999997,6.480393065180573,0.1259543411443804
17.755567999999997,6.490685004024248,0.125661819578549
17.757951999999996,6.501628569173979,0.125372653492464
17.760348,6.51229259506999,0.1250998417477526
17.762735999999997,6.523748016898919,0.1248246243493469
17.765132,6.53385296428749,0.1245878492504792
17.767528,6.547170717235976,0.1242977227913829
17.769911999999998,6.559929391677021,0.1240408469940469
17.772295999999997,6.574829936491343,0.1237493727789251
17.774692,6.5866574453726106,0.1235054903574252
17.777079999999998,6.602117068694374,0.1231830382700715
17.779463999999997,6.613712260150163,0.1229094962798702
17.78186,6.626238617165732,0.1226279925483395
17.784244,6.636623103808022,0.1223841181248734
17.786628,6.653945058249343,0.122047769992509
17.789023999999998,6.670707934183221,0.1217424756785663
17.791407999999997,6.691475011609933,0.1213839363060257
17.793791999999996,6.71475604646226,0.1210093753828981
17.796188,6.735103815008393,0.120670214386768
17.798572,6.754520417994746,0.1203405308297687
17.800972,6.773797251354241,0.1200202773027353
17.803368,6.786136616914704,0.1197962175489455
17.805752,6.800478083221587,0.1195446905850616
17.808135999999998,6.815099088782189,0.1192784491020347
17.810532000000002,6.829999633596511,0.1189987298689933
17.812924000000002,6.840104580985081,0.1187759154591123
17.815303999999998,6.844715082813599,0.1186484573874312
17.817700000000002,6.846532087962781,0.1185504804511375
17.820088,6.845927683484967,0.1185025841453362
17.822471999999998,6.849467250126847,0.1183933229682373
17.824868000000002,6.853658443074785,0.1182901275980246
17.827256,6.863716168635112,0.1181145317303878
17.829636,6.870840627889243,0.1179758143950893
17.832031999999998,6.881038123076432,0.1177950831142657
17.834424,6.88429815046459,0.1177032551114934
17.836804,6.8927730841590815,0.1175374021368928
17.839208,6.897104046733879,0.1174306689114149
17.841592,6.905067123749172,0.1172554387070895
17.843972,6.921318143003853,0.1169677249014778
17.846368,6.94064219819159,0.1166403365106174
17.848756,6.959314627073268,0.1163087336425172
17.851135999999997,6.979849387074504,0.1159581244372646
17.853532,7.002665787075876,0.1155731692209021
17.855919999999998,7.026273583010167,0.1151882998139064
17.858316000000002,7.050533005250515,0.1148118539329446
17.860715999999996,7.081590125663032,0.1143631719522485
17.863100000000003,7.115720282008605,0.1138729683489843
17.865484000000002,7.153854639847012,0.1133352818670431
17.86788,7.19706413436489,0.1127405135139267
17.870267999999996,7.234267326643519,0.1122179571251572
17.872647999999998,7.268537252615952,0.1117291458174464
17.875044000000003,7.298802977095551,0.1112903793366941
17.877428000000002,7.331862198254485,0.1108284068294002
17.879807999999997,7.361988153107225,0.1104019594681545
17.882208,7.395047374266158,0.109943525069178
17.884591999999998,7.421169127626064,0.1095663105564554
17.886975999999997,7.451155312851943,0.1091519736480079
17.889372,7.476438448450687,0.1088210356377812
17.891759999999998,7.496227138489378,0.1085736330425977
17.894156000000002,7.514944893341431,0.1083427625539498
17.896552,7.535524979313041,0.1080984824993177
17.898939999999996,7.557176000471289,0.1078407647307569
17.90132,7.574403511256122,0.1076477258146788
17.903716000000003,7.593772892414234,0.1074292253959173
17.906104,7.610768085773589,0.107214316504885
17.908484,7.620965580960776,0.1070643092221041
17.91088,7.630651219468767,0.1069027584976105
17.913268000000002,7.6414077931633955,0.1067296669858543
17.915652,7.6436441071931585,0.1066272950225172
17.918048,7.650955557902394,0.1064702055655817
17.920436000000002,7.660269109358047,0.1062926570555232
17.922815999999997,7.671584761560116,0.1060946854097974
17.925212000000002,7.680898313015769,0.1059179587033513
17.927599999999998,7.689280698911642,0.1057481712484574
17.929996000000003,7.696592149620879,0.1055921334976015
17.932392,7.706976636263169,0.105402282719363
17.934779999999996,7.714707395852986,0.1052281637596233
17.937164000000003,7.724347708390601,0.1050034321122554
17.93956,7.731334293875743,0.104791940093814
17.941947999999996,7.733385512308271,0.1046271481325467
17.944328,7.731292759621106,0.104509413763745
17.946728,7.730270942120581,0.1043788266214599
17.949115999999997,7.730459829433554,0.1042284719955796
17.951496,7.723291940066917,0.104164578376636
17.953896,7.717567072939256,0.1041058274684879
17.956283999999997,7.719710839170403,0.1039733228718975
17.958667999999996,7.725579267640662,0.1038149009785915
17.961064,7.726512329058309,0.1037028977001394
17.963451999999997,7.732101218274849,0.1035570290394144
17.965835999999996,7.733034279692498,0.1034446210183081
17.96824,7.735317815550503,0.1033074402178967
17.970627999999998,7.738951825848869,0.103145882304564
17.973008,7.743936310587594,0.1029596655236711
17.975403999999997,7.748920795326317,0.1027730675942271
17.977792,7.753393423385845,0.1025742458976462
17.980176,7.75893698663201,0.1023640471456572
17.982571999999998,7.763409614691536,0.1021663392827239
17.98496,7.766252229056983,0.1020063548150416
17.987344,7.774169980101902,0.1017963479546788
17.989739999999998,7.790096134132489,0.1015116168843598
17.992128,7.809374863349852,0.1011832295205225
17.994507999999996,7.8257203262610195,0.1008809268647365
17.996904,7.839412062119713,0.1005903373599499
17.999291999999997,7.860879883538597,0.1002003814236349
18.001672,7.882767013838059,0.0997939556933893
18.004067999999997,7.895854345218937,0.0994628462602877
18.006456,7.9002816473080895,0.0991993802590603
18.008836000000002,7.9065712805168,0.0989230907809385
18.011232,7.912209287419452,0.0986414229675496
18.013616,7.9245052228674115,0.0983121741183508
18.016,7.933588352755456,0.0980204126093699
18.018404,7.939458677083585,0.0977656689752002
18.020788,7.942395735105518,0.0975348024999695
18.023168,7.949476764247146,0.0972633904448843
18.025568,7.958420124508329,0.0969810100704146
18.027952,7.960426016970485,0.0967565363863304
18.030336,7.964713549432777,0.0965027256165398
18.032732000000003,7.966347354842595,0.0962593255373542
18.035116,7.967189764319495,0.0960168875661099
18.037516,7.964447281184142,0.09579231667919
18.039912,7.962635963608566,0.0955630885652449
18.042296,7.961104185286711,0.0953215833088117
18.04468,7.966230335510165,0.0950364903854066
18.047076,7.965070644240649,0.0948138584726206
18.04946,7.960046521105159,0.0946182651542041
18.051844000000003,7.959166369089363,0.0943824937376438
18.05424,7.962942044872458,0.0941182033740148
18.056628,7.965134928789717,0.0938524667314528
18.059008,7.966117107893476,0.0936040338973305
18.061404,7.963234855131263,0.0933842989258207
18.063792,7.958630040876352,0.0931684084485705
18.066188,7.954025226621442,0.0929520789502946
18.068588,7.951282743486089,0.0927246018064057
18.070972,7.943604893298123,0.0925358888241144
18.073352,7.933924942363741,0.0923635131178065
18.075756,7.929320128108832,0.0921458986622582
18.078144,7.922573443480645,0.0919507379661081
18.080524,7.92090189553193,0.0917113109172122
18.082928000000003,7.920021743516133,0.0914737024443365
18.085312,7.918722282619756,0.0912540248901258
18.087696,7.913558389857405,0.091060598663543
18.090092,7.910117058587751,0.090863027674733
18.09248,7.901880129892344,0.0906966741299006
18.094856,7.901511834555745,0.090473932917655
18.09726,7.905939136644898,0.0902210189363043
18.099648,7.91008689948033,0.0899800668910897
18.102028,7.91637653268904,0.0897188574399363
18.104424,7.926251058510004,0.0894449513376233
18.106812,7.93905885063716,0.0891518724615126
18.109192,7.949864542017901,0.0888735992343999
18.111596,7.963975586757176,0.0885932121031069
18.113984,7.978366170750168,0.0883009851459717
18.116364,7.992616985116302,0.088015031479935
18.118764,8.007519425788495,0.0877350760577371
18.121148,8.022002557580103,0.0874719662212946
18.123532,8.036997546050914,0.0872224911036168
18.125928,8.05157322564114,0.0869899253980708
18.128316,8.066800531537426,0.0867669829523013
18.130696,8.07574199594074,0.0866001779993984
18.133096,8.0828211292245,0.0864423012474291
18.135484,8.091622824000956,0.0862808016665562
18.137868,8.096560086911436,0.0861433789538784
18.140264,8.104290846501254,0.0859926725335463
18.142652,8.104152972732264,0.0858962620542379
18.145036,8.101733458963135,0.0858263476117017
18.147432,8.10252675075392,0.0857262183251135
18.14982,8.101038402544573,0.0856522447823166
18.1522,8.097547953588805,0.0855927503417599
18.154596,8.093266108700119,0.0855319216275651
18.156984,8.093779861237186,0.085444353083729
18.159368,8.096994562654972,0.0853152989210773
18.161764,8.103794156685009,0.085175983795833
18.164148,8.111664685901683,0.0850274245692486
18.166532,8.125681286984472,0.0848337897880135
18.168928,8.143050463254035,0.0846065967750844
18.171316,8.161909883590818,0.0843550691893344
18.173696,8.186123979860792,0.0840582576292591
18.176092,8.205542478705015,0.0837873253741742
18.17848,8.229244718295792,0.0834772218150964
18.180864,8.254809289006126,0.0831587943473741
18.18326,8.280373859716459,0.0828408123417698
18.185644,8.309663092665907,0.0825066970715725
18.188044,8.335739520055437,0.0822015364311649
18.19044,8.366332005617,0.0818821836691245
18.192828,8.400277066365339,0.0815318619129589
18.195208,8.431940487113541,0.0812090260070103
18.197612,8.465885547861879,0.0808641829374367
18.200000000000003,8.500761774169995,0.0805167002920176
18.20238,8.532285425291338,0.0802020934830609
18.204776000000003,8.561946745293122,0.079897741045747
18.207164,8.58946619492163,0.0796149509365121
18.209548,8.615123313430582,0.0793417315560368
18.211944000000003,8.640640662312673,0.0790752211240396
18.214332,8.662014040075068,0.078841348573834
18.216712,8.684458353024104,0.0786017900391199
18.219108,8.702479155599724,0.0784019040933729
18.221496,8.716355987055653,0.0782322359389757
18.22388,8.733305854444636,0.0780428169018029
18.226276,8.750395491460479,0.0778488930994976
18.228664,8.769487229222738,0.0776444591221199
18.231044,8.788718736611855,0.0774353229726128
18.23344,8.811302819187752,0.0771989085131316
18.235828,8.837519016204142,0.0769238497845895
18.238208,8.861500795048642,0.0766386880673107
18.240608,8.880267667586807,0.0763897793959219
18.242996,8.896380813072495,0.0761448208123877
18.245376,8.911562792998408,0.0759044809519704
18.247776,8.925161981058485,0.0756603566075492
18.25016,8.943324449118835,0.0753751049850131
18.252544,8.95883319012671,0.0750937487830577
18.254948,8.972200060761308,0.0748285815157605
18.257336,8.980631564343295,0.0745868533142237
18.259716,8.988551211246083,0.0743335875967776
18.262112,8.989812929603564,0.0741036455182287
18.2645,8.987210216095072,0.0738905244285929
18.266884,8.989170782586852,0.0736365099813502
18.26928,8.98726691721266,0.0733974768502875
18.271668,8.985223282211608,0.0731640767399379
18.274052,8.984762439076391,0.0729358883194862
18.276448,8.981647868888702,0.0727110444967139
18.278836,8.980675169074287,0.0724716512067564
18.281216,8.97648966369996,0.0722560521860099
18.283616,8.966158086459519,0.0720748122374815
18.286004,8.958340466644692,0.0718959726519854
18.288384,8.951733551643365,0.0717042999065461
18.29078,8.946849198134734,0.071512239445592
18.293168,8.93796064313327,0.0713394991144604
18.295564,8.93172581518428,0.0711644567734473
18.297964,8.923209347235154,0.0710091324718867
18.300348,8.914273570405447,0.0708679273415193
18.302732,8.903755001709905,0.0707210109809167
18.305128,8.899382504880471,0.0705397886620255
18.307516,8.894730468797318,0.0703684414404272
18.3099,8.899018001259613,0.070155930237551
18.3123,8.902746455214464,0.0699628410508868
18.314688,8.902982564355678,0.0698017456062857
18.317072,8.91215824204234,0.0696008486399532
18.319468,8.918260883795947,0.0694165121319473
18.321856,8.922920503310579,0.06922264148718
18.324236,8.929023145064182,0.0690392169903098
18.326632,8.932844146817652,0.0688754929122344
18.32902,8.934523278197844,0.0687259326507488
18.3314,8.942068942190426,0.0685535359833709
18.333796,8.944679239130396,0.068401552101756
18.336184,8.946218600883725,0.0682562206896699
18.338564,8.947897732263918,0.0681060923507582
18.340964,8.954232691443002,0.0679452928879891
18.343348,8.95777415394275,0.0677911830468322
18.345732,8.961827473121696,0.0676498290413465
18.348128000000003,8.972026864166754,0.0674772263602069
18.350516,8.987533709316759,0.0673024652948568
18.3529,9.00075891446663,0.067147187362874
18.355296000000003,9.016777616295832,0.0669869615734924
18.357684,9.029723282191982,0.0668433257970838
18.360064,9.046021523274906,0.0666752029158093
18.362464000000003,9.064601404357967,0.0664892974771075
18.364848,9.074381486522444,0.0663352927956083
18.367232,9.086443208687058,0.0661631469294962
18.369628,9.096874917157592,0.0660167587638805
18.372016,9.108796869695343,0.0658503855229588
18.3744,9.119787656673315,0.0656857961323402
18.376792,9.13306008365143,0.0655036393893504
18.37918,9.14712390656246,0.0653259838919717
18.381576000000003,9.165983326899244,0.0651347783820609
18.383976,9.192431841341111,0.0649264121901293
18.386364,9.222744787648956,0.0647084950866127
18.388744000000003,9.250264237277465,0.0644962380244206
18.39114,9.280437413958444,0.0642844470166889
18.393532,9.308096633213813,0.0640680418534826
18.395912000000003,9.328538845416432,0.0638871056244546
18.398308,9.345116625753075,0.0637178480053417
