Time,Force,Position
20.968832,6.2156615433075135,0.1543176280844648
20.971219999999995,6.221992710770859,0.1542652272745906
20.973616,6.229162495995365,0.1541603002301475
20.976012,6.24066324379467,0.1539176298030631
20.9784,6.252071443795357,0.1536414443457141
20.980784,6.262688247863125,0.1533718479122562
20.98318,6.273864130438335,0.1530656389410505
20.985568,6.28308513409537,0.1527503950223042
20.987952,6.288861014767013,0.1524776246298158
20.990348,6.289514536930939,0.1523512241404837
20.992736,6.296778765811932,0.1521551333212126
20.99512,6.314518133275962,0.151815265383969
20.997516,6.336913328538886,0.1513975955650522
20.999904,6.363172955667781,0.1509166424621945
21.002284,6.395019576155348,0.1503534414566934
21.00468,6.431801563695527,0.1497055178778946
21.007068,6.464719119369732,0.1491262903867739
21.009452,6.4951227176183215,0.1485698438058332
21.011848,6.524270285083039,0.1479683476752813
21.014236,6.544944814711134,0.147465645481686
21.016616,6.554305587995029,0.1471510164692979
21.019012,6.568182419450956,0.1467755159824215
21.0214,6.577682962361712,0.1464532075684676
21.023784,6.577452540794105,0.1462997621829818
21.02618,6.579596307025251,0.1461312291684039
21.028568,6.580901455495235,0.1460120435921446
21.030952,6.583789395831058,0.1458814150190824
21.033352,6.59133316396577,0.1456814402895184
21.035736,6.6008790328469,0.1454444205038874
21.03812,6.617269821728442,0.1450473868649484
21.040516,6.629284322064812,0.1447040589513987
21.042904,6.642137440162345,0.1443164893275067
21.045283999999995,6.653407766394039,0.1439422457553725
21.047688,6.65778784665495,0.1436452311488961
21.050076,6.652064875385158,0.1434878366205687
21.052456,6.641126997809033,0.1434292777285697
21.054856,6.634333091352601,0.1432933016732036
21.05724,6.632614321575643,0.1430669357313094
21.059624,6.630988099597302,0.1428762987719298
21.062024,6.6334586269104125,0.1426517439819584
21.064412,6.640677529821031,0.1423956838628247
21.066792,6.648687828664569,0.142138886730372
21.069192,6.657209984187302,0.1418901156793187
21.07158,6.667594470829593,0.1416115234495156
21.07396,6.6713210289265765,0.1414354050003101
21.07636,6.68147319814339,0.1411334372130321
21.078748,6.695909108106757,0.1407514316370675
21.081132,6.709413852510348,0.1403860233649616
21.083528,6.721335805048101,0.1400295230790069
21.085916,6.731907283145495,0.1397133781601804
21.088296,6.744201322735586,0.1393785530111483
21.090692,6.7511406863924845,0.1391472815664196
21.09308,6.756869345235884,0.1389443021666226
21.09546,6.766554983743874,0.138718535730127
21.09786,6.786203904155705,0.1383723993442043
21.100248,6.813581688299482,0.1379175988479277
21.102628,6.84109924207012,0.1374622479607348
21.105028,6.867406091027259,0.1370397822322239
21.107412,6.888777572931788,0.1366888056995717
21.109796,6.910428594090035,0.1363241126184883
21.112192,6.935060103382721,0.1358801016659508
21.11458,6.953964849689878,0.1355164422851636
21.116964,6.980877998982701,0.1350331860743591
21.11936,7.006720213088885,0.1345633890712439
21.121752,7.035495693501267,0.1340492945482874
21.124132,7.059335806861035,0.1336154281389422
21.126532,7.075539604287472,0.1333236564067279
21.12892,7.089321992086912,0.133085273815941
21.1313,7.107061359550944,0.1328283702770348
21.133696,7.125731892574754,0.132563347004083
21.136084,7.150548497464673,0.1322069137615601
21.138468,7.179089764593706,0.1318062820660808
21.140864,7.206560096536101,0.1314216698498122
21.143248,7.233798111053018,0.1310150421021964
21.145644,7.252935174785652,0.1306947384309807
21.148044,7.26490245329378,0.1304505223065378
21.150432,7.272725760682212,0.1302712564252774
21.152816,7.27747603213759,0.1301381578948907
21.155212,7.288372375459081,0.1299115678530769
21.1576,7.302062215459905,0.129655994484704
21.159984,7.309466213967758,0.1295003745756873
21.16238,7.318592773968307,0.1293305174069287
21.164767999999995,7.320362557289247,0.1292772928993881
21.167148,7.33293424027519,0.1290840129372688
21.169544,7.344714527328213,0.1288944052397134
21.171935999999995,7.3566345840080976,0.1286981775092211
21.174316,7.375120021434673,0.1283918275614258
21.176716,7.397889199607802,0.1280187423447569
21.179103999999995,7.41763256367612,0.1276524735504909
21.181484,7.434070574385904,0.1273071692371795
21.183884,7.441848555803964,0.1270667722907006
21.186271999999995,7.447112579796408,0.126842401535405
21.188656,7.456380805281686,0.1265654634415963
21.191052,7.4610857507666895,0.1263684974686399
21.193439999999995,7.473519559983642,0.1260813237823036
21.195824,7.484323355506513,0.125837165279308
21.19822,7.498712043641636,0.1255611925769546
21.200607999999995,7.515894228456095,0.1252554276151234
21.202992,7.533076413270556,0.1249529287092789
21.205388,7.543460899912846,0.1247318975613574
21.207776,7.557337731368774,0.1244477223982805
21.210156,7.570562936518644,0.1241591841789704
21.212556,7.588351421668787,0.1237914129620152
21.214944,7.592963819355174,0.1235654795518283
21.217324,7.598786921855059,0.1233171740988695
21.219724,7.604330485101224,0.1230827096569764
21.222112,7.605869846854557,0.1229001314083857
21.224492,7.600471740808858,0.1228025671675469
21.226887999999995,7.600520858494972,0.1226571460918098
21.229276,7.59693786174059,0.1225792087359122
21.23166,7.597219296852179,0.1224573633226981
21.234055999999995,7.600154459016243,0.1223149682900551
21.236444,7.602158455620529,0.1221824910740507
21.238828,7.607515027411591,0.1219949257202332
21.241228,7.605002965843845,0.1219009991587916
21.243616,7.60412091797018,0.1217638313783124
21.245996,7.601656078230676,0.1216316475987125
21.248392,7.599610547371755,0.1214795811002287
21.25078,7.593700584646861,0.1213700884265299
21.253164,7.594216233041796,0.1211667453841881
21.25556,7.595243738115931,0.1209755421761973
21.257948,7.600275444682898,0.1207370010915393
21.260332,7.601163180130172,0.1205533777372382
21.262728,7.611362571175229,0.1202827872634851
21.265112,7.621422192593425,0.1200203568680681
21.267496,7.634694619571537,0.11971444322589
21.269892,7.651831478415621,0.1193702036860714
21.27228,7.673763934685459,0.1189754374271357
21.274664,7.686244965730654,0.1186724032354346
21.27706,7.705431147149399,0.1182654065126062
21.279452,7.722754997448589,0.1178762141707178
21.281836,7.736493955135526,0.1175147066178929
21.284232,7.748230812076044,0.1171770059539095
21.28662,7.760898834576343,0.1168321727150591
21.289,7.7777108281963345,0.1164338649794616
21.2914,7.79731631849566,0.116012738229949
21.293788,7.8161304128620674,0.1155938177398574
21.296172,7.834804737601615,0.1151839368945765
21.298568,7.857483263833997,0.1147295940427391
21.300956,7.875878049319824,0.1143362287170774
21.303336,7.890687942193399,0.1139690107900745
21.305736,7.90135386394728,0.1136546409709223
21.308124,7.915884217567133,0.1133028688254517
21.310504,7.928831779321151,0.1129582598660005
21.3129,7.939777240328754,0.1126357988585321
21.315292,7.943925003164185,0.1123795802397934
21.317672,7.945139499693423,0.1121536773776041
21.320068,7.946633535476382,0.1119160209797113
21.322455999999995,7.954645730177787,0.1116250176475815
21.32484,7.961167680811974,0.111368285945507
21.327236,7.968620797005938,0.1111041862179815
21.329623999999995,7.979938345065876,0.1108049775718929
21.332008,7.992187058685594,0.1104982418028554
21.334404,8.004296002678451,0.1101990959901857
21.336792,8.015194241857808,0.1099206102015881
21.339176,8.027023646596943,0.1096378939975294
21.341576,8.041506778388555,0.1093412507271158
21.343964,8.056129679807025,0.1090402507680095
21.346344,8.069541876411998,0.1087603119400987
21.348744,8.08374546894989,0.1084792395077997
21.351132,8.102744658913531,0.1081590488959989
21.353512,8.121743848877175,0.1078381974594641
21.355912,8.140603269213956,0.1075260456669723
21.3583,8.155970344737103,0.1072652347298749
21.36068,8.175201852126222,0.1069729892221607
21.36308,8.199089187314232,0.1066460159657686
21.365468,8.226561415114498,0.1063013519364148
21.367852,8.256827139594096,0.1059416424638515
21.370252,8.287372403327417,0.1055738207924645
21.372636,8.320990702993791,0.1051795787221331
21.37502,8.355400398593085,0.1047864308632878
21.37742,8.390741259752158,0.1043923246584081
21.379808,8.429294926471146,0.1039661686157354
21.382188,8.467057197257214,0.1035421157218672
21.384588,8.508823669536117,0.1030867752133644
21.386976,8.547377336255103,0.1026697589200358
21.38936,8.582857967041033,0.1022832091017389
21.39176,8.61512579226705,0.101931596207847
21.394148,8.646322682306426,0.1015923898443271
21.396528,8.679801212345941,0.1012265501871627
21.398928,8.708996001638901,0.1009081464988931
21.401316,8.7409842876112,0.1005734468354029
21.4037,8.772460716904298,0.1002307493460685
21.406096,8.806358555824392,0.0998549145623747
21.408484,8.836252193251656,0.0995145867072432
21.410864,8.867356535492416,0.0991602697881878
21.413264,8.89208248844159,0.0988406306519857
21.415652,8.910941908778371,0.0985667139978789
21.418036,8.929801329115152,0.0982953796804324
21.420432,8.93986095053335,0.0980889423795338
21.422824,8.950060341578405,0.0978779200274008
21.425204,8.957186696690407,0.0976947639461378
21.427603999999995,8.961240015869352,0.0975390941787188
21.429992,8.967155666167855,0.0973736729816497
21.432376,8.967065014227108,0.0972555430490911
21.434771999999995,8.965251800793663,0.0971421064000893
21.437164,8.965580457733497,0.0970077704798201
21.439548,8.969121920233246,0.0968420100079032
21.441948,8.973222461240432,0.0966551045120063
21.44434,8.976531606314703,0.096468930839868
21.446724,8.981470765083056,0.0962511679071329
21.449116,8.986689463105128,0.0960241182617451
21.451504,8.990278147433116,0.0958287434939068
21.453883999999995,8.991724961387831,0.0956538469767835
21.456284,8.993451314596266,0.0954681172594553
21.458672,8.996108833364481,0.0952788143616955
21.461051999999995,8.998347043252114,0.0951040749230019
21.463456,9.001516418699525,0.0949239627211998
21.46584,9.002404154146797,0.0947698366625737
21.468219999999995,9.013022854072435,0.0945518506033029
21.470624,9.021639453251655,0.0943490048601665
21.473008,9.026391620564905,0.0941698253688096
21.475387999999995,9.030212622318372,0.0939954760194568
21.477792,9.031379897019368,0.0938306488365184
21.48018,9.03175577578744,0.0936645015835222
21.48256,9.035344460115432,0.0934680757467708
21.484956,9.039072914070289,0.093267090999995
21.487344,9.042521828771417,0.0930772591752231
21.489723999999995,9.046901909032329,0.0928833899684684
21.49212,9.046067082986903,0.092733263753786
21.494504,9.0448129480609,0.0925989125945175
21.496888,9.039554611642064,0.0924934283626058
21.499288,9.03406395779775,0.0923662908549291
21.501676,9.030854943953573,0.0922143445597344
21.504056,9.032860836415727,0.0920197376347837
21.50646,9.02993136182527,0.0918580700537761
21.508844,9.033427498354644,0.0916389221748217
21.511228,9.040136440443934,0.0913916750642333
21.513632,9.046473295480888,0.0911282129360733
21.516016,9.046012452345671,0.0909064339407705
21.518396,9.048624645143512,0.0906619203971553
21.5208,9.056311974620822,0.0903799128871085
21.523188,9.066001404844553,0.0900846773638287
21.525568,9.07541129581456,0.0897993991339741
21.52798,9.08989632346404,0.0894776660774513
21.530364,9.105032977419576,0.0891639065537549
21.532744,9.118958926561616,0.0888653908982033
21.535152,9.132233249397595,0.0885617053335917
21.537536,9.14494849372614,0.0882794550312707
21.539916,9.164461436226848,0.0879583954033184
21.542311999999995,9.186116249100833,0.0876205963227558
21.5447,9.209773162721238,0.0872692831136145
21.54708,9.236083803394118,0.0869127303682228
21.549476,9.261975135186413,0.0865731595662531
21.55186,9.280509690299102,0.0862925856339578
21.55424,9.302117281344843,0.0859905341659601
21.556636,9.317299261270756,0.0857423182994175
21.559024,9.329128666009892,0.0855263193239084
21.561404,9.342540862614864,0.0853132329818291
21.563804,9.360097030339531,0.0850706674422981
21.566192,9.372857600638447,0.0848521814111386
21.568572,9.384547235750723,0.0846431355362355
21.570976,9.392092899743306,0.0844635826680977
21.57336,9.400569729295665,0.0842802435840139
21.57574,9.406764918847887,0.0841198504407607
21.578136,9.40709357578772,0.0839911108382497
21.580524,9.406910376048357,0.0838511648328467
21.582904,9.402583205189297,0.0837402450373512
21.5853,9.393600206531346,0.0836474521276706
21.587688,9.380613006380564,0.083579258621931
21.590067999999995,9.365623705483364,0.0835229793155799
21.59246,9.351565570145938,0.0834628285246083
21.594848,9.335365564435238,0.0834193633924822
21.597228,9.316511831672065,0.0833813816394843
21.599624,9.301802070028584,0.0833142571944704
21.602012,9.28895463950466,0.0832398229265116
21.604396,9.28146188491393,0.0831233832798997
21.606792,9.276390539950198,0.0829804100078825
21.60918,9.268385928680264,0.0828524957631553
21.611556,9.257448051104143,0.08273956968535
21.613956,9.25237670614041,0.082596515330356
21.61634,9.247305361176675,0.0824534410794379
21.61872,9.249311253638831,0.0822678939501251
21.621116,9.251596685354707,0.0820728124415771
21.623504,9.255232591510945,0.0818603837341192
21.6259,9.266085504719928,0.0816011408968579
21.628296,9.277450274608109,0.0813533349000892
21.630683999999995,9.29975671378815,0.0810477895371175
21.633064,9.329419929647804,0.0806917977079613
21.635464,9.361644324761317,0.0803065130933173
21.637851999999995,9.39200638875527,0.0799274226702738
21.640232,9.423439387935865,0.0795429161163247
21.642636,9.455943322303096,0.0791516812865064
21.645019999999995,9.490309587789884,0.0787542109105369
21.647404,9.524536083649815,0.0783636601274494
21.6498,9.552104650964434,0.0779995938083867
21.652187999999995,9.577531347905776,0.077652961396258
21.654568,9.600676404846984,0.0773272782033374
21.656972,9.625823562534604,0.0769907063350356
21.65936,9.6536244472747,0.0766514333351046
21.66174,9.677281360895105,0.0763395055765717
21.664136,9.703080144888784,0.0760142685738207
21.66652,9.725014497016492,0.0757075142366931
21.668904,9.748950949890617,0.0753924464335576
21.671299999999995,9.768883201271905,0.0750976823048142
21.673688,9.78453171190664,0.0748335406739257
21.676068,9.802322092914652,0.0745559739394461
21.678472,9.8103815094443,0.074319953594634
21.68086,9.815088350787176,0.0741109921282993
21.68324,9.82058658806297,0.0739051946734417
21.68564,9.83102019239137,0.0736787754232691
21.688024,9.836797968920882,0.07346460711468
21.690408,9.841924119144334,0.073244364480106
21.692803999999995,9.848121204554428,0.0730177833687423
21.695192,9.8535268940316,0.072789566946022
21.697572,9.865450742427225,0.072545233633327
21.699968,9.876583194889928,0.0722988940431919
21.702356,9.88999728735277,0.0720350413632261
21.704752,9.906624185375527,0.0717526921860222
21.707148,9.92045758671895,0.0714776987215134
21.709536,9.940297290301626,0.0711781278611118
21.711915999999995,9.95813489313788,0.0708887507051959
21.71432,9.9749015607875,0.0706061628208219
21.716704,9.991528458810256,0.070329915460465
21.719088,10.01481328537832,0.0700358946851823
21.721484,10.038098111946386,0.0697415193167327
21.723872,10.061522708141313,0.0694450574809284
21.726251999999995,10.086530096202072,0.0691523158575403
21.728648,10.109255844262696,0.0688761797684352
21.731036,10.127697851576766,0.0686259529238736
21.733416,10.139854017397866,0.0684096291257483
21.73582,10.154384371017722,0.0682000855404445
21.738204,10.167424480570356,0.068010085516317
21.740587999999995,10.180185050869271,0.0678295154853711
21.742984,10.19159514672783,0.0676639549528884
21.745372,10.200071976280189,0.0675091301138373
21.747752,10.21427556881808,0.0673399582920597
21.750148,10.228199622102252,0.0671802316528417
21.752536,10.23690876908009,0.0670472055051037
21.754916,10.245478146431063,0.0669183551577631
21.757312,10.245107955236596,0.0668227663502992
21.759699999999995,10.243107750348049,0.0667502494759898
21.762096,10.242690337325335,0.0666827949600165
21.764492,10.240131053929348,0.0666274656137815
21.76688,10.236361065719862,0.0665825904650684
21.76926,10.237666214189847,0.0665168541298072
21.771664,10.235618787473056,0.0664729618539175
21.774052,10.234921835196625,0.0664147857380417
21.776432,10.238927932547329,0.0663208118636297
21.778828,10.245075900271306,0.0662150913321207
21.781212,10.25643877430162,0.0660845046368138
21.783596,10.269012353145431,0.0659441871665234
21.785992,10.282796636802743,0.0657938706816323
21.788376,10.297651855646691,0.0656384960306714
21.79076,10.314648944863915,0.0654717904831067
21.793156,10.33285673889464,0.0652957266983584
21.795544,10.34198519475306,0.0651547292498
21.797928,10.3501824850517,0.0650156004982716
21.80032,10.36224420721631,0.0648664871614228
21.802708,10.379241296433536,0.064702446511368
21.805092,10.399311421583816,0.0645249690618459
21.807488,10.424084596361231,0.0643132707152575
21.809872,10.449277080019227,0.0640899839375049
21.812272,10.470744901438112,0.0638718291793345
21.814668,10.486765499125186,0.0636585061908501
21.817056,10.497850729759648,0.0634616565375785
21.819436,10.512148765954024,0.0632486713584718
21.821832,10.529240298827736,0.0630327296867251
21.82422,10.544841587634227,0.0628358444981885
21.8266,10.56151381162736,0.0626342078887783
21.829,10.57832580524735,0.0624299440726141
21.831388,10.5964882733077,0.0622135772962811
21.833772,10.615861446181553,0.0619887444500748
21.836168,10.632720661629786,0.0617602838845069
21.838556,10.646926150025545,0.0615315748273543
21.840936,10.656196271368692,0.061316392909346
21.843332,10.670821068645033,0.0610748972573036
21.84572,10.685445865921372,0.0608337503587054
21.848099999999995,10.694343900212184,0.0606032433772909
21.850496,10.696723775584546,0.0603810882063677
21.852884,10.699895046889829,0.060161767121248
21.855267999999995,10.698922347075412,0.0599593920029204
21.857668,10.695156150581662,0.0597601186178927
21.860056,10.699118817819864,0.0595446430919454
21.862435999999995,10.706945916924038,0.0593209208700068
21.864832,10.716635347147763,0.0590954190708107
21.86722,10.72152917994574,0.0588789817004631
21.869616,10.72362951606438,0.0586662896124473
21.872012,10.72759218330258,0.0584526037499286
21.874404,10.728481814607722,0.0582495894480964
21.876784,10.726158640352953,0.0580614566143713
21.87918,10.7204828909114,0.0578919707085222
21.881568,10.713596436656353,0.0577313451366037
21.883948,10.70936370945378,0.0575722314620461
21.886344,10.710997514863596,0.0574007940957737
21.888732,10.718497852885806,0.0572165880593471
21.891112,10.726649817214074,0.0570401771097032
21.893512,10.732799680795925,0.0568690266728106
21.895896,10.74802888255008,0.0566722710788656
21.89828,10.767913912103126,0.0564721967430312
21.900676,10.792362221656449,0.0562477070660346
21.903064,10.819883567142824,0.0560143934042888
21.905444,10.850198409308536,0.0557796559772899
21.90784,10.875857423675354,0.0555495522173398
21.910228,10.902587373228814,0.0553164872326595
21.912624,10.926523826102938,0.0550854789855756
21.91502,10.95725797714923,0.0548437309747629
21.917408,10.98999422894194,0.0545984850901073
21.919792,11.01607255218934,0.0543610221890822
21.922188,11.04750555136993,0.0541031141235023
21.924576,11.076424593124909,0.0538385425504143
21.926956,11.106833878947109,0.0535588731727635
21.929352,11.137662473649884,0.0532688265904403
21.93174,11.164626636486693,0.0529850814989711
21.93412,11.184513561897608,0.0527204386981362
21.93652,11.199465120255912,0.0524655755728247
21.938908,11.208829685255546,0.052213002044596
21.941288,11.221686595068816,0.0519406928579532
21.943684,11.22439323152314,0.0516949860081944
21.946072,11.21937100424552,0.0514588839311061
21.948456,11.203127568422316,0.0512521827571403
21.950852,11.179946664800084,0.0510582621062422
