Time,Force,Position
23.10092,4.982346644251208,0.1638373310494204
23.103324,4.995054305148271,0.1637940094736093
23.108092,5.026985890002976,0.1637149368428963
23.110496,5.0497947065728725,0.1636197236953383
23.112884,5.08298611392719,0.1632878455215635
23.115268,5.121439649416083,0.1627384359649326
23.117668,5.156495283747826,0.1621986144855968
23.120056,5.194671175840868,0.1615363965482407
23.122432,5.233545916068211,0.1608333644270927
23.124828,5.26990669886994,0.1601761937602324
23.127216,5.29960955312636,0.1596584079443006
23.129596,5.331314508129197,0.1590864146056909
23.131992,5.361109910184234,0.1586088548291242
23.134376,5.395002061530722,0.1580884043865877
23.136772,5.429219078101303,0.1576517991894977
23.139168,5.467113535082755,0.1571869127987252
23.141556,5.512364768743817,0.1565258456359105
23.143936,5.553379483486569,0.1559322563347292
23.146332,5.590669535990206,0.1554325261324729
23.14872,5.616645832149644,0.1551794153939272
23.151096,5.642809119764184,0.1548663062756159
23.153504,5.665854045475295,0.1545272543762917
23.155888,5.690204119656391,0.154049204928931
23.158268,5.708175804545899,0.1536943721243508
23.160672,5.724936784621909,0.1533828967995173
23.16306,5.742861247683175,0.1530875597278534
23.16544,5.759575005930943,0.1528280407589345
23.167836,5.769351296379679,0.1527204903565036
23.170228,5.778568508320976,0.1526536058417245
23.172608,5.791463160673144,0.1525717407897334
23.175012,5.81567156936951,0.1522826030248468
23.1774,5.837645559893984,0.1520040243593013
23.17978,5.861948412246837,0.1516144785670113
23.182176,5.881874976054519,0.1512947124981575
23.184564,5.900917596130665,0.1509435748553437
23.186944,5.921078373221695,0.1505208826398656
23.18934,5.935000530647995,0.1501957448629577
23.191728,5.951763406581874,0.1497762030476338
23.194112,5.968154195463415,0.1493404372860785
23.196516,5.9858482369570725,0.1489070718911022
23.198904,6.0008413295700125,0.1485593952450983
23.201284,6.0205827977804605,0.1481711786220389
23.20368,6.037995404162528,0.1478934901307023
23.206068,6.0608552342764055,0.1475368319138167
23.208448,6.084506460323201,0.1471791449802026
23.210844,6.108157686369998,0.1468237158173843
23.213232,6.136232422790207,0.146367396779765
23.215612,6.163795302531218,0.1458936001349514
23.218008,6.18740120260764,0.1454515165290535
23.220396,6.205187791899915,0.1450710419902942
23.22278,6.216316452646881,0.1448088207386222
23.225184,6.229447214140263,0.1445079919594078
23.227568,6.238713543767673,0.1442756156199748
23.229948,6.246397081529246,0.1440549839840017
23.232352,6.256175267835854,0.1438362749095983
23.23474,6.270050203433912,0.143586261507459
23.23712,6.286159557203863,0.1433281269091602
23.239524,6.299847501346818,0.1431346275283208
23.241912,6.311533344743355,0.1429790318752178
23.244296,6.325640597766889,0.1427619907424373
23.246692,6.344683217843037,0.1424590886895159
23.249076,6.3647042253072055,0.1421012608698711
23.251456,6.382258497174002,0.1417197493701412
23.253856,6.391339731204177,0.1414265202178843
23.256244,6.396184446316041,0.1411766983597523
23.258624,6.399306599935208,0.1409456874085349
23.26102,6.399076178367601,0.140789880784433
23.263408,6.401918792733048,0.1405769819672594
23.265788,6.407135594897251,0.1403487256871839
23.268192,6.418311477472461,0.1400607290369722
23.27058,6.430138986353727,0.1397754424670158
23.272964,6.4423385822873325,0.1395113867586916
23.27536,6.459473545273547,0.1391657711385882
23.277744,6.476328969006045,0.1388352013651067
23.280124,6.492812305686203,0.1384886865253623
23.28252,6.499844217141718,0.1382829907196134
23.284904,6.504501940798479,0.1380913756162689
23.287284,6.508787577402901,0.1378795393144781
23.289696,6.511350652514628,0.1376849825977855
23.29208,6.513262101320297,0.1374881817896089
23.29446,6.514521923819907,0.1372896302731538
23.296856,6.513080797438801,0.1371658231144272
23.299244,6.514945024416227,0.137015791464904
23.301636,6.520114604752186,0.1368388857567046
23.304032,6.529800243260175,0.1366078252081174
23.306416,6.545072875126836,0.1363045531192955
23.308796,6.56355831255341,0.135943159692365
23.311204,6.582323289233707,0.1355692748816824
23.313588,6.600855948488525,0.1351694023801833
23.315968,6.615291858451894,0.1348003681626356
23.318372,6.63135778210934,0.134381442423461
23.32076,6.648262323527949,0.1339181698154123
23.32314,6.661302433080584,0.1335126420591572
23.325536,6.675972556327299,0.1330562885179849
23.327924,6.689711514014235,0.1326151161288319
23.330304,6.708897695432981,0.1321103539508802
23.332704,6.7328794742774765,0.1315429720068806
23.335092,6.758723584241531,0.1309550743865097
23.337472,6.787500960511782,0.1303250957863931
23.339868,6.812646222341535,0.1297748574691138
23.342252,6.837372175290708,0.1292536677363133
23.344636,6.862796976374182,0.1286951021162149
23.347032,6.887709920778457,0.1281278469986797
23.34942,6.914485196302289,0.1275415803123363
23.351816,6.939537910333426,0.1269756998604083
23.354212,6.958352004699834,0.1264751353903672
23.356596,6.971579105707572,0.1260404328790997
23.358976,6.981453631528535,0.1256678063269737
23.361372,6.98783581253586,0.1253634570578829
23.36376,6.994869619849244,0.1250632577354563
23.36614,7.00041318309541,0.1248047731795477
23.368536,7.001673005595023,0.1246184839173139
23.370924,7.001722123281136,0.1244572163058178
23.37332,7.002003558392724,0.1243233323418407
23.375716,7.003216159064094,0.1241796856442548
23.3781,7.002334111190427,0.1240302079324231
23.38048,6.996656465891009,0.1239398644956826
23.382876,6.987114388725618,0.1238977860904021
23.385264,6.9754304411869485,0.1238909016359471
23.387648,6.97138280958161,0.1237531123024393
23.390044,6.964960990177517,0.1236235436147862
23.392428,6.958259631519704,0.1235084302263231
23.394808,6.950859424727589,0.1234298956211235
23.397208,6.943598987562336,0.1233438870033762
23.399592,6.932194579277387,0.1233192452048725
23.401988,6.925306229164472,0.1232522124342546
23.404396,6.919581362036811,0.1232020088255416
23.40678,6.919583257894681,0.1230854830122595
23.40916,6.929316118230914,0.1228507008470916
23.411564,6.941330618567284,0.1225762981667512
23.413952,6.954555823717154,0.122278765352665
23.416336,6.9722970870390535,0.1219400060451086
23.418732,6.995253256667287,0.1215263442050853
23.42112,7.018628735176101,0.1210931654105984
23.4235,7.040933278498276,0.1206800917062988
23.425896,7.064541074432567,0.1202780162068288
23.428284,7.0926649285388885,0.1198383050082316
23.430664,7.127167171936799,0.1193428640908821
23.433068,7.164742451267764,0.118807502816295
23.435456,7.196963054665538,0.1183606508253573
23.437832,7.2306266803022865,0.1179179643866379
23.440228,7.265733328178012,0.1174806653255342
23.442616,7.302330220120956,0.1170084145323388
23.444996,7.334922910571066,0.1165865499052484
23.4474,7.373521903260427,0.1160908599605014
23.449788,7.409047860016731,0.1156396515774438
23.452168,7.448997327146451,0.1151213385685207
23.454564,7.482568404984584,0.1146596030688401
23.456948,7.50775899278471,0.1142810261960898
23.459328,7.526663739091865,0.1139865173779854
23.461732,7.545288946145301,0.1137072219334131
23.46412,7.56205182207918,0.1134458833627715
23.466504,7.572249317266368,0.1132824894369068
23.468908,7.583377978013334,0.1131122491777212
23.471292,7.590502437267467,0.1129881416431467
23.473672,7.597906435775321,0.1128512432513451
23.476076,7.602656707230698,0.1127332205147255
23.478464,7.603961855700684,0.1126351973577861
23.480844,7.604196068984029,0.1125522243924259
23.483248,7.600705620028263,0.1125010056853215
23.485636,7.596563544766438,0.1124445399156124
23.50474,7.504438647181713,0.1124325144151416
23.507128,7.496479361882159,0.112375058782436
23.509512,7.487077054343627,0.1123133476530333
23.511912,7.479025221245455,0.1122236640749859
23.5143,7.4766076033341955,0.1120481008038623
23.51668,7.472467423930239,0.1118819678412644
23.519076,7.47167981971306,0.1116653563077411
23.521464,7.466888014003047,0.1114929658243437
23.523844,7.458092006800199,0.1113648725505708
23.52624,7.448876690716771,0.1112566018281596
23.528632,7.436867877954008,0.1111718124381738
23.531012,7.432587928923193,0.1110106273904429
23.533416,7.426305879145961,0.1108715207819944
23.535804,7.422537786794344,0.1107216938593418
23.538184,7.414113866643834,0.1106113593279135
23.540588,7.4098339176130175,0.1104494666892169
23.542976,7.40620559488826,0.1102932282412473
23.545356,7.4081642655221716,0.1100905043777626
23.547756,7.416920634328253,0.1098200602920584
23.55014,7.422883506454999,0.109572703048511
23.552524,7.428706608954885,0.1093313744278334
23.55492,7.432108301827773,0.1091332703679731
23.557308,7.436953016939636,0.1089399598520108
23.559688,7.439655861678224,0.1087754319606947
23.562084,7.438074965670259,0.1086678497068937
23.564472,7.437285465595209,0.108559501556457
23.566856,7.439009922945774,0.1084424558065843
23.569252,7.443807416229396,0.1082895041290391
23.57164,7.457404708431602,0.1080506654841065
23.57402,7.474075036566863,0.1077783559686171
23.576416,7.493818400635182,0.1074712850584266
23.578804,7.509045706531467,0.1071966899405966
23.581184,7.529068609853504,0.1068807427032724
23.583588,7.5535150235489565,0.106507787094124
23.585976,7.583036573923882,0.1060825232620104
23.58836,7.609345318738891,0.1056991552312865
23.590756,7.631789631687926,0.1053490621801267
23.593144,7.649438347211208,0.1050414638800633
23.595524,7.660429134189184,0.1047887932522327
23.597928,7.675144583406272,0.1045087868707417
23.600316,7.694795399675972,0.1041836250403095
23.602696,7.717379482251868,0.1038341809520939
23.6051,7.741453808894983,0.1034557290472144
23.607484,7.768461401844291,0.1030524786327975
23.609864,7.799612965913295,0.1026047228972888
23.61226,7.829553825168801,0.102177561096513
23.614648,7.852836755878996,0.1018024750036551
23.617028,7.878121787335609,0.1014106588977376
23.619424,7.898611221366471,0.1010617623298329
23.621808,7.914584597225302,0.1007401006421513
23.624188,7.929347268270633,0.1004382287299313
23.626592,7.944761565622023,0.1001425586847291
23.62898,7.957382366294077,0.0998675440260822
23.63136,7.962646390286522,0.0996729491553226
23.63376,7.963486903905551,0.0995336951814217
23.636144,7.96646928789786,0.0993702841886872
23.638524,7.976528909316057,0.099141049654641
23.64092,7.987379926667172,0.0989109041680185
23.643308,8.006099577377093,0.0986150890955832
23.6457,8.025238536967597,0.0983041483067268
23.648104,8.037999107266511,0.0980297909620695
23.650492,8.048105950512952,0.0977687707068749
23.652872,8.053137657079919,0.0975545901227801
23.655268,8.054444701407773,0.0973635752552034
23.657656,8.053609875362351,0.0971963398215917
23.660036,8.053054588570648,0.0970173242912858
23.66244,8.058645373645055,0.096780498448752
23.664824,8.063165223532826,0.0965564649802911
23.667208,8.065543203047318,0.0963549359240445
23.669604,8.071366305547203,0.0961432343657834
23.671988,8.078400112860589,0.0959148822968557
23.674372,8.087715560174109,0.0956591741276972
23.676776,8.093026805994798,0.0954358984644682
23.67916,8.1027615621889,0.0951609425992555
23.68154,8.113055396890445,0.0948618631529606
23.683936,8.120695504539512,0.0945734875552278
23.686324,8.12246907957619,0.0943305485398356
23.688704,8.12959733054606,0.094033042530387
23.691108,8.133652545582876,0.0937652518235824
23.693492,8.135565890246415,0.0935203470223595
23.695872,8.141855523455124,0.0932613042762577
23.698276,8.146003286290558,0.0930236967823704
23.700664,8.153224085059044,0.092758571880049
23.703044,8.165240481253283,0.0924631557395111
23.70544,8.177676186328105,0.0921511549117805
23.707828,8.189320495470007,0.0918386876079786
23.710212,8.200685265358187,0.0915401407623038
23.712608,8.212050035246369,0.0912429191090482
23.714996,8.228769481067744,0.0908942481603528
23.71738,8.242835199836643,0.0905553184017331
23.719776,8.255829983418904,0.0902280040784581
23.722164,8.265751731068113,0.0899273090211657
23.724544,8.281679780956567,0.0895811249691816
23.72694,8.297328291591302,0.089248101468607
23.729328,8.314839133345595,0.0889068592046351
23.731708,8.336866033271919,0.0885497884480458
23.734112,8.3595445595043,0.0881982009382073
23.7365,8.377008179430351,0.0878941575542343
23.738884,8.394471799356399,0.0875916407795685
23.74128,8.411004253722671,0.0872937842827826
23.743668,8.426093685849965,0.086989733391285
23.746048,8.443045449096816,0.086676397997212
23.748444,8.461440234582644,0.0863722784354131
23.750832,8.478112458575774,0.0860740915291421
23.753212,8.49757817924824,0.0857658652299855
23.755612,8.517695526226765,0.0854646249108909
23.757996,8.533017275779537,0.0851896404702504
23.760376,8.544614363093197,0.0849309940698185
23.762784,8.551927709660301,0.084711662090559
23.765168,8.560172221787184,0.0844883371040882
23.767548,8.568416733914066,0.0842653686553952
23.769952,8.576661246040953,0.0840421902404442
23.77234,8.584114362234915,0.083819037565873
23.774724,8.58677188100313,0.0836204255972185
23.77712,8.587427299024926,0.0834352698606069
23.779508,8.586360155554026,0.0832534386464185
23.781892,8.5886455872699,0.0830391060059124
23.784288,8.59521475973233,0.0827892554274479
23.786676,8.600992536261842,0.0825385259879817
23.789056,8.605699377604713,0.0822961749370159
23.79146,8.607053643760814,0.0820857187247482
23.793848,8.606545578797354,0.081882323595427
23.796228,8.606596592341337,0.0816587058355799
23.798632,8.603295030698543,0.0814671440603887
23.80102,8.59049482200286,0.0813505952214509
23.8034,8.576763447747402,0.0812375167072697
23.8058,8.568107210171416,0.0810898725256868
23.808188,8.5650379659541,0.0809204210301223
23.810568,8.56303965692342,0.0807419024995022
23.812964,8.560110182332963,0.0805668519843099
23.815352,8.559182808488924,0.0803798342382145
23.817732,8.559046830577802,0.0801944584758682
23.820136,8.559562478972738,0.0800169228753274
23.822524,8.56887792628626,0.0797930846862924
23.824904,8.580055704719337,0.0795627945092016
23.8273,8.590162547965777,0.0793419268215147
23.829688,8.601200556771996,0.0791199118488017
23.832072,8.609025760018296,0.0789245837757292
23.834468,8.617782128824379,0.0787267736873727
23.836856,8.633615735056349,0.0784878205044498
23.839232,8.65559541315443,0.0782102776639671
23.84164,8.682650227931981,0.0779032561547531
23.844024,8.704909445283784,0.0776175801881323
23.846404,8.7303814681955,0.0773076570295528
23.848804,8.766562842973602,0.0769157525534986
23.851188,8.80730749775198,0.0764845584585406
23.853568,8.84605005178394,0.0760676225438613
23.855972,8.884280749136703,0.0756432907757206
23.85836,8.921580280929684,0.0752223812041053
23.86074,8.959950747909307,0.074794433921967
23.86314,8.994456783022954,0.0743841443352432
23.865524,9.029242357390324,0.0739648749381782
23.867908,9.062305370265,0.0735484885446709
23.870304,9.092714656087194,0.0731410314634785
23.872688,9.121541150043557,0.0727303317681383
23.875072,9.15036764399992,0.0723205134292239
23.877476,9.174119001276807,0.0719397744389752
23.879864,9.197870358553695,0.0715597837350455
23.882244,9.220550780643949,0.0711885578785555
23.88464,9.238295835681589,0.0708427564284795
23.887032,9.253899020345951,0.0705137773630881
23.889416,9.267500104263894,0.0701966032648869
23.891812,9.284686080794092,0.0698749083355103
23.894196,9.302942992510932,0.0695482662413756
23.89658,9.318126868294712,0.0692408479670346
23.898976,9.32660559370494,0.0689846564285135
23.901364,9.335084319115172,0.0687289514021842
23.903748,9.338208368592207,0.0685072729407564
23.906144,9.343474288442524,0.068272408509677
23.908532,9.349671373852615,0.0680361371508577
23.910912,9.357730790382265,0.0677956141166811
23.913312,9.364719271725273,0.067561880122985
23.9157,9.36863471713523,0.0673429895066342
23.91808,9.369057817731548,0.0671537951356271
23.920476,9.369061609447286,0.0669783974658318
23.922864,9.369065401163024,0.0668031049943933
23.925244,9.37027989769226,0.0666161316023456
23.927648,9.37042345903486,0.0664356425820754
23.930036,9.366702588511489,0.0662667719957482
23.932416,9.36377311392103,0.0661009166349984
23.934812,9.358050142651235,0.0659404791747504
23.9372,9.352466941008304,0.0657756456438998
23.93958,9.347023508992232,0.0656064584702851
23.941976,9.33636517066983,0.0654644600107658
23.944364,9.324635897160787,0.0653287089318747
23.946744,9.319192465144717,0.0651594980129303
23.94916,9.313469493874925,0.064999521452161
23.951548,9.31095932816505,0.064820151591765
23.953928,9.307378227268536,0.0646473158326298
23.956332,9.301795025625603,0.0644823668861007
23.95872,9.295280658422891,0.0643188537269544
23.9611,9.293841427899656,0.0641341899320813
23.963496,9.29840849961567,0.0639266680976132
23.965884,9.304465815398904,0.0636993106868402
23.968264,9.313456397488329,0.0634632858530538
23.97066,9.322586749204618,0.0632230911675861
23.973048,9.33530199353316,0.0629825181889085
23.975428,9.347365611555642,0.062733896500994
23.977824,9.365575301444236,0.0624585268298342
23.980212,9.380060329093714,0.0621887307319099
23.982592,9.39775816230311,0.0619015935258906
23.984996,9.414524829952729,0.0616171350849229
23.987384,9.42849800092301,0.0613370634139265
23.989764,9.448896783013122,0.0610227085616584
23.992164,9.469295565103236,0.060709220374401
23.994552,9.485038519394458,0.0604033429713319
23.996932,9.5022717177529,0.0600793316990467
23.999328,9.52043608167112,0.0597552694481733
24.001716,9.53832090633562,0.0594406959169118
24.004096,9.558347601373397,0.0591157236009546
24.0065,9.582658037157726,0.0587704241247145
24.008888,9.600962170702807,0.0584465758473715
24.011268,9.614470706822134,0.058133448675727
24.013664,9.627699703687744,0.0578297875622242
24.016052,9.640416843874153,0.0575155602885096
24.018432,9.65341352331428,0.0571934053836997
24.020836,9.66189414458238,0.0568721567401818
24.023224,9.672237096970036,0.0565490602669711
24.025604,9.680438178984414,0.0562376919104405
24.028,9.692643462491624,0.0559142989940305
24.030388,9.70242733637184,0.0556104346365703
24.032772,9.709789800625058,0.0553252201848447
24.035168,9.720085531184472,0.0550337124719047
24.037556,9.725026585810692,0.0547682404452439
24.03994,9.73182997155647,0.0545023069820467
24.042336,9.742078480287638,0.0542428104300536
24.04472,9.750976514578449,0.053997635458225
24.0471,9.7580122177497,0.0537540846145202
24.049504,9.765467229801535,0.0534980302453299
24.051888,9.77064060185323,0.0532562296854735
24.054268,9.77232162909129,0.0530383155264881
24.056664,9.77493382188913,0.0528194308547375
24.059052,9.779128806552809,0.0526078488550336
24.061448,9.781321690470069,0.052401218209627
24.063844,9.783095265506743,0.0522080025592373
24.066232,9.78645163240926,0.0520230810107432
24.068612,9.792461726364246,0.0518412459358292
24.071008,9.79833205069238,0.051663892880319
24.073396,9.803783066139925,0.051499349421939
24.07578,9.806812671960474,0.0513525325063006
24.078176,9.81277554408722,0.0512007661997428
24.08056,9.820880286587244,0.0510397328177814
24.082944,9.824421749086994,0.0509050724028393
24.08534,9.831967413079576,0.0507609293971378
24.087724,9.835369105952465,0.0506307194001067
24.090104,9.837699863638711,0.0505054466222442
24.0925,9.84189295244452,0.0503800122923742
24.094888,9.84794837236988,0.050254327924882
24.097268,9.854655418601302,0.0501371419298752
24.099664,9.86336456557914,0.0500155381936075
24.102052,9.8711425469972,0.0498941145868348
24.104432,9.87784959322862,0.0497768403674918
24.106828,9.887769445019956,0.0496471957991969
24.109216,9.898620462371072,0.0495171492518869
24.111596,9.904396343042714,0.0494000460014414
24.113992,9.905376626288604,0.049287838217238
24.11638,9.90449457841494,0.0491759302025979
24.118764,9.90561463128769,0.0490599628618747
24.12116,9.903941187481108,0.0489439367426132
24.123548,9.902547282928245,0.048819372815478
24.125924,9.898499651322904,0.0486910129085978
24.128324,9.893381084530928,0.0485667442238789
24.130712,9.891615092925727,0.0484252876259731
24.133092,9.883842799081275,0.048296356453768
