Time,Force,Position
25.026323999999995,5.276970424123085,0.1588664124125868
25.028704,5.281067173414535,0.1588161748756286
25.031104,5.288236958639042,0.1586884176027309
25.033488,5.300621650169881,0.1584249756224841
25.035868,5.310305392820002,0.158263734638001
25.038264,5.322642862522597,0.1580576334758995
25.040651999999994,5.336051267411832,0.1578195336052786
25.043036,5.348016650062089,0.1575874255197081
25.04544,5.364265773458901,0.1572368084412999
25.047824,5.382330006147027,0.1569093852382524
25.050208,5.402209348126466,0.1566040900636165
25.052603999999995,5.425254273837577,0.1562644538513343
25.054992,5.44652941622775,0.1560041655091623
25.057376,5.472460386416813,0.1556461945822588
25.059771999999995,5.499834378844852,0.1552789044207114
25.06216,5.529722328698506,0.154882578687411
25.06454,5.56640797672433,0.1543372099562535
25.066936,5.601510832884316,0.153809925001812
25.105176,5.685857749050982,0.153473272499687
25.10756,5.688466150133082,0.1533407644178974
25.109956,5.689491759349346,0.1532236251826015
25.112344,5.68572177113986,0.153198602292695
25.114728,5.681812013303512,0.1531830797167304
25.117124,5.680463434721023,0.1530866951570916
25.119512,5.678043920951896,0.1530163771455139
25.121891999999995,5.681910248675738,0.1527974742095404
25.124292,5.689641008265555,0.1525007705273468
25.12668,5.706171566773957,0.1520240852420175
25.12906,5.72777726196183,0.1514434999850495
25.131456,5.749382957149705,0.1508629147280815
25.133848,5.773782149016913,0.1502377892407575
25.136228,5.790732016405895,0.1497494741339249
25.138624,5.80526047416788,0.149331679506176
25.141012,5.820487780064167,0.1488648884045309
25.143396,5.835342998908114,0.1483760025330284
25.145792,5.853411023311978,0.1478120987990287
25.14818,5.870547882156064,0.1472691191865415
25.15056,5.887917058425628,0.146753579554298
25.15296,5.909802292867222,0.1461711772392842
25.155348,5.921816793203592,0.1457894724527189
25.157728,5.9355538550326585,0.1453906867971858
25.160128,5.955529536526453,0.144907184269859
25.162516,5.981231981005779,0.1443307984462332
25.164896,6.006095807723943,0.1438098346205806
25.167292,6.035103605561799,0.1432055609172582
25.169684,6.06210930265324,0.1426447737583184
25.172064,6.08911499974468,0.1420880658995362
25.174464,6.113559517582264,0.1416144912147153
25.176852,6.131997733180595,0.1412578505601756
25.179232,6.153928293592562,0.1408209312593184
25.181632,6.173344896578917,0.1404120411609779
25.18402,6.197277557737302,0.1399449911658783
25.1864,6.224143485201883,0.1394292673852005
25.188804,6.25245243490544,0.1389135473234817
25.191192,6.284346277221249,0.1383578246266305
25.193572,6.317171285096837,0.1377985304589723
25.195968,6.35157908483826,0.1372358691992717
25.198356,6.391062021259156,0.136587257628712
25.20074,6.428682626560497,0.1359737047500989
25.203136,6.467793475929055,0.1353068385272266
25.205524,6.499827087871724,0.1347612408814305
25.207904,6.528136037575281,0.1342750842392273
25.2103,6.550578454666447,0.1338863397994903
25.212688,6.574790655078553,0.1334378856061455
25.215072,6.596209358811325,0.1330311579646408
25.217468,6.61921085440993,0.1326181238266494
25.219856,6.642724206687735,0.1322197468366257
25.222235999999995,6.665725702286342,0.1318127322780911
25.224632,6.688075571578891,0.1313994824382398
25.22702,6.705582621617444,0.1311007350702419
25.229403999999995,6.721180118708199,0.1308685251251181
25.2318,6.735846450239174,0.1306512033449455
25.234192,6.749209529158034,0.1304277599415616
25.236571999999995,6.763131686584335,0.1301747861409854
25.238972,6.772258246584884,0.1299885831037554
25.24136,6.779894562518214,0.1298468804643471
25.243739999999995,6.788741583265042,0.1296809083774988
25.246136,6.794283250653337,0.1295381313649098
25.248528,6.797962586922078,0.1294175545387895
25.250907999999995,6.80494727654935,0.129276406045714
25.253304,6.817798498789011,0.1290529826813739
25.255692,6.830789490655534,0.128823164664576
25.258076,6.845130956962415,0.1285596629578689
25.260472,6.856911244015439,0.1283565422047177
25.26286,6.868272222187884,0.1281763625356294
25.265244,6.879772969987188,0.1279901641549685
25.26764,6.891181169987875,0.1277712281128434
25.270028,6.900727038869003,0.1275741709475771
25.272412,6.909713829242692,0.1274056038074172
25.274812,6.920190863683601,0.1271954122728556
25.2772,6.934579551818724,0.1268926290084603
25.27958,6.9433812465951785,0.1266535645733905
25.28198,6.951763632491052,0.1264379000311541
25.284368,6.959586939879485,0.126253699711192
25.286748,6.969784435066673,0.1260595254525268
25.289144,6.978678677641745,0.1258574218367282
25.291536,6.98119453092523,0.1257226378776855
25.293916,6.9840824712610505,0.1256076560105545
25.296312,6.985200628275932,0.125547605470641
25.2987,6.986179015663954,0.1254953813488778
25.301084,6.990789517492471,0.1253688665936634
25.30348,6.992466753014795,0.1252803799332035
25.305872,6.993724679656537,0.1252140944389817
25.308252,6.997264246298416,0.1251053003499791
25.310652,7.002154287380654,0.1249645301560036
25.31304,7.004530371037278,0.1248399220181386
25.315424,7.006626915440181,0.1247305842615211
25.31782,7.009375086149143,0.1246257344552184
25.320208,7.017477932791296,0.1244348048001225
25.322592,7.026651714620089,0.1242274172657604
25.324988,7.033543856448743,0.1240625950661972
25.327376,7.049235797195983,0.1237887225882409
25.32976,7.064648198689502,0.1235292794888674
25.332156,7.079408973876965,0.1232661446214701
25.334544,7.09379766201209,0.1229845248394308
25.336928,7.106044479773937,0.1227360618281004
25.339324,7.1198740894016215,0.1224808107526912
25.341712,7.13212090716347,0.1222310627615683
25.394276,6.92809569296041,0.1219258799170928
25.396676,6.931030855124475,0.1217755582684042
25.39906,6.937178822848455,0.1215771795379238
25.401444,6.946260056878629,0.1213436717099109
25.403839999999995,6.960416427588276,0.1210436535881128
25.406232,6.9800672438579765,0.1206567412740294
25.408612,7.005864131993789,0.1201871484371862
25.411007999999995,7.031521250502739,0.1197268365971881
25.4134,7.058249304198329,0.1192497592671763
25.415783999999995,7.085117127520778,0.1187647463632177
25.418184,7.117991253082479,0.1182049034052617
25.420572,7.156359824204231,0.1175648027834561
25.422956,7.196870265699262,0.1168919712582968
25.425352,7.2373807071942915,0.1162277399669243
25.427744,7.274957882383126,0.1155962489090267
25.430128,7.315468323878157,0.1149313964080312
25.432524,7.351183167947435,0.1143203751955619
25.434916,7.380751940150604,0.113791365724488
25.4373,7.410088394928293,0.113240039881478
25.439699999999995,7.438773223399925,0.1126831728875085
25.442091999999995,7.462662454445805,0.1121781468233058
25.444472,7.481895857692794,0.111721967604933
25.446867999999995,7.497916455379867,0.1113144960245973
25.449252,7.517289628253716,0.1108607525209798
25.451636,7.531587664448093,0.1104686772117443
25.454032,7.542533125455693,0.1101299707712262
25.456419999999994,7.552687190530376,0.1097961529019757
25.4588,7.559535902246527,0.1094727818764925
25.461196,7.570808124336091,0.1090891172290266
25.463584,7.583802907918351,0.1086974092039739
25.465964,7.593864425194417,0.1083372673229289
25.468368,7.596289626537153,0.1080818755666344
25.470755999999994,7.599366454185947,0.1078326979702806
25.473136,7.595505814035713,0.1076534121215485
25.475532,7.596860080191811,0.1074121518158803
25.477923999999994,7.597283180788129,0.1071786348488123
25.480304,7.598777216571087,0.1069306911320798
25.4827,7.606417324220156,0.1066139469206869
25.485088,7.612939274854344,0.1063492153405507
25.487468,7.62546752772778,0.1060253142116083
25.489868,7.642139751720911,0.1056550703840044
25.492256,7.656111026833324,0.1053364350238189
25.494636,7.672224172319014,0.1049928888313937
25.49704,7.684193346685011,0.1046991518052837
25.499427999999995,7.698304391424284,0.1043784777518404
25.501808,7.71148427060378,0.1040644730233395
25.504203999999994,7.723313675342917,0.1037783809920708
25.506592,7.739519368627223,0.1034714107680824
25.508972,7.748228515605062,0.1032563865748335
25.511368,7.75628603627684,0.1030362283430655
25.513756,7.7652747225084,0.1028102660632219
25.51614,7.778407379859651,0.102538661240596
25.518536,7.789817475718206,0.1022743833449701
25.520924,7.810027370495348,0.1019324221745705
25.523308,7.826233063779655,0.1016312715461082
25.525704,7.843369922623741,0.1013249267261372
25.528092,7.863300278147163,0.1010007331421372
25.530472,7.878015727364251,0.1007342062703234
25.532868,7.895152586208336,0.1004313806968957
25.535256,7.905863833932591,0.1002050518393294
25.53764,7.91322250647007,0.1000223198276513
25.540036,7.923002588634546,0.0998023001898418
25.542424,7.926636598932912,0.0996433588260894
25.544804,7.928128738858001,0.0995087221451041
25.547204,7.930691813969727,0.0993621966566175
25.549592,7.934186054641232,0.0992094408456489
25.551972,7.93674912975296,0.0990630985259617
25.554372,7.938520808931769,0.0989174311030899
25.55676,7.943365524043632,0.0987408045688937
25.55914,7.948861865461555,0.0985708194325537
25.56154,7.952216336506199,0.0984251399986442
25.563928,7.956362203483763,0.098280298610202
25.566308,7.960088761580744,0.0981532722499927
25.568704,7.960742283744672,0.0980569166288683
25.571092,7.9601851010951,0.0979781846105671
25.573471999999995,7.959488148818669,0.097905658710549
25.575872,7.955857930236041,0.0978566072567079
25.578256,7.957302848332886,0.0977608222960759
25.580639999999995,7.956885435310175,0.0976767895499898
25.583044,7.9548852304216275,0.0975919210292172
25.585432,7.954095730346579,0.097489248736966
25.587816,7.957310431764364,0.0973526207795619
25.590212,7.967742140234899,0.0971467375059542
25.5926,7.984180150944685,0.0968904440905892
25.594984,8.001409557587387,0.0966365629142169
25.597384,8.016916402737392,0.0963875262359594
25.599771999999994,8.029629751208065,0.0961542647586959
25.602156,8.041411934118956,0.0959273977579281
25.604552,8.054404821843349,0.0956841429672236
25.606939999999994,8.0675374791946,0.0954361669100774
25.60932,8.08281200691913,0.0951659479991788
25.611716,8.094501642031407,0.0949118447448627
25.614104,8.110754557143958,0.0946027149723184
25.616488,8.127147241883367,0.0942891992630631
25.618884,8.145821566622915,0.0939472391288356
25.621272,8.163052869123486,0.0935992946350063
25.623652,8.185499077930391,0.0932050035976223
25.626051999999994,8.202078754124905,0.0928539842937968
25.62844,8.2178670343865,0.0925026868653857
25.63082,8.23887022095443,0.0921034766209927
25.633219999999994,8.259873407522358,0.0917051304421712
25.635608,8.275010061477898,0.0913505752528032
25.637988,8.286002744313741,0.0910345913260073
25.640387999999994,8.292199829723835,0.0907503790987298
25.642776,8.293741087335034,0.0904902567941367
25.645156,8.301148877558624,0.0901912615418673
25.647552,8.313492034834828,0.0898573030588262
25.64994,8.324904026551252,0.0895281854695986
25.65232,8.336316018267677,0.0892007294807822
25.65472,8.346936614051184,0.0888733762545244
25.657108,8.357045353155494,0.0885351423328803
25.659488,8.371298063379497,0.0881630376364241
25.661884,8.381267032856945,0.0878328094386537
25.664272,8.389513440841696,0.0875064703820338
25.666652,8.399342640692288,0.0871836712693164
25.669048,8.409683697222071,0.0868732437403273
25.671436,8.409734710766053,0.0866443145685959
25.673815999999995,8.413789925802869,0.0863867018374862
25.676212,8.41956770233238,0.0861263718765446
25.6786,8.422924069234893,0.0858975741496579
25.680996,8.42614066651055,0.08567443874489
25.683392,8.43215076046554,0.0854386999820121
25.68578,8.441373659980444,0.0851747879284548
25.68816,8.451667494681987,0.0849014631444342
25.690563999999995,8.4675483227422,0.0846039585638427
25.692952,8.476491683003385,0.0843523747761101
25.695332,8.481570611398595,0.0841228102281205
25.697731999999995,8.48972257572686,0.0838711901601186
25.700116,8.494801504122071,0.0836423288844741
25.7025,8.497459022890284,0.0834426705570733
25.704896,8.502490729457254,0.0832485701059011
25.707283999999994,8.503098925650807,0.0830971145526904
25.709664,8.506919927404274,0.0829184330875292
25.71206,8.507807662851548,0.0827558075802585
25.714448,8.506321210500069,0.0825887352826329
25.716828,8.505114297402308,0.0824109981873613
25.719224,8.514337196917213,0.0821525090971018
25.721612,8.52141822605884,0.0819126065091528
25.724008,8.528778794454187,0.0816631020600932
25.726403999999995,8.537489837289893,0.0813947168011364
25.728792,8.550484620872153,0.0810928010964584
25.731172,8.563479404454416,0.0807921601782025
25.733568,8.573401152103623,0.0805136119106293
25.735955999999995,8.584254065312605,0.0802326042899735
25.738336,8.594455352215531,0.0799469271083894
25.740732,8.612665042104126,0.0796153688509148
25.74312,8.62966402717922,0.0792957649017581
25.7455,8.641587875574842,0.0790086887376345
25.747899999999994,8.653651493597327,0.0787153243869173
25.750284,8.669486995687166,0.0783757499994822
25.752664,8.678664569231694,0.0780644157121523
25.755064,8.691054948336141,0.077727542527679
25.757452,8.697578794828198,0.077420561303909
25.759848,8.712902440238839,0.077070143602398
25.76224,8.729808877515316,0.0767246828356856
25.764627999999995,8.746715314791794,0.0763801647226587
25.767008,8.757615449829022,0.0760717573340748
25.769403999999994,8.770797224866387,0.0757424047958634
25.771792,8.781837129530473,0.075430108213552
25.774172,8.790735163821283,0.0751346765199494
25.776568,8.789902233633729,0.0748838518184248
25.778956,8.78776605083406,0.0746185762682261
25.781336,8.786980342474749,0.0743350636472352
25.783736,8.782190432622606,0.0740726336812247
25.786124,8.77139422053121,0.0738419123387208
25.78852,8.750727274334594,0.0736591109727873
25.790916,8.738348270377363,0.0734237531614059
25.793304,8.727040201606771,0.0731793815007844
25.795688,8.720807269515653,0.0729063458709942
25.798084,8.715225963730589,0.0726417172536686
25.800472,8.714859564251858,0.0723431100338691
25.802856,8.715424330332906,0.07204318132099
25.805252,8.722647024959263,0.0717204905339824
25.80764,8.72372364771951,0.0714346398923586
25.810024,8.724940040106617,0.0711446641118785
25.81242,8.72587689324,0.0708648665918326
25.814808,8.727465372679445,0.0705919665552394
25.817187999999994,8.72798291693225,0.0703270520705937
25.819584,8.729431626744836,0.0700597025397461
25.821971999999995,8.72994917099764,0.0697940224594189
25.824355999999995,8.738847205288451,0.069506787719267
25.826752,8.745835686631462,0.0692564174350888
25.829136,8.752125319840172,0.0690314456183415
25.831516,8.760417053795297,0.0687960837032054
25.83392,8.775786025176314,0.0685251069405011
25.836307999999995,8.79581082435622,0.0682413741403011
25.838691999999995,8.810760486856655,0.0679868352089769
25.841088,8.83050574678284,0.0677174213568183
25.843472,8.849691928201587,0.0674706908494463
25.845856,8.864594368873778,0.0672526121778493
25.848251999999995,8.87893773103853,0.0670554225515451
25.85064,8.889556430964168,0.0668669038885484
25.85302,8.89724186458361,0.0666902483661677
25.855416,8.905067067829913,0.066508512838928
25.857803999999994,8.912100875143297,0.0663245227764792
25.860184,8.922347488016598,0.0661213291036237
25.86258,8.936738072009591,0.0658971842196332
25.864968,8.95378238305506,0.0656737719591651
25.867348,8.96975575891389,0.0654570726020762
25.869748,8.987451696265415,0.0652414626434104
25.872136,9.000631575444912,0.0650307188444817
25.874516,9.017164029811182,0.0647954837198184
25.876915999999994,9.033044857871396,0.0645523530175945
25.8793,9.052929887424442,0.0642941240558192
25.881684,9.067460241044298,0.0640691666827941
25.88408,9.088276436157122,0.0638131420903497
25.886468,9.105879825710032,0.0635757398667041
25.888852,9.121620884143384,0.0633433319509759
25.891248,9.134056589218204,0.0631040855675846
25.893632,9.14970509985294,0.0628462102361545
25.896016,9.164422444927895,0.0625903742343694
25.898412,9.18072258186869,0.0623408190397598
25.9008,9.197162488436344,0.062087184524362
25.90318,9.214393790936915,0.0618368603746871
25.90558,9.23027461899713,0.0616023841790362
25.907968,9.242151245564507,0.0613840745449885
25.910352,9.25188600175861,0.0611792701382711
25.912748,9.260177735713736,0.0609647036005819
25.915136,9.270751109669,0.060734120337941
25.917516,9.283745893251265,0.0604836971638802
25.919916,9.30046533907264,0.0602289581480168
25.9223,9.318115950453793,0.0599745673123558
25.924684,9.338839597767995,0.0597086058087047
25.92708,9.35756114433579,0.0594515397393167
25.929468,9.381637366836776,0.0591673568792424
25.931847999999995,9.396354711911732,0.0589259009372156
25.934244,9.4172181288528,0.0586606463363303
25.936632,9.436079445047447,0.058402612385985
25.939015999999995,9.45559238754816,0.0581529963074265
25.941412,9.473382768556172,0.05790176802397
25.943804,9.491732228071625,0.0576334631436827
25.946188,9.510361226840798,0.0573567703044303
25.948584,9.527779520796472,0.0570900995393277
25.950976,9.547479454752285,0.0568095263849726
25.95336,9.568250323894734,0.0565237533535679
25.955756,9.590743754529884,0.0562410949136414
25.958144,9.6092329836722,0.0559704272805522
25.960528,9.62236753688132,0.0557259144557
25.962924,9.635362320463582,0.0554870015639127
25.965312,9.646727090351764,0.0552720621937805
25.967692,9.65594998986667,0.0550681636635838
25.970092,9.660237522328964,0.0548767780501469
25.97248,9.6602413140447,0.0547059469892633
25.97486,9.658243005014022,0.054540992556903
25.977256,9.651029789677011,0.0543970327926501
25.979644,9.650102415832972,0.0542273660637471
25.982028,9.645170840496098,0.0540693118951859
25.984424,9.638097394785948,0.0539205987596745
25.986812,9.631955114635575,0.0537713858200851
25.989196,9.62725585672418,0.0536340034775827
25.991592,9.6221372899322,0.0535096008230803
25.99398,9.617670349446282,0.0533934067542892
25.996364,9.613482948214084,0.0532683327967086
25.99876,9.605291345489054,0.0531538410904134
26.001148,9.597099742764025,0.0530392691671147
26.003528,9.589327448919567,0.0529119212088404
26.005924,9.587561457314363,0.0527690294834227
26.008312,9.594735034254612,0.0526054034133895
26.010692,9.59869580563494,0.0524558662220743
26.013092,9.602144720336074,0.052294158185501
26.01548,9.605873174290924,0.0521240611276087
26.01786,9.612674664178831,0.0519439776837861
26.02026,9.622688959626656,0.0517499812012677
26.022648,9.628559283954782,0.0515692396088087
26.025028,9.636152169775608,0.051391803965086
26.027424,9.636947357424262,0.051225447689234
26.029812,9.637742545072918,0.0510588790212368
26.032196,9.644823574214549,0.0508691936662765
26.034592,9.645106905184008,0.0506893204551912
26.03698,9.639663473167936,0.0505147810758765
