Time,Force,Position
6.791427999999996,6.8167995061343,0.1611330021905116
6.7938800000000015,6.922423460549007,0.1603329566292884
6.796323999999999,7.01762139406679,0.1595311305990054
6.798776000000004,7.1035586855307695,0.1585915168718811
6.801212000000021,7.169203013708338,0.1576357013492007
6.803656000000018,7.207105054121268,0.1567679692694278
6.806095999999997,7.21139448244143,0.1563260142175469
6.808544000000012,7.203811075909948,0.1561055645629112
6.810988000000009,7.1999976575879545,0.1559029719190512
6.813423999999998,7.200141218930557,0.1556704246198096
6.815872000000013,7.19953871031061,0.1555146743873977
6.81831600000001,7.209271570646841,0.1552325663429368
6.820760000000007,7.224544202513504,0.1549035963300113
6.823212000000012,7.24740592848525,0.154468428107663
6.84032400000001,7.24080090934179,0.1541823890895497
6.842768000000007,7.2333534807214335,0.1541796238044223
6.8452000000000055,7.229583492511943,0.1541618739231967
6.847648000000021,7.236103547288261,0.1539568091481216
6.850088,7.239038709452325,0.1537980208293147
6.852536000000015,7.250027600572429,0.1535742174908915
6.854984000000002,7.274796983634108,0.1531984992659435
6.857420000000019,7.3016610152408195,0.152819739996692
6.859876000000014,7.326337850503882,0.1524212903756779
6.862320000000011,7.344124439796157,0.152100670441946
6.864760000000018,7.360188467595734,0.1517913135046365
6.867208000000005,7.375413877634153,0.1515263056087807
6.86966000000001,7.398135833979039,0.1511265592118769
6.872104000000007,7.411733126181245,0.1508189011702899
6.874548000000004,7.428171136891031,0.1504415121116145
6.8769840000000215,7.448938214317743,0.1500510845135299
6.8794280000000185,7.491633956298554,0.1493922215848004
6.881867999999997,7.54569067645181,0.1485560488509838
6.884312000000023,7.6044504462322,0.1476306061761583
6.886752000000001,7.650219224146066,0.1469393173636116
6.889195999999998,7.698779602881401,0.1463044698299739
6.891652000000022,7.759025825013274,0.1455342866893152
6.8940920000000006,7.821508361174908,0.1446728728505557
6.896535999999998,7.867277139088776,0.1440015404082739
6.898988000000003,7.911415903308564,0.1433722437083852
6.901443999999998,7.951503244207277,0.1428404414172505
6.903896000000003,7.988517549172932,0.1423675124770537
6.90634,8.031120743355126,0.1417369723271862
6.908788000000016,8.067904626753176,0.1411564751124614
6.9112320000000125,8.105944540935095,0.1406153061441125
6.9136760000000095,8.156414472618229,0.1399829684944867
6.916120000000007,8.214660489861553,0.1392231673626663
6.918568000000022,8.266715109268393,0.1385137853567385
6.921012000000019,8.311972030503062,0.1378924527878675
6.923456000000016,8.349265874722438,0.1374453245520605
6.925900000000013,8.389865072300347,0.1369757258510009
6.92834000000002,8.41510098607085,0.1366347940406215
6.930784000000017,8.42762734308642,0.1363910166068894
6.933220000000006,8.432936693049239,0.1362479093016052
6.935676000000001,8.448721181595097,0.1360163399398505
6.938119999999998,8.477496662007479,0.1355876425683363
6.940564000000023,8.499708657531036,0.1351710412718329
6.943016,8.509675731150615,0.1348870318023419
6.945459999999997,8.528068620778573,0.1345791444262226
6.947908000000012,8.553584073802794,0.1342417213667781
6.950352000000009,8.583011180521233,0.1338254001950446
6.952799999999996,8.60573503272399,0.1334207652112243
6.955244000000022,8.61802907231408,0.1331640192180444
6.957692000000009,8.631159833807462,0.1329651375814401
6.960136000000006,8.648946423099739,0.132720489879768
6.962580000000003,8.660449066756911,0.1324698034056099
6.96501600000002,8.661336802204184,0.1323057457391122
6.967460000000017,8.65486776097185,0.1322411465298759
6.969899999999996,8.65272778645644,0.1321768833471498
6.972348000000011,8.660226228620779,0.1319763431569079
6.974795999999998,8.666328870374386,0.1317430913102165
6.977232000000015,8.67280359918033,0.131523887029141
6.97968400000002,8.681837611382264,0.1313501509128642
6.982128000000017,8.69790163918184,0.1311220124067775
6.984567999999996,8.714432197690241,0.1308445479861678
6.987012000000021,8.717507129481167,0.1307123761556357
6.989460000000008,8.722676709817124,0.1305847124272189
6.991904000000005,8.734456996870149,0.1304221627166511
6.9943560000000105,8.74349100907208,0.1302539100268247
6.996800000000008,8.748894802691384,0.1300555107881946
6.9992440000000045,8.750573934071575,0.1298916897632363
7.0016880000000015,8.755650966608918,0.1297378384052627
7.004131999999999,8.765244057318291,0.1295466755024483
7.006572000000006,8.778097175415821,0.1292795982489057
7.009016000000003,8.783780508288848,0.129069353698104
7.01146,8.788997310453052,0.1289098641288077
7.082380000000001,8.458683091496535,0.1288310197991696
7.084816000000018,8.441506594255683,0.1288136208357675
7.087260000000015,8.428334298507666,0.1287495752575623
7.089700000000022,8.418374808319562,0.1286406481230531
7.092144000000019,8.41647094294537,0.1284036426046514
7.094604000000004,8.4143347601457,0.1281445340839796
7.097040000000021,8.409125541412976,0.1279238880058232
7.099496000000016,8.404567948986308,0.1277062497167861
7.101936000000023,8.402803853238977,0.1274626058903941
7.104388,8.402250462305142,0.1271973609011441
7.106831999999997,8.40155730174445,0.1269384316703592
7.109284000000002,8.4103155664084,0.1265880745328216
7.111732000000018,8.422798493311463,0.1262021727898503
7.114171999999996,8.435560959468248,0.1258035137043344
7.116608000000014,8.447252490438393,0.1254222421815377
7.119052000000011,8.462017057341594,0.1250065143467323
7.121496000000008,8.479203033871793,0.1245513798026402
7.123940000000005,8.495365297043595,0.1240777692846021
7.126384000000002,8.51059639465562,0.1236138095477892
7.128820000000019,8.529691924133619,0.1231101506166224
7.131268000000006,8.551720719917812,0.1225782411832865
7.133708000000013,8.571467875701867,0.1220836608845652
7.13615200000001,8.596150398538535,0.1215412758656107
7.138604000000015,8.618551281375066,0.1210342918960028
7.141048000000012,8.635737257905264,0.1205930353845262
7.143495999999999,8.653202773689182,0.1201402369406015
7.145936000000006,8.6718789942866,0.11966800744395
7.148376000000013,8.695630351563489,0.1191432831821423
7.150824,8.717798916974544,0.1186240453251329
7.153272000000015,8.73931585607954,0.1180998509366323
7.155716000000012,8.760041399251614,0.1175777914033887
7.158160000000009,8.774528322758965,0.1171007832503513
7.160595999999998,8.787292684773616,0.1166327795573455
7.163039999999995,8.79819471566871,0.1161781998702025
7.165484000000021,8.805232314697832,0.1157587946314764
7.167928000000018,8.806403381114563,0.1153962048732478
7.1703760000000045,8.805292807531156,0.1150662242834896
7.172812000000022,8.805904795440448,0.1147280762568491
7.175268000000017,8.804002825924126,0.1143992738716425
7.177707999999996,8.800518064541963,0.1140735149469591
7.180152000000021,8.793960267226748,0.1137811333918098
7.182596000000018,8.784888512485917,0.113497812072866
7.185048000000023,8.770881390692475,0.1132616120518892
7.18749200000002,8.756874268899029,0.1130249155364832
7.189943999999997,8.742587607851867,0.11279896876412
7.192380000000014,8.728021407550983,0.112583830301983
7.194828000000001,8.71387451613068,0.1123508906183935
7.197268000000008,8.692790156911348,0.1121831033817408
7.199712000000005,8.672077884744356,0.1120306747526479
7.202156000000002,8.655090274816473,0.1118501406523423
7.204592000000019,8.63996499600815,0.1116555939521886
7.2070480000000146,8.626794596117998,0.1114745251808422
7.209488000000022,8.616138153653464,0.1112842933802236
7.211932000000019,8.612279409361097,0.111036100642216
7.2143839999999955,8.60949160025537,0.1107744362967396
7.216828000000021,8.610428453388757,0.1104857688759929
7.219284000000016,8.61215670245506,0.1101961078274296
7.221728000000013,8.611463541894366,0.1099427242679534
7.22416800000002,8.615146669878843,0.1096678292516045
7.226612000000017,8.6197609634231,0.1093866334398097
7.229068000000012,8.626237588086912,0.1090927440252917
7.231512000000009,8.636159335736117,0.1087840704836943
7.2339640000000145,8.646732709691381,0.1084803223933204
7.2364080000000115,8.658377018833283,0.1081646375370802
7.238852000000008,8.672954594281382,0.1078238964221749
7.241296000000005,8.692048227901509,0.1074590837634801
7.243744000000021,8.711374178947114,0.1071178795263188
7.246188000000018,8.734424792231835,0.1067511202793908
7.248624000000007,8.757894714397134,0.1063685216937579
7.251080000000002,8.780945327681854,0.1060060315010583
7.253520000000009,8.802925005779935,0.1056568248964175
7.255967999999996,8.823461661639039,0.1053037535193679
7.258420000000001,8.845860648617698,0.1049413788803694
7.260863999999998,8.860763089289891,0.1046608221744321
7.263316000000003,8.879902048880394,0.1043677222291097
7.26576,8.899041008470899,0.1040764765118092
7.268200000000007,8.919111133621179,0.1037804425760666
7.270644000000004,8.943045690637431,0.1034570196342836
7.27309200000002,8.968051182840325,0.1031258629545484
7.275536000000017,8.995430862841973,0.1027963375793835
7.277988000000022,9.020156815791143,0.1024789538965938
7.280424000000011,9.04488276874032,0.1021633146573316
7.282868000000008,9.067746390569935,0.1018583353677763
7.285312000000005,9.09047024277269,0.1015596338479686
7.287756000000002,9.111471533482748,0.1012675749168416
7.290199999999999,9.126885830834135,0.1010100115524696
7.292636000000016,9.141368962625748,0.1007585322642932
7.295088000000021,9.157993964790634,0.1004878119956049
7.297532000000018,9.174991054007862,0.1002337680809709
7.299976000000015,9.190545120986112,0.0999759484847847
7.302420000000012,9.20810128871078,0.0997037414872336
7.304872000000017,9.225238147554863,0.0994469353922778
7.307316000000014,9.23678801304028,0.0992220103894675
7.309760000000011,9.253040928152831,0.0989391954297339
7.312196,9.268130360280123,0.0986428190109253
7.314639999999997,9.282009087593922,0.098362862664642
7.317084000000023,9.29481687972108,0.09809390365426
7.31952800000002,9.30590211035554,0.0978317422695685
7.321972000000017,9.31312290912403,0.097595728881821
7.324408000000005,9.316898584907122,0.0973700125997456
7.326852000000002,9.326261254048887,0.0971159065274723
7.3292920000000095,9.332690656884456,0.0968814448154803
7.331739999999996,9.34312426121286,0.0966177287250062
7.334192000000002,9.35649113184746,0.0963360178742962
7.336647999999997,9.373582664721171,0.096036747919638
7.33910400000002,9.391605363154662,0.0957321355541347
7.341548000000017,9.408185039349176,0.0954217195580178
7.343987999999996,9.41782724774466,0.095159724972623
7.346432000000021,9.428168304274449,0.0948735918589278
7.348883999999998,9.437438425617596,0.094597473105868
7.351332000000013,9.44270434546791,0.094350186672129
7.35377600000001,9.452673314945356,0.0940506499763553
7.356208000000009,9.465575550729,0.0937319066257961
7.358655999999996,9.478058477632064,0.0934297140051553
7.361096000000003,9.486397433415434,0.0931604470846214
7.363544000000019,9.49301382770611,0.0928947514377926
7.365983999999997,9.498187199757805,0.0926227296778466
7.368424000000004,9.49949613994353,0.0923732432013402
7.37087600000001,9.50308672012939,0.0921002575252816
7.373320000000007,9.50653753068839,0.0918320001598337
7.375768000000022,9.503470182328943,0.0915948175581207
7.378219999999999,9.505757509902686,0.0913116129278776
7.380663999999996,9.506322275983734,0.091032904175319
7.383112000000011,9.503581688706252,0.090757078028655
7.385564000000016,9.498327144003152,0.0904847662627719
7.388003999999995,9.494143534486694,0.0902032863392018
7.390448000000021,9.491542716836072,0.0899230598831833
7.392892000000018,9.49387726623806,0.0896119328364805
7.395336000000015,9.492067844520353,0.0893315491563626
7.397776000000022,9.490118653175786,0.0890557054035856
7.40021200000001,9.488728540338665,0.0887592801068923
7.4026520000000176,9.479841881195068,0.0885253815268453
7.4050960000000146,9.47188638761125,0.0882876338940718
7.407540000000012,9.46127716697496,0.0880566045238957
7.4099879999999985,9.45667424857792,0.0877872483801552
7.412419999999997,9.455563674994512,0.0874817134452145
7.414876000000021,9.456175662903805,0.0871730425137167
7.417320000000018,9.45986068674615,0.0868424068847141
7.419759999999997,9.46033290502858,0.0865380380824333
7.422204000000022,9.46322653293801,0.0862069727592784
7.424655999999999,9.47105552790005,0.0858476212052736
7.427099999999996,9.47460078211554,0.0855239328332607
7.429548000000011,9.478285805957888,0.0851959938103508
7.431984,9.480340816106157,0.084895370309501
7.434427999999997,9.47797231588101,0.0846325855712482
7.436868000000004,9.47695429009622,0.0843521991295276
7.439316000000019,9.476215803565152,0.0840623617216339
7.441755999999998,9.475617086660948,0.0837685436014798
7.444204000000013,9.479953736809351,0.083447765218012
7.446660000000008,9.485361322144394,0.0831187516487503
7.449104000000005,9.492351699345274,0.082792447706481
7.451548000000002,9.504556982852488,0.0824290831452969
7.454000000000008,9.515039704867004,0.0820684797805347
7.456444000000005,9.529386858747491,0.0816904317682647
7.4589,9.540521207068068,0.0813387267144233
7.461340000000007,9.550816937627475,0.0810171501203763
7.463784000000004,9.562323373000387,0.0806840400302509
7.466228000000001,9.574621204306217,0.0803535992763548
7.468683999999996,9.589060905985322,0.0800073783716696
7.471128000000021,9.602010363597213,0.0796844247174314
7.473579999999998,9.609744914902764,0.0793958849043139
7.476011999999997,9.615756904715624,0.0791079179301441
7.4784600000000125,9.620418420088122,0.0788373122519467
7.48090000000002,9.62708203620704,0.0785555797360522
7.483344000000017,9.640031493818928,0.0782319567697372
7.485788000000014,9.648417671430538,0.0779486016417198
7.4882200000000125,9.657455475348211,0.0776725092063048
7.490676000000008,9.663420243332824,0.0774148299180525
7.493116000000015,9.665241040197746,0.0771831906796487
7.495560000000012,9.66613067150289,0.0769544535404088
7.498007999999999,9.667020302808032,0.0767259424165259
7.500456000000014,9.671774365979148,0.0764833763159829
7.502904000000001,9.678111221016104,0.0762449485841871
7.505344000000008,9.68151480974686,0.0760199534270733
7.507788000000005,9.686268872917976,0.0757790306229125
7.510232000000002,9.689160604969535,0.0755435304471226
7.512680000000017,9.690562092953876,0.0753295443081971
7.515124000000014,9.688890545005162,0.0751324989407226
7.51757600000002,9.686939457802726,0.0749447468872277
7.520015999999998,9.685128140227151,0.074752504780859
7.522459999999995,9.688252189704189,0.0745383116538374
7.524912,9.698173937353394,0.0742980769195137
7.527355999999997,9.710237555375878,0.0740442673993805
7.529804000000013,9.725234439704556,0.0737798847226652
7.532236000000012,9.740091554406373,0.0735221121680095
7.534692000000007,9.76016357541452,0.0732346202091131
7.537132000000014,9.778373265303117,0.0729523565213764
7.539572000000021,9.799655991124764,0.0726545434555257
7.542016000000018,9.82308058731969,0.0723429774013319
7.544468000000023,9.849438449820813,0.0720214701082739
7.54691200000002,9.878589809001268,0.0716952975262493
7.549360000000007,9.900803700382694,0.0714002307276282
7.551804000000004,9.923297131017842,0.0710977935904418
7.554248000000001,9.949654993518966,0.0707840906939246
7.556696000000016,9.973591446393089,0.0704931761854328
7.559140000000013,10.003953510387042,0.0701661096534267
7.561588,10.035666048821357,0.0698251511185181
7.564031999999997,10.070451623188724,0.069469753509538
7.566476000000023,10.103374866436535,0.0691183810612127
7.56892000000002,10.134156239311077,0.0687797486566298
7.571364000000017,10.161073180319637,0.0684542874956368
7.573816000000022,10.181844049462088,0.06815953331152
7.576260000000019,10.20047304823126,0.0678780659201732
7.578711999999996,10.214725758455264,0.0675985171969014
7.581152000000003,10.226045202373069,0.067329760097243
7.583600000000018,10.23629371110424,0.0670684847980528
7.586048000000005,10.249894795022186,0.0667857051558604
7.588496000000021,10.263356109313271,0.0665084246277303
7.590940000000018,10.282963495470463,0.0662068191067936
7.593392000000023,10.301499946441025,0.0659128117358435
7.5958320000000015,10.317242900732246,0.0656251548489761
7.5982759999999985,10.33326539427719,0.0653285789976831
7.6007199999999955,10.347285787075716,0.0650400359850486
7.603164000000021,10.357581517635127,0.0647588684991266
7.605612000000008,10.370298657821538,0.0644585267885104
7.608056000000005,10.376078330208918,0.0641825337428914
7.610500000000002,10.382789168156076,0.0639063845403071
7.612940000000009,10.38684627905076,0.0636304186684234
7.615384000000006,10.395187130692,0.0633330710798502
7.617836000000011,10.407951492706651,0.0630104476630527
7.620280000000008,10.424859825841,0.0626710146286912
7.622727999999995,10.442978863788843,0.0623215642055181
7.625168000000002,10.464031168042888,0.0619651392691679
7.627611999999999,10.487457660095682,0.0616178258249466
7.630055999999996,10.512606713641173,0.0612728362918718
7.632500000000022,10.535893436067107,0.0609311164833518
7.634944000000019,10.556758748866043,0.0606097277431607
7.637388000000016,10.575761730545429,0.060291363609654
7.639832000000013,10.583403734052364,0.0600186095251269
7.64227600000001,10.588252240879966,0.0597492689458262
7.6447239999999965,10.590167481401371,0.0594867441087004
7.647168000000022,10.595388075281312,0.0592323262641167
7.649612000000019,10.601260295467313,0.0589849306172899
7.652051999999998,10.60578204121295,0.0587503091290851
7.654508000000021,10.607090981398676,0.0585309629113505
7.656948,10.604767807143904,0.0583377369582816
7.659396000000015,10.598300661769436,0.0581607385071984
7.661836000000022,10.59648934419386,0.0579790872454198
7.664287999999999,10.592116847364428,0.0578199028111703
7.666736000000014,10.58318107053472,0.0576885349032005
7.669184000000001,10.574896920011073,0.0575647074301593
7.671627999999998,10.570477201353397,0.0574336288816403
7.674071999999995,10.563124216389523,0.0573091080764991
7.676516000000021,10.555119605119597,0.0571774886867181
7.678964000000008,10.548185929036306,0.0570414063446926
7.681404000000015,10.547258555192265,0.0568894833491183
7.683840000000004,10.544189310974946,0.0567466677682816
7.686284000000001,10.539769592317272,0.0566160563920618
7.688724000000008,10.536560578473097,0.0564757536195022
7.691172000000023,10.536145061308252,0.0563332059970139
7.69362000000001,10.540525141569164,0.0561831260319114
7.696067999999997,10.54038916365804,0.0560325294648952
7.698520000000002,10.541883199441,0.0558617439542703
7.700963999999999,10.54845237190343,0.0556761469408786
7.703404000000006,10.557954810672054,0.0554847723071137
7.705848000000003,10.575884961306928,0.0552605269863466
7.708303999999998,10.591952780822243,0.0550364850581958
7.710747999999995,10.60294546365809,0.0548280406371892
7.713196000000011,10.613286520187874,0.0546123536428303
7.7156280000000095,10.624978051158015,0.0543837825158165
7.7180720000000065,10.630942819142632,0.0541629666283506
7.720512000000014,10.635045256007691,0.0539444233868524
7.72296,10.641149793619167,0.053721127757886
7.725400000000008,10.64683502235006,0.0535098846887677
7.727835999999996,10.647724653655205,0.0533050438865715
7.73029200000002,10.63925540753432,0.0531321381262133
7.732731999999999,10.634278506227076,0.0529381155750206
7.735175999999996,10.629720913800409,0.0527316527963178
7.737628000000001,10.633171724359409,0.0525062117703338
7.740071999999998,10.632618333425576,0.0522900201450723
7.742516000000023,10.62834028025263,0.0520755245906667
7.744968,10.62685572375902,0.0518594000776787
7.747404000000017,10.620668117638273,0.0516719266963551
7.749848000000014,10.606332338904998,0.0515065462355902
7.752296000000001,10.58813212830575,0.0513459650640371
7.754739999999998,10.563785845840393,0.0512026449270779
7.757180000000005,10.543723304121588,0.0510415257294903
