Time,Force,Position
5.343708,7.512717043073107,0.1550140002456427
5.346088,7.56653196651154,0.154556826333414
5.348484000000001,7.598423912969481,0.1540981590252619
5.350872000000001,7.615700541440428,0.1536413163495439
5.360416000000001,7.59913603210887,0.1532824169254135
5.3628160000000005,7.604445382071688,0.153115384569065
5.365204,7.609195653527066,0.152977647990991
5.3676,7.614363338005155,0.1529259843262254
5.369999999999999,7.627817068864766,0.1528415235242408
5.372388000000001,7.653236182374631,0.152607259552637
5.374768,7.685313224429805,0.1522762261783199
5.377167999999999,7.727820079097644,0.1517666622307031
5.379556000000001,7.770886012272924,0.1512356307320361
5.381936,7.818143138396142,0.1506113502224003
5.384335999999999,7.869591457467297,0.1498793623780986
5.386724000000001,7.9141495305676655,0.1492042875986867
5.389104,7.950606652883748,0.1486253505114349
5.391500000000001,7.984782135199695,0.1480995015745555
5.393884,8.024637158672931,0.1475310020087798
5.396264,8.065935204385141,0.1469653503050516
5.398668000000001,8.10257742229846,0.146462098574005
5.401052,8.12711448793466,0.1461119928801781
5.403435999999999,8.153002028011217,0.1457274998893291
5.405832,8.175025136221805,0.1453957009128892
5.408216,8.201471754805803,0.1449872263400187
5.410596,8.22596349447163,0.144574299546397
5.413,8.245986397793668,0.1441735338407186
5.415388,8.256837415144782,0.1438817442377151
5.417768000000001,8.26131004320431,0.1436654851391216
5.420172000000001,8.262477317905303,0.1434755630670443
5.432112,8.200336709688587,0.1434248237371327
5.434507999999999,8.192889281068227,0.1434112341217004
5.436896000000001,8.18595370912707,0.14340731360555
5.439276,8.17929767643963,0.1433898979513238
5.44168,8.17548236225977,0.143305081682815
5.444068,8.16663913322868,0.1432573415508576
5.446448,8.154490550839057,0.1432324895499398
5.448843999999999,8.146206400315409,0.1431585715244188
5.451228,8.145371574269985,0.1429993549652954
5.453608000000001,8.15282469046395,0.14271739478291
5.456008000000001,8.154131734791806,0.142525200205542
5.458392,8.153109917291278,0.1424079250973918
5.460776000000001,8.155625770574762,0.1422897738683998
5.463172,8.162937221283997,0.1421111229722445
5.465555999999999,8.178676383859482,0.1418060174579156
5.4679400000000005,8.189340409755491,0.1415718800504258
5.470344000000001,8.198094882703703,0.1413916194549916
5.472728,8.212436349010584,0.1411457854359389
5.475111999999999,8.22533479307849,0.1409038031951543
5.477508,8.240562098974776,0.1405862499366769
5.479892,8.249411015579474,0.1403361258278411
5.482276000000001,8.2531847955047,0.1401586663314759
5.484672,8.263476734348373,0.1399072348045667
5.48706,8.271626802818771,0.1396910856322387
5.489452,8.275121043490277,0.13952905802677
5.491848000000001,8.281920637520315,0.1393447973461439
5.494236000000001,8.294632090133117,0.1391479734284498
5.49662,8.31251122722401,0.1389096501631846
5.499024,8.326014075769727,0.1387143639050566
5.501408,8.332998765397,0.1385914591123476
5.503788,8.339983455024273,0.1384676774921109
5.506183999999999,8.34990141095774,0.1383063211070397
5.508572000000001,8.363451481331703,0.1380777043355471
5.510952,8.379842270213246,0.1377876346916077
5.513351999999999,8.381846266817531,0.1376651431642672
5.515736,8.389297487153627,0.1374896283432772
5.51812,8.403127096781311,0.1372499871521352
5.520516000000001,8.416025540849216,0.1370209361107702
5.5229,8.426410027491507,0.1368094335821423
5.525284000000001,8.432371003760384,0.1366689371000991
5.52768,8.440798715626633,0.136544772650463
5.530068,8.453323176784332,0.1363958391803208
5.532464000000001,8.460540183837079,0.1362942831708599
5.568292,8.40989653170393,0.1362183336418022
5.5706880000000005,8.407429796106559,0.1362002600520078
5.573076,8.40840818349458,0.1361565483475113
5.57546,8.415160555696374,0.1360158824432945
5.577856000000001,8.420889214539773,0.1358573222523884
5.58024,8.432903714876142,0.1356125489656627
5.582636000000001,8.441146331145159,0.1354392496636128
5.585032,8.453253379280143,0.1352218188865076
5.58742,8.470854872975185,0.1349208859878456
5.5898,8.48594240924461,0.1346367488723592
5.592196,8.502472967753011,0.134353336551663
5.5945800000000006,8.525242145926143,0.1340159722622667
5.596972000000001,8.552155295218965,0.1336230292221105
5.599372000000001,8.577672644101055,0.1331989382826279
5.601756,8.601886740371032,0.1327711341189621
5.604139999999999,8.623958966267729,0.1323752416394404
5.606536,8.651897724776815,0.1319113484690401
5.60892,8.682025575487424,0.1313866682712789
5.6113040000000005,8.706194345787026,0.1309023369028268
5.613708000000001,8.72729008015357,0.1304606450734425
5.616092,8.750108376012813,0.1300087956429879
5.618475999999999,8.771995506312278,0.1295673925367086
5.620872,8.795512650305822,0.1290900323222598
5.623256,8.813303031313833,0.1286735837796791
5.625640000000001,8.831093412321847,0.1282582576382454
5.628036,8.842597951836888,0.1279257219639254
5.630424,8.856803440232648,0.1275401888554864
5.6328,8.870497071949208,0.1271466970482411
5.635208,8.880745580680378,0.126777176396208
5.637596,8.892996190157964,0.1263860705769365
5.639976000000001,8.90087051109038,0.1260237953423518
5.642372,8.904648082731342,0.1256794933023644
5.64476,8.905911696946692,0.1253490558392364
5.64714,8.906756002281462,0.1250367036994197
5.649544000000001,8.906389602802733,0.1247441726974949
5.651928,8.908025304070419,0.1244298161209538
5.654312000000001,8.909009379032046,0.1241132618762099
5.656708,8.90556994362026,0.1238578707922885
5.659091999999999,8.903992839328033,0.1235856776577713
5.661488,8.903626439849306,0.1232944547702124
5.663884,8.900466543691241,0.1230268676601875
5.666271999999999,8.893581985294063,0.1227900657802165
5.668652,8.881901829471133,0.1225982830747474
5.671048000000001,8.873154939954397,0.1223767125804789
5.673436000000001,8.864687589691382,0.122143403392722
5.675815999999999,8.854777217189392,0.1219073036827685
5.67822,8.843656139873904,0.1216902758625169
5.680607999999999,8.832255523304694,0.1214846174728002
5.682988,8.821226993787823,0.1212940173241243
5.685392,8.807125428337896,0.1211378489282864
5.68778,8.799542021806417,0.1209272886515261
5.6901600000000006,8.79661444307383,0.1206781174206069
5.69256,8.79447826027416,0.1204269967990707
5.694944,8.789408811168295,0.1202039805932644
5.697328000000001,8.786481232435708,0.1199542233875047
5.699724,8.782482718516484,0.1197181145995382
5.702112,8.778344434970395,0.1194882486748723
5.704492,8.773414755491393,0.1192591274961957
5.706887999999999,8.771278572691722,0.1190078465877806
5.709276000000001,8.76513818839922,0.1187975259786875
5.71166,8.761511761532333,0.1185762035198868
5.714055999999999,8.762680932091193,0.1183113224291176
5.716444000000001,8.768366160822088,0.118015009021689
5.718824,8.769767648806427,0.1177711206264866
5.721228,8.771541223843107,0.1175434226106885
5.723616,8.781974828171508,0.1172391796410908
5.725996,8.797064260298802,0.1169007434182466
5.728392,8.81122252686632,0.1165696398308145
5.730779999999999,8.825660332687555,0.1162277234037864
5.733164,8.842891635188128,0.1158644095527763
5.73556,8.855327340262946,0.115543718046497
5.737947999999999,8.864550239777849,0.1152622752869876
5.740328,8.871631268919474,0.1150059605214349
5.742724000000001,8.882436960300215,0.1147210872077581
5.745112000000001,8.889098680561261,0.1144812739268607
5.747491999999999,8.896691566382085,0.1142350752625593
5.749888,8.901490955523572,0.1140100322382802
5.752276,8.909083841344398,0.1137634318046874
5.754659999999999,8.913743460859026,0.1135440931597513
5.757064,8.919194476306576,0.1133222930898422
5.759448000000001,8.925064800634702,0.1130844028771031
5.761828,8.92972442014933,0.1128653025152684
5.7642240000000005,8.930519607797986,0.1126795215221212
5.766612,8.937460867312756,0.1124302676996971
5.768996,8.940537694961549,0.1122135790646138
5.7713920000000005,8.935466349997816,0.1120801849157229
5.77378,8.923317767608191,0.1120167231918017
5.776176,8.914102451524762,0.1119271382690692
5.7785720000000005,8.90646992730717,0.1118352556958388
5.780956,8.897626698276076,0.1117611224356528
5.783340000000001,8.890366261110824,0.1116847335269811
5.785736,8.886039090251762,0.1115828494026365
5.788124,8.883574250512261,0.1114675308354896
5.790508000000001,8.883111511519179,0.1113340041925301
5.792904,8.888375535511619,0.1111558483362192
5.795292,8.89177722838451,0.1109909298403696
5.797672,8.895551008309733,0.1108411774069985
5.800068,8.899976414541015,0.110696276204059
5.802455999999999,8.905053447078357,0.1105558736215562
5.804836,8.916928177787867,0.1103601709327233
5.807232000000001,8.927172894803297,0.1101989753864058
5.809620000000001,8.940350878124919,0.1100142532699962
5.812016,8.955391192566102,0.1098164676009309
5.814412000000001,8.967078931820508,0.1096608074726726
5.816803999999999,8.984633203687306,0.1094567514389777
5.819184,9.008054008166493,0.1092044292635359
5.821580000000001,9.036689718952012,0.1088988024635245
5.823968000000001,9.065185660110672,0.1086017339133623
5.826347999999999,9.090888104589997,0.108324105563103
5.828744,9.118872189069458,0.1080195207490593
5.831132,9.148858374295338,0.107698557209076
5.833516,9.175771523588162,0.1074075398473321
5.835912,9.205617939187182,0.1070951399500208
5.8383,9.2342536499727,0.1068027163183273
5.840680000000001,9.259816324825165,0.1065403584645548
5.843076,9.286030625983688,0.1062826579336014
5.845468,9.312384696769069,0.106018606966551
5.847848000000001,9.341160177181449,0.1057242517713103
5.850244,9.375150563900162,0.1053832994002061
5.852632,9.404065813939402,0.1050898480486789
5.855012,9.436613178419138,0.1047506102245469
5.857408,9.465296111032902,0.1044406333809848
5.859795999999999,9.49905418032614,0.1040910957867617
5.86218,9.535093889619512,0.1037170332809974
5.864576,9.569271267793328,0.1033570481365825
5.866963999999999,9.597442343727892,0.1030449235904345
5.86936,9.62533388040874,0.1027455181208243
5.87176,9.650012611529668,0.102477805461499
5.874148,9.674691342650592,0.1022096385689581
5.876528,9.69429493709205,0.1019832675388491
5.878928,9.71217597004081,0.1017634476428803
5.881316,9.733269808549489,0.1015135177855195
5.8836960000000005,9.75157015037883,0.1012807899153407
5.886096,9.768147930715472,0.1010543938287643
5.888484,9.785145019932704,0.1008133994390199
5.890867999999999,9.804423749150065,0.1005483107437459
5.893264,9.827194823181063,0.1002442830268983
5.895652,9.845542386838648,0.0999863625790195
5.898035999999999,9.856021317137424,0.0997843274062219
5.900428,9.865848621130144,0.0995773316397976
5.902816,9.87125241474945,0.0994154417061832
5.905192,9.878798078742031,0.0992341504963844
5.9075880000000005,9.877404174189168,0.0991166957622362
5.909972,9.872937233703247,0.0990236498645277
5.912368000000001,9.866607962097772,0.0989401988869899
5.914771999999999,9.867775236798767,0.0987892172648503
5.917160000000001,9.867499489260783,0.0986336111359301
5.919536000000001,9.872066560976796,0.0984210703881379
5.921932,9.87691317194653,0.0981986368402481
5.92432,9.888464933289816,0.0979102063585797
5.9267,9.899365068327045,0.0976170252857039
5.9291,9.908682411498436,0.097324789891795
5.931488,9.91706858911005,0.0970371373515074
5.933864,9.921590334855688,0.0967715936317994
5.936260000000001,9.923039044668268,0.0965288429318432
5.938644,9.92169425780152,0.0963001778209911
5.941039999999999,9.917276435001714,0.096094959474623
5.943436,9.912766064403288,0.0958649342190367
5.945819999999999,9.91239966492456,0.0956022382493985
5.9482,9.91231280469955,0.0953296490632806
5.950604,9.915858058915036,0.0950154971293766
5.952992,9.914607715704774,0.0947276557749254
5.955368,9.9175013436142,0.0944066156251567
5.957772,9.917741244471154,0.094092740394277
5.96016,9.919191850141608,0.0937647172447833
5.962543999999999,9.915427549505727,0.0934792224951899
5.964944000000001,9.908450443309931,0.09322066880389
5.967332000000001,9.895047725994306,0.0930169980510147
5.969712,9.885509440544652,0.0927914214330401
5.972116,9.868195069534814,0.0926384202047459
5.974500000000001,9.853674195204304,0.0924723738802465
5.97688,9.836452371993076,0.0923429998006977
5.9792760000000005,9.822303584714906,0.0921912726309949
5.98166,9.813229934116206,0.092003943700464
5.98404,9.809371189823842,0.0917766088529203
5.9864440000000005,9.80551244553148,0.0915489582074053
5.988828,9.803516032358669,0.0913131976394116
5.991208,9.804964742171254,0.0910708993022634
5.993604,9.805342516797198,0.0908378719722516
5.995991999999999,9.808374018475618,0.0905981123284907
5.998372,9.805911074593986,0.0904064524607049
6.000768000000001,9.809035124071022,0.0901908509708561
6.003156000000001,9.812019403921198,0.0899801914939705
6.005552,9.819939050823988,0.0897401541341972
6.007956,9.828650093659691,0.0895017109863329
6.010339999999999,9.836709510189342,0.0892573761193059
6.01272,9.848912897838686,0.0889833028745128
6.015124,9.865260256607725,0.0886795391842026
6.017512,9.876951787577866,0.0883960979780396
6.0198920000000005,9.894789390414122,0.0880705240820042
6.022288,9.91141628843688,0.0877600009443785
6.024676,9.932746236086771,0.0874023423341187
6.027056,9.951282687057333,0.0870573742879251
6.02946,9.970610533960809,0.0867155367060527
6.031844,9.992731877543616,0.0863671441726955
6.034224,10.01685532187284,0.0860081861617477
6.036628,10.042049701388708,0.0856435561192909
6.039012,10.067523620158294,0.0852728279663503
6.041392,10.09220614299496,0.0849016624579314
6.043787999999999,10.114234938779155,0.0845375132542638
6.046176000000001,10.139756079376983,0.0841402449715062
6.048556,10.164905132922478,0.0837308953052368
6.0509520000000006,10.194617466468245,0.0832853085928353
6.053336,10.224329800014008,0.0828422363685863
6.055716,10.253250737626855,0.0823996567172233
6.058112,10.288829603785013,0.0819342587971988
6.060499999999999,10.32454823957003,0.0814674321074682
6.062896,10.359195940168403,0.0810100138526415
6.065292,10.397428533379037,0.0805465976144345
6.067679999999999,10.432355773231135,0.0800837511596873
6.07006,10.467050695657758,0.0796043656482528
6.072464,10.497601646964686,0.0791512536412635
6.074847999999999,10.527221432711835,0.0787009987541541
6.077228,10.553675634727313,0.0782463009138464
6.079632,10.573611677824342,0.0778136774235399
6.08202,10.593035864242172,0.0773727887315301
6.0844000000000005,10.61008586286125,0.0769288250515663
6.0868,10.621409098494794,0.0765048462482191
6.089184,10.632732334128344,0.076080880602308
6.091564,10.645266274575386,0.0756464938810587
6.093960000000001,10.658079754276152,0.07520490084915
6.096348000000001,10.667308341364665,0.074769310627649
6.098732,10.668668295094363,0.0743664988817894
6.101127999999999,10.671658262518152,0.0739422097348924
6.103516000000001,10.67199450288946,0.0735199816173445
6.105896,10.663019087662988,0.0731205368238215
6.1083,10.652321110943817,0.072721447367904
6.110684000000001,10.638317780866114,0.0723171779337148
6.113068,10.6200779318701,0.0719106054903951
6.1154720000000005,10.603420874739925,0.071507394350512
6.117856,10.58462194723647,0.0711158247713108
6.120240000000001,10.568244429360014,0.0707027068497382
6.122636,10.554800177789753,0.0702790573087093
6.125019999999999,10.540657078085191,0.0698748904445789
6.127404,10.520367906514515,0.0694960130592066
6.1298,10.498588490876624,0.0691352464975969
6.1321840000000005,10.473176960798238,0.0688037539264463
6.134563999999999,10.45027938814546,0.0684733711959327
6.136964000000001,10.425379714746269,0.0681496498158826
6.139348,10.39405443022725,0.0678609327668211
6.141731999999999,10.360819592760429,0.067602962989589
6.144128,10.330191260517836,0.0673706060887022
6.146516,10.303799447193557,0.0671407036239164
6.148911999999999,10.272285275361565,0.0669597967575833
6.151308,10.242074356141682,0.066791242419215
6.153696,10.212747380653338,0.066647925082468
6.1560760000000005,10.18472365777711,0.0665173184157594
6.158472,10.160517144938613,0.0664027583389994
6.16086,10.139196676578065,0.0663062468523391
6.16324,10.119319230456494,0.0662188139163308
6.165635999999999,10.10046549769332,0.0661531856504972
6.168024000000001,10.0815645431019,0.0661151990996142
6.170404,10.059962639629768,0.0661057367358592
6.1728000000000005,10.041014463210107,0.0660953301642395
6.175188,10.033240273507788,0.0660649917586747
6.177584,10.02662956679072,0.0660526314018146
6.1799800000000005,10.024395148618828,0.0660405164663369
6.182368,10.02388329193963,0.0660293531649671
6.184752,10.02867888936538,0.0660169309200661
6.187156,10.044928012762194,0.0659765396055407
6.189540000000001,10.063319006532284,0.0659245373999534
6.191924,10.08320024436959,0.0658543392974707
6.194319999999999,10.10107938146048,0.0657918392706599
6.196707999999999,10.122962720044203,0.0657144953834666
6.199088,10.146708389747486,0.0656341920413266
6.201484000000001,10.17767106650352,0.0655218794669072
6.2038720000000005,10.205281168072776,0.0654311306469251
6.206251999999999,10.235172909642168,0.0653254765809318
6.208648,10.26548396009214,0.0652078774068268
6.211031999999999,10.293792909795698,0.0650979834304966
6.213407999999999,10.324523269126251,0.0649688265843201
6.215804,10.352599901404332,0.0648400011502945
6.218192,10.383097943309409,0.0646916480829414
6.220584000000001,10.41480669002798,0.0645345607116302
6.22298,10.44600358006736,0.0643685207268199
6.225364000000001,10.476036987121484,0.0641847978110821
6.227755999999999,10.5097025086161,0.0639736937784625
6.23016,10.545789439737716,0.0637453020983074
6.232544000000001,10.579362413433715,0.0635142661894918
6.234924,10.609490264144329,0.0632833386472217
6.237328,10.638826718922015,0.0630506375331282
6.239712000000001,10.668302943326568,0.0628158586540716
6.242092,10.70192313885081,0.0625652725772115
6.2444880000000005,10.732098211389664,0.0623122456686589
6.246876,10.761901196876178,0.0620455959444664
6.249256000000001,10.78718812419066,0.0617826498683487
6.2516560000000005,10.820390906692191,0.061473647093546
6.254044,10.848937861394836,0.0611715468763715
6.256424000000001,10.877624585724336,0.0608670893578446
6.258816,10.90728969744186,0.0605361717311603
6.2612000000000005,10.936303182853322,0.0602006101869899
6.263596,10.97067134419798,0.0598418246313819
6.266,11.004387879236582,0.0594779406293348
6.268383999999999,11.03237765128965,0.0591239410619344
6.270764,11.055711595543826,0.0587761312109102
6.273168,11.079464848678588,0.05841722285293
6.275556,11.0966999428949,0.0580660659456666
6.277932,11.109279209312318,0.0577204582512528
6.280340000000001,11.122277784610317,0.0573641424144082
6.282724,11.129689366549645,0.0570126165336565
6.2851040000000005,11.138591192556197,0.0566460788533128
6.287508000000001,11.14311673001757,0.056275940930372
6.289896000000001,11.144057374866696,0.0559059120311994
6.2922720000000005,11.145417328596402,0.0555236843335667
6.294676000000001,11.148779383072522,0.0551376688991387
6.297064000000001,11.151350041615729,0.054748021163102
6.299443999999999,11.141908095680432,0.0543876403834166
6.301848,11.1296726530658,0.05402685074168
6.304232000000001,11.114923253025552,0.0536597303586005
6.306611999999999,11.096961047425392,0.053304429884557
6.309004,11.071269978093282,0.0529583940329975
6.311392,11.03957260652192,0.0526258134272398
6.313772,11.002660328644229,0.0523086618075075
6.3161760000000005,10.96989202188623,0.0519769282405934
6.31856,10.940988146994206,0.0516393631541843
6.32094,10.91073379766182,0.0513121695304171
6.323335999999999,10.880991305008632,0.0509943094963523
6.3257200000000005,10.852971373848142,0.050678618203393
6.328100000000001,10.82038816268738,0.0503854394252307
6.330504,10.790458678579087,0.0500936244995474
6.332891999999999,10.75382404409725,0.0498323772710467
6.335272,10.71434869110783,0.0495962892410446
6.337664,10.671380993304776,0.0493785530170389
6.340052,10.62664351218078,0.0491825960677505
6.342447999999999,10.57268692325762,0.0490096649916663
6.344852,10.516029385453743,0.048858911410529
6.3472360000000005,10.463748136195036,0.0487138691903123
