Time,Force,Position
3.93178,7.322320136207237,0.1563679159911364
3.934123999999999,7.340429694865737,0.1562041260659185
3.93646,7.359051110203434,0.1560478390921128
3.938808,7.383678827780383,0.1557921321557343
3.94116,7.401788386438882,0.1556324484956998
3.9435,7.421947267672042,0.1553976339108738
3.9458439999999992,7.4408028962930866,0.1551551757437781
3.948188,7.462639013048569,0.1548266186145574
3.950536,7.482752568311355,0.1545243054100096
3.952876,7.504728454693697,0.1542012273808588
3.955219999999999,7.527355967382098,0.1538777081597949
3.957568,7.545000891189642,0.1536650028962676
3.959904,7.566882333915499,0.153407743346376
3.962247999999999,7.59551425298528,0.1530882704584736
3.964596,7.641046921757933,0.1525477766071132
3.966932,7.688953778329339,0.1519864242538549
3.969275999999999,7.727968288183544,0.151529938582673
3.97162,7.766331171731691,0.151073146441288
3.9739679999999993,7.8025068589361855,0.1505964197378357
3.976308,7.8366351194238915,0.1500907179003325
3.978652,7.859217306141917,0.1497156940949238
3.981,7.864526656104738,0.1495500089094034
3.983336,7.871186480507917,0.1493503704896865
3.985683999999999,7.8786377008440125,0.1491495181853558
3.988028,7.893538245658338,0.1488565180629403
3.990371999999999,7.9076001727115,0.1486031663624531
3.992708,7.914445092711911,0.1484641931397946
3.995052,7.918589063831606,0.1483932305109703
3.997404,7.926457697190413,0.1482759114903864
3.999744,7.942427281333505,0.1480725414507567
4.002087999999999,7.959607570290096,0.147843474808304
4.004432,7.982609065888703,0.1474573235720247
4.006772,7.999651481076303,0.1471248953520338
4.009115999999999,8.012317607718732,0.1468432434563678
4.011455999999999,8.012039964322883,0.1467560643261037
4.0138,8.010319298688055,0.1466707994054912
4.016143999999999,8.010787725254747,0.1465125882683662
4.018488,8.011023834395964,0.1463323271253839
4.020828,8.00958270801486,0.1462336021823399
4.023171999999999,8.011259943537182,0.1461536098987922
4.025508,8.023319769843924,0.1459454373925093
4.027856,8.053630820293899,0.1454971217707516
4.030199999999999,8.088737468169624,0.1449932231281688
4.032539999999999,8.123564576791628,0.1445140710543956
4.034884,8.152664922428103,0.1441139239855551
4.037232,8.18181248989282,0.1436750408579452
4.039576,8.223671509970337,0.1430255961474602
4.041912,8.265158442995522,0.142357409004568
4.044264,8.30357234008765,0.1417499470541597
4.046604,8.32815852340996,0.1413033030888871
4.048956,8.34915981412002,0.1408892099001944
4.0513,8.370253652628696,0.1405022668364625
4.05364,8.396515175615463,0.1400699753429743
4.0559840000000005,8.425011116774122,0.1396380837036318
4.05832,8.451784496440085,0.1392216927303785
4.060668,8.480699746479326,0.1387714628719311
4.063003999999999,8.510638709876963,0.138338283718895
4.065348,8.541741156259853,0.137919224076704
4.067691999999999,8.577406882643018,0.137425643611279
4.070036,8.610326334175095,0.1369346160463457
4.072372,8.63635553973638,0.1365012874816719
4.074716,8.647578644139832,0.1362531405621202
4.077064,8.650653575930757,0.1361155548763333
4.079412,8.65000384548257,0.1360178529456191
4.081747999999999,8.649773423914962,0.1359019311584106
4.084088,8.655641852385221,0.1357381627526623
4.086432,8.660112584586878,0.1356364186774333
4.088771999999999,8.67105425387874,0.1355031698190593
4.091111999999999,8.678411030558351,0.1354021282814855
4.09346,8.6856280376111,0.135306395095562
4.095808,8.696010628395522,0.1351968714706458
4.098151999999999,8.71328346515073,0.1350380403123808
4.100491999999999,8.733489568212132,0.1348471987551036
4.102839999999999,8.749366604556606,0.1346593494727938
4.105176,8.766501567542823,0.1344188468502981
4.107524,8.781075351275181,0.1342258819347983
4.109867999999999,8.79401912131346,0.1340707782785644
4.112216,8.806311265045682,0.1339135763446343
4.114552,8.815857133926812,0.1337533246896581
4.116892,8.822469736501748,0.1336261100303618
4.11924,8.831409305047194,0.1335223719396773
4.121575999999999,8.853385191429535,0.1332924670602659
4.123923999999999,8.881507149677988,0.1329846052941744
4.126268,8.907674229008267,0.1326689384334933
4.128608,8.927695236472436,0.1324300063344956
4.130948,8.940359467256995,0.1322896148302682
4.133288,8.955305338041692,0.1321143213043936
4.135643999999999,8.964618889497343,0.1319345828753406
4.137983999999999,8.971325935728764,0.1317427417005045
4.140328,8.979103917146823,0.1315351433248015
4.1426680000000005,8.988744229684439,0.1313100359825882
4.145012,8.990283591437768,0.1311530627705216
4.147352,8.985212246474035,0.1310310741199615
4.149695999999999,8.977487174457826,0.1309290030589202
4.15204,8.968643945426738,0.1308736500815191
4.15438,8.968972602366572,0.1307382508357587
4.156723999999999,8.976146179306816,0.1304994431314783
4.159068,8.979642315836191,0.1302623592423839
4.161412,8.984069617925343,0.1300190162973899
4.163748,8.989008776693693,0.1297841327222726
4.166096,8.99543817952926,0.1295180438029184
4.168436,8.996467580461264,0.1292656769331556
4.170779999999999,8.99302814504948,0.1290173403207975
4.173124,8.988657544077917,0.1287766158220814
4.175468,8.99066533239794,0.1284836525767179
4.177816,8.998027796651158,0.1281197514342487
4.180156,9.00315584273248,0.1277591383912208
4.182504,9.00372060881353,0.1274640282199082
4.184851999999999,9.006240253812752,0.1271783914296002
4.187196,9.011925482543647,0.1268831614370269
4.189539999999999,9.01989235127468,0.1265563608751267
4.191884,9.032282730379128,0.1261681459276413
4.194236,9.047838693215244,0.1257700173371458
4.196576,9.064418369409758,0.1253886484820382
4.198919999999999,9.0771336137383,0.1250438889366525
4.201267999999999,9.079373719483804,0.1247694571271274
4.2036,9.073745191870495,0.1245772833126215
4.20594,9.076357384668336,0.1243195914920828
4.208283999999999,9.072264427092623,0.1241554199565455
4.210623999999999,9.070313339890188,0.1239640305442082
4.212968,9.06570852563528,0.1237904885206978
4.215316,9.061196259178988,0.1236431476705919
4.21766,9.055426066080951,0.1235468166807665
4.219996,9.052030060781671,0.1234438879581505
4.222344,9.046539406937358,0.1233359339661682
4.224691999999999,9.04184014902596,0.1232260250902754
4.227027999999999,9.037792517420622,0.1231197534877761
4.229367999999999,9.04161351917409,0.1229348338499699
4.231712,9.045574290554418,0.1227444114997991
4.23406,9.048651118203212,0.1225304530467731
4.236395999999999,9.0426486076797,0.1224127841933309
4.23874,9.035947249021888,0.1223233103391454
4.241088,9.02701147219218,0.122233801475173
4.24342,9.019705709056552,0.1221084525322972
4.245756,9.017055773719818,0.1219449745415581
4.248099999999999,9.022087480286784,0.1217415392408535
4.250448,9.03270618021242,0.1214924023577323
4.252787999999999,9.03638741233903,0.1213145834045633
4.255132,9.045563090025691,0.1210656233378492
4.257479999999999,9.053388293271995,0.1208415274850943
4.259815999999999,9.063867223570773,0.1206009259626663
4.262167999999999,9.072903131630571,0.1203579644711177
4.264512,9.08664208931751,0.1200464077983781
4.266852,9.098798255138608,0.1197389290969902
4.269195999999999,9.11547047913174,0.1194029816698322
4.27154,9.132562012005453,0.1190533958894403
4.273883999999999,9.147791213759607,0.1187187180017639
4.276216,9.15901621402093,0.11842485406314
4.278556,9.17024121428225,0.1181314361784262
4.280899999999999,9.18290923678255,0.1178422424685155
4.283235999999999,9.207589863761346,0.1174373581331262
4.285572,9.230967238128027,0.1170253320250873
4.287915999999999,9.25979183622652,0.1165801330173699
4.290267999999999,9.291409931004347,0.116118442529348
4.2926,9.323866643543337,0.1156273360826237
4.29494,9.347291239738263,0.1151917572937024
4.297283999999999,9.368993274440491,0.1147663215726624
4.299628,9.39204578358308,0.1143185148641005
4.301964,9.410954321605976,0.1139141863865032
4.304304,9.43056170776317,0.113483959213156
4.306652,9.448306762800808,0.1130675234890388
4.308992,9.4696367104507,0.1126311803060054
4.311335999999999,9.48668291735404,0.1122431504147507
4.313675999999999,9.502378649817016,0.1118765763660279
4.31602,9.511276684107829,0.111567023401525
4.318356,9.513888876905668,0.1113223721215424
4.3207,9.516640839330368,0.1110721285185666
4.323043999999999,9.521814211382068,0.1107881742800152
4.325388,9.526335957127706,0.110500059064602
4.3277280000000005,9.52606210544759,0.1102489557241599
4.330072,9.517128224475757,0.1100656418404789
4.332416,9.50605247313064,0.109904804691336
4.334768,9.487527397307298,0.1097934913370762
4.337116,9.466069055177762,0.1097052154952631
4.339464,9.445122569727422,0.1096254644417602
4.341808,9.433627509501727,0.1094796396818387
4.344151999999999,9.418779874089257,0.1093727007023794
4.346496,9.399648497930228,0.1093108768186893
4.348836,9.380796661024922,0.1092383462159001
4.351172,9.364458781545231,0.1091573188540642
4.35352,9.34905206762532,0.1090699813065709
4.355872,9.329129295533376,0.1090070396016574
4.358215999999999,9.313070955307404,0.1089146216232598
4.36056,9.302367291014628,0.1087659741801724
4.362904,9.294457123401187,0.1085990921491193
4.365243999999999,9.291482322840352,0.1083914489153297
4.367588,9.29009031414536,0.1081824657642706
4.369935999999999,9.284135025450087,0.1080285089140792
4.372287999999999,9.277341118993656,0.1079058942854077
4.374623999999999,9.274923501082394,0.1077639025907913
4.376968,9.276882171716306,0.1076026147664261
4.379315999999999,9.28228596533561,0.1074277645315414
4.381656,9.292857443433002,0.1072327167267211
4.383996,9.304080547836454,0.1070429026968457
4.386339999999999,9.315163882613042,0.1068598237894889
4.388691999999999,9.32252255515052,0.1067013620531197
4.391028,9.33523590362119,0.1064880138686521
4.393371999999999,9.35288461914447,0.1062345859737018
4.395728,9.373978457653148,0.1059690533255037
4.398068,9.392930425788544,0.1057274934922649
4.400411999999999,9.413744725043498,0.1054758814627155
4.402759999999999,9.441868579149816,0.1051860382943652
4.405108,9.467059166949944,0.104919126834245
4.407439999999999,9.485824143630238,0.1047170667441693
4.409784,9.50430958105681,0.1045255349783955
4.412136,9.522655248856529,0.1043400910061416
4.414475999999999,9.539138585536683,0.1041658711762196
4.41682,9.561628224456092,0.1039435312968015
4.41916,9.587610208189137,0.1036797399982443
4.421512,9.614151270429623,0.1033979530025488
4.423855999999999,9.639109540804274,0.1031183412949764
4.426204,9.664347350432644,0.1028297961161926
4.428552,9.68800236819518,0.1025429688705275
4.430895999999999,9.712588551517491,0.1022524251017616
4.43324,9.734101698906748,0.1019883479956234
4.435584,9.755335307042284,0.1017348617548745
4.437932,9.772285174431266,0.1015226711154325
4.440263999999999,9.78830387626047,0.101316396034963
4.442612,9.803531182156757,0.1011114458728824
4.444951999999999,9.81503382581393,0.1009266106941123
4.447296,9.82174087204535,0.1007722795509621
4.449639999999999,9.824863025664518,0.1006344574739871
4.451984,9.831058215216745,0.1004721365621871
4.454331999999999,9.842608080702156,0.1002603038354755
4.456676,9.854437485441291,0.1000388188533318
4.459023999999999,9.865755033501232,0.0998082872679433
4.461368,9.878283286374668,0.0995631091682816
4.463711999999999,9.88829758182249,0.0993242337048609
4.466056,9.896449546150755,0.0990960318841288
4.468404,9.89831566898605,0.098920738249201
4.470739999999999,9.900042022194487,0.0987504712364302
4.473075999999999,9.900045813910229,0.0985850355282886
4.47542,9.899118440066186,0.0984242843035432
4.477767999999999,9.893675008050115,0.0982822861793148
4.480108,9.88557784898157,0.0981491996986807
4.482452,9.877620459539884,0.0980111781546081
4.484795999999999,9.87594891159117,0.0978206632057273
4.487124,9.875348298829092,0.0976208877415588
4.4894680000000005,9.87409605976096,0.0974164364744218
4.491812,9.87577708699902,0.0971926870575422
4.494159999999999,9.883743955730052,0.096917335761114
4.496495999999999,9.88863778852803,0.0966654908755126
4.498835999999999,9.892740225393087,0.0964145794920709
4.501187999999999,9.897634058191064,0.0961656184401473
4.503527999999999,9.906671862108734,0.0958862448871015
4.505875999999999,9.914638730839766,0.0956162572064316
4.508215999999999,9.922745369197656,0.0953420681187469
4.5105640000000005,9.931783173115328,0.0950644847996693
4.5129,9.94189191221964,0.094778812350344
4.515243999999999,9.95656393132422,0.094446913205435
4.517595999999999,9.970304784869027,0.0941193593452066
4.519936,9.987118674346886,0.0937710225271186
4.52228,10.007005599757802,0.093401941422117
4.524619999999999,10.027823690728498,0.0930271149484675
4.526964,10.058931824684995,0.0925802611473721
4.529299999999999,10.090319497895218,0.0921252840539927
4.53164,10.11411807700035,0.0917094273390186
4.533992,10.136194094612788,0.0912981496204288
4.536332,10.157199177038583,0.0908961733310358
4.538672,10.17955473390474,0.0904778330597207
4.541015999999999,10.197626550024342,0.0900958227745228
4.54336,10.217048840584305,0.0896954407499172
4.545696,10.232606699278293,0.0893153447002898
4.548036,10.240715233494054,0.0889660871407601
4.550379999999999,10.238021868044816,0.0886771660039976
4.552724,10.237330603341988,0.0883761873359536
4.555068,10.236359799385443,0.0880846709791908
4.557407999999999,10.232455729122703,0.0878090275124353
4.559752,10.227620493300186,0.0875374983160809
4.562096,10.222505718223946,0.0872752659966769
4.564439999999999,10.218322108707486,0.0870092006679087
4.566784,10.21106546325797,0.0867635023387391
4.569127999999999,10.20101532112912,0.0865287315259547
4.571467999999999,10.192175883813768,0.0862806537042211
4.573812,10.173837799445533,0.0861009954585062
4.576152,10.154289010263795,0.0859334528457762
4.578488,10.138976740000368,0.0857615550307057
4.580836,10.124036556789282,0.0856040785775274
4.583179999999999,10.107885668764691,0.0854587172042478
4.585519999999999,10.091455241486386,0.0853221627853546
4.587864,10.077818310887414,0.0851752709018145
4.590207999999999,10.064833006594498,0.0850337143577469
4.592556,10.05822609159317,0.0848731351342033
4.594887999999999,10.05999966662985,0.0846824424970769
4.597235999999999,10.07229560207781,0.0844456727780511
4.59958,10.085103394204967,0.0842203039207066
4.601932,10.098050955958984,0.0839908793629052
4.604275999999999,10.113512475138617,0.0837607649842319
4.606615999999999,10.130417016557226,0.0835386422687248
4.60896,10.151977385774726,0.0833025537946483
4.6113,10.173677524619086,0.0830626485034309
4.613652,10.194958354582864,0.0828358968943483
4.616,10.217682206785618,0.0826168315032236
4.618335999999999,10.243990951600626,0.0823912751443282
4.62068,10.275374833095109,0.0821371858106775
4.623028,10.308760815336006,0.0818733962997181
4.625371999999999,10.34549937276368,0.0815857342146313
4.627716,10.381865843139016,0.0812839077287008
4.63006,10.422236515007189,0.0809621352595411
4.632408,10.46167602131558,0.0806450031155151
4.634748,10.4967392390788,0.0803346404817861
4.637091999999999,10.5310110609091,0.0800233887303419
4.639448,10.557973327888035,0.0797318179649217
4.641791999999999,10.578277666321666,0.079465699109622
4.644136,10.59620781695654,0.0791975227116408
4.646476,10.61176377979266,0.0789255397677466
4.648828,10.628390677815416,0.0786475091904273
4.651164,10.643714323226057,0.078358351928377
4.653508,10.655732615278165,0.0780675752237971
4.655859999999999,10.663374618785102,0.0777835357012261
4.658204,10.673298262292176,0.0774827766044577
4.660548,10.686062624306828,0.0771478624184024
4.662891999999999,10.698734438522864,0.0767912446049446
4.665227999999999,10.708892295313287,0.0764354409205475
4.667572,10.716675964304956,0.0760754892414373
4.669919999999999,10.723808006990565,0.0757105404155716
4.672264,10.724282121130864,0.0753672121351294
4.674607999999999,10.728760436764,0.0750074559910595
4.676952,10.731935499785015,0.0746370195703171
4.679292,10.7335277709402,0.0742626471284904
4.681631999999999,10.739915639521136,0.0738733047435352
4.683968,10.751518414408402,0.0734585923712195
4.686316,10.771269361908196,0.0730075678329497
4.688656,10.793301949408123,0.0725392707062813
4.690999999999999,10.812401270601862,0.0720824178156325
4.693344,10.8327112966091,0.0716162524567124
4.695687999999999,10.853161092243196,0.0711481243985924
4.698032,10.87561298862371,0.0706735212796483
4.700367999999999,10.901137920937275,0.0701860391930055
4.702715999999999,10.923589817317788,0.0697122504145309
4.705067999999999,10.942968677765244,0.0692540031020902
4.707412,10.96085729414548,0.0688153561465751
4.709755999999999,10.979117997578054,0.0683925352337813
4.712095999999999,10.998309866570407,0.0679695569404828
4.71444,11.01801359224196,0.0675575225293771
4.716787999999999,11.035715217167096,0.0671532022889969
4.719128,11.054068468398288,0.0667540182018847
4.72148,11.064553086270672,0.0663803475967789
4.723811999999999,11.073547460075838,0.0660247372267001
4.726156,11.082913920933342,0.065682980686489
4.728503999999999,11.089067576230928,0.0653587142867715
4.730843999999999,11.088795620408684,0.0650684937621103
4.733188,11.076883147160276,0.0648340878262099
4.735536,11.067484631337486,0.0646031960017746
4.737883999999999,11.061111929619504,0.0643861216436323
4.740219999999999,11.050036178274391,0.0642018990083246
4.742564,11.03653901730228,0.0640362537585804
4.744919999999999,11.022343008195866,0.0638903337747666
4.747268,11.004514884648954,0.0637718871395551
4.749611999999999,10.98812978334102,0.0636620251020265
4.751956,10.970114668339006,0.0635729531452394
4.754303999999999,10.950888848523494,0.0634928922307457
4.756639999999999,10.927658827215147,0.0634258886301119
4.758984,10.89893436034675,0.0633890761882688
4.761332,10.866065922358658,0.0633693492126514
4.763676,10.8365028377291,0.0633555617805248
4.766019999999999,10.811735350525293,0.0633306400646908
4.768364,10.795208583732627,0.0632974753659891
4.770716,10.776260407312968,0.063282658642179
4.773059999999999,10.758383166079945,0.0632623785613271
4.775407999999999,10.742228486339622,0.0632432937791491
4.777747999999999,10.729007072905487,0.0632162282233314
4.780092,10.725656393576584,0.0631603002022457
4.782435999999999,10.71951221756834,0.0631081883519377
4.78478,10.709922918574703,0.0630531490911242
4.787127999999999,10.70633992182032,0.0629785213136225
4.789467999999999,10.70103436357324,0.0629021737812758
4.791815999999999,10.69586857495302,0.0628219415110128
4.794167999999999,10.6931241959598,0.0627231677998444
4.796507999999999,10.690938895474018,0.0626083151509289
4.798848,10.691314774242096,0.0624709275724919
4.8012,10.692761588196808,0.0623282834624095
4.803543999999999,10.69621050289794,0.062178797849317
4.805895999999999,10.704734554278543,0.0620108672337824
4.80824,10.721127239017951,0.0618214689746077
4.810587999999999,10.732072700025553,0.0616351263143438
4.812923999999999,10.737011858793904,0.0614680922933621
4.815272,10.737434959390225,0.0613035053748227
4.817627999999999,10.74628577185279,0.0611023991587596
4.81996,10.755276353942222,0.0608976153623045
4.822303999999999,10.762823913792673,0.0606834319806957
4.824648,10.765855415471094,0.0604704134186458
4.826988,10.769585765283814,0.0602391559042238
4.829331999999999,10.77596984214901,0.0600091755281784
4.831676,10.783424854200844,0.0597738950683267
4.834028,10.79157871438698,0.0595203882137572
4.836376,10.805599107185502,0.0592536954165426
4.83872,10.817105542558416,0.0589822695767069
4.841063999999999,10.829403373864244,0.0587146044256154
4.843404,10.84342376666277,0.0584496016677847
4.845748,10.859446260207712,0.0581802428587424
4.848096,10.877750393752793,0.0578987613929321
4.850436,10.90192105991026,0.0576063666916508
4.852791999999999,10.925300330134812,0.0573117986711771
4.855131999999999,10.943092607000692,0.057023062707802
4.857476,10.96460954610569,0.0567306680277889
4.859828,10.991620930770736,0.0564120032635528
4.862171999999999,11.019423711368704,0.0560968252618578
4.864519999999999,11.042011585660338,0.0558028317782605
4.866868,11.06660156069839,0.0555050376849329
4.869204,11.08984106129608,0.0552190969867591
4.871547999999999,11.117876159319524,0.0549262328929124
4.873887999999999,11.141487746969554,0.0546564191876479
