Time,Force,Position
5.979688,7.316320119973922,0.1544318819584333
5.982084,7.422963996031286,0.1540101043184204
5.984471999999999,7.513734627459916,0.1536705394399622
6.015531999999999,7.542313637127852,0.1534443063193395
6.017928,7.547154560523975,0.1534431032423852
6.020316,7.558885729890887,0.1533705085659537
6.0227,7.572479230377358,0.1532728042971027
6.0250960000000005,7.5909155501178205,0.1530701195691512
6.02748,7.605394890193693,0.152895285833056
6.029863999999999,7.622994488030866,0.1526246964139629
6.032255999999999,7.636637106203445,0.1523797455190261
6.034643999999999,7.652653912174777,0.1521191469913561
6.037036,7.674210489676538,0.1518227628365284
6.039435999999999,7.696139154230638,0.1515490589650801
6.04182,7.733805085502349,0.151035381632441
6.044204,7.778780571625432,0.1504321291682817
6.046600000000001,7.813558562561325,0.1500368249714318
6.048984,7.838698136817472,0.149819102974983
6.051364,7.865467724767697,0.1495558596557279
6.05376,7.886650319359251,0.1493587685101465
6.056152,7.910022006152328,0.1490825780374688
6.058528,7.941589087386175,0.1486439734940708
6.060935999999999,7.981863419739991,0.148051278753057
6.06332,8.013385175003464,0.1475524438730152
6.0657000000000005,8.025072914257873,0.147314299964913
6.068103999999999,8.031173660153609,0.1471478664714355
6.070492000000001,8.033130434929651,0.1470499748127699
6.072871999999999,8.029872303399364,0.1470399447959548
6.075268,8.028988359667828,0.1470150648630207
6.077656,8.034575353026499,0.1469439581852162
6.1111200000000006,8.05547651250647,0.1468553045731857
6.113504,8.068186069261404,0.1467480546532855
6.115887999999999,8.086203080121285,0.1465865661149006
6.118284,8.113346650981716,0.1462579349411817
6.120672,8.142679314043669,0.1458604356392056
6.123052,8.166052896694612,0.145512634144241
6.125448,8.181837385240472,0.1452578825241194
6.127835999999999,8.196458390801073,0.1449940847019065
6.13022,8.213408258190057,0.1446588188372587
6.132616,8.226261376287587,0.1443541092594699
6.135000000000001,8.23748448069104,0.1440899212231149
6.137379999999999,8.250522694385806,0.1438345500870031
6.139784,8.27021883662588,0.143496673740957
6.142172,8.290753596627116,0.143123055692876
6.144548,8.307191607336899,0.1427811166026188
6.146952,8.315993302113354,0.142563643785687
6.14934,8.319440320956616,0.142433390402477
6.15172,8.330523655733208,0.1421760020495386
6.154124,8.341701434166287,0.1418514342895451
6.156512,8.35092433368119,0.1415204351358712
6.158892000000001,8.360239780994712,0.1412175367960434
6.161295999999999,8.366854279427516,0.1409753949613418
6.163683999999999,8.373515999688564,0.1407007109203543
6.166064,8.370866064351826,0.1405306327165388
6.1684600000000005,8.36207005714898,0.1404470133702812
6.170848,8.357603116663062,0.1403593294757329
6.173227999999999,8.364170393267623,0.140153950270052
6.175624,8.373810705805237,0.1399075762057561
6.178012,8.374279132371928,0.1397571719204784
6.180392,8.371394983751847,0.139661926814273
6.182788,8.373538749982993,0.1395309720356688
6.185172000000001,8.383458601774329,0.139271028549687
6.187551999999999,8.388769847595018,0.1390294106388838
6.189948,8.391846675243812,0.1387940028787961
6.192336,8.39129138845211,0.1386254290436533
6.1947280000000005,8.408195929870718,0.1382477015219884
6.197124,8.432177708715217,0.137775616204342
6.199512,8.450340176775565,0.1373474606608137
6.201892,8.461937264089224,0.1370213700543837
6.204296,8.475861317373395,0.1367200289422843
6.206684,8.494021889575876,0.1363908985007819
6.209064000000001,8.518235985845852,0.1359561031672234
6.211467999999999,8.539004959130436,0.1355493428035214
6.213852,8.563219055400412,0.1351174647946144
6.216235999999999,8.592461066521615,0.1346513619871384
6.21864,8.626126588016232,0.1341207692538686
6.221023999999999,8.653181402793784,0.1336318215624727
6.223408,8.667851526040497,0.1332735870031502
6.225812,8.686478628951802,0.1328988345620361
6.228196,8.713206682647392,0.1324541088722655
6.230576,8.743566850783477,0.1319497751553577
6.23298,8.766337924814476,0.1315257798813239
6.235368,8.786827358845338,0.1311379321767216
6.237748000000001,8.806990031794237,0.1307972094281853
6.240151999999999,8.83646436034092,0.1303682397942534
6.242539999999999,8.850760500677424,0.130097206827577
6.24492,8.86282222284204,0.1298315157269584
6.2473160000000005,8.870041125752655,0.1296474375101191
6.249704,8.881636317208445,0.1294305047680632
6.252083999999999,8.892068025678979,0.129202045445583
6.25448,8.897099732245946,0.1289876896483951
6.256863999999999,8.895705827693083,0.1288618395953748
6.259244,8.894684010192556,0.128750988289601
6.261652000000001,8.895384754184725,0.1286295115065393
6.264036,8.897715511870976,0.1284708571187195
6.266416,8.895250672131473,0.1283603575729563
6.268820000000001,8.895160020190724,0.1282423325408364
6.271208000000001,8.907593829407675,0.1279982156223099
6.273587999999999,8.921517882691845,0.1277242055989718
6.275984,8.926409819631955,0.127521221234225
6.278372,8.924364288773033,0.127393396997195
6.280752000000001,8.92897668645942,0.1272026083263708
6.283148,8.932937457839751,0.1270074455023712
6.285531999999999,8.935874515861682,0.1267939511710874
6.287912,8.929639687912694,0.1266567419816402
6.29032,8.928852083695515,0.1264754082117123
6.292704,8.9245721346647,0.1263477955270936
6.295088000000001,8.925646861567078,0.1261493458907123
6.297491999999999,8.9243474006707,0.1259579716153196
6.299879999999999,8.920766299774185,0.1258004386232537
6.30226,8.92086263928854,0.1256424867597039
6.3046560000000005,8.923240618803034,0.1254505599838795
6.30704,8.926177676824967,0.1252354240218327
6.30942,8.92473844630173,0.1250499155067483
6.311815999999999,8.921017575778352,0.1248984820013651
6.314203999999999,8.914363438948785,0.1247767298737112
6.316584,8.907197445440016,0.1246455507045651
6.318988,8.897657264132494,0.1245211300291342
6.321376,8.884904277265058,0.1244373676658508
6.323756,8.880531780435627,0.1242826707954679
6.326160000000001,8.880023715472166,0.1240905053510156
6.328544,8.87686192345623,0.1239166956414784
6.330927999999999,8.879147355172107,0.1237022365021734
6.333324,8.885948845060012,0.1234563189675678
6.335712,8.899408263493228,0.1231514617772967
6.3380920000000005,8.914497695620524,0.1228118191757026
6.340488,8.931868767747956,0.1224394788171857
6.342872000000001,8.950171005435164,0.1220622095867507
6.345252,8.972477444615212,0.1216448468907371
6.347648,8.99934716379553,0.1211652429790695
6.350036,9.024122234430816,0.1206812290603711
6.352428000000001,9.04903707469296,0.1201946027951874
6.354831999999999,9.071670274954968,0.1197391110175244
6.357219999999999,9.096957202269452,0.1192677117176417
6.3596,9.121592503277876,0.1187926519870484
6.361996,9.153025502458467,0.1182556672168195
6.364384,9.18511012794512,0.117725042291811
6.366763999999999,9.210629372685082,0.1172765668894453
6.36916,9.23642815667876,0.1168165084466643
6.371548,9.255988321007711,0.116397454353591
6.373928,9.273825923843969,0.1159879949240334
6.376328,9.290313052239869,0.1156025761861956
6.378716,9.30335505765037,0.115236180798265
6.381096,9.30866819932893,0.1149372529036726
6.383500000000001,9.307975038768236,0.114696853210115
6.3858880000000005,9.30886467007338,0.1144549034849193
6.388272,9.31147686287122,0.1142055312409822
6.390664,9.310364393429944,0.1139834833266245
6.393052,9.305107952868976,0.1138047302159871
6.395432,9.295567771561451,0.1136742744737555
6.397832,9.28574805100021,0.1135543172860997
6.400216,9.26871132338622,0.1135081464881057
6.4026000000000005,9.25660996282484,0.1134173394490973
6.404996,9.24464837189032,0.1133208411045821
6.407384,9.232267472075222,0.1132404190617671
6.412159999999999,9.19563283759338,0.113184867917029
6.414547999999999,9.179387505912306,0.1131359630968281
6.416944,9.16393357016415,0.1130855178832628
6.419344,9.151645218147667,0.1130302210179893
6.421732,9.140939657997022,0.112972387613441
6.424112,9.130234097846374,0.1129144810900375
6.426507999999999,9.118969459188284,0.1128781949483373
6.428895999999999,9.110638086836392,0.1128165582794073
6.431276,9.105379750417557,0.1127238535412367
6.4336720000000005,9.096256982132743,0.1126630605314883
6.43606,9.082338616422176,0.1126405988805013
6.438444,9.07000304257745,0.1126157381337128
6.440848,9.062742605412192,0.1125413056476279
6.443231999999999,9.058135895299412,0.1124525868095393
6.445612,9.056182912239109,0.1123498044412959
6.448011999999999,9.061027627350974,0.1121895285966651
6.450399999999999,9.060145579477307,0.1120742838072654
6.45278,9.05833236604386,0.1119657176995705
6.455176000000001,9.058940562237414,0.1118224127882167
6.4575640000000005,9.061690628804245,0.111655889541504
6.459943999999999,9.07459096873002,0.1113931653627355
6.462348,9.087491308655794,0.1111316190495541
6.464732000000001,9.100251878954706,0.1108758255363271
6.467111999999999,9.115294089253757,0.1105931422143873
6.469516,9.130755608433388,0.1102958183291937
6.471903999999999,9.149429933172932,0.1099651042062666
6.474284,9.173179394591951,0.1095897828761372
6.476679999999999,9.200793287876945,0.1091869861103725
6.479068000000001,9.22868672041566,0.1087749092922767
6.481447999999999,9.255509217767734,0.1083730525761298
6.483844,9.2881982477322,0.1079253797306288
6.486232,9.324100083256582,0.1074472446206338
6.488612000000001,9.355997717288131,0.1070062323842993
6.491008,9.390037221692957,0.1065466462889354
6.493391999999999,9.420491833485528,0.1061058141253168
6.495788,9.44936365341226,0.1056670402734163
6.498188,9.48116873964519,0.1052050019191352
6.500571999999999,9.510831955504845,0.104764648808856
6.502952,9.540215632110776,0.1043373195744189
6.505348000000001,9.564384402410376,0.1039595977176653
6.507732,9.57961360416453,0.1036550322244459
6.510112,9.594051409985768,0.1033519237922781
6.512516000000001,9.608768755060725,0.1030389824964931
6.5149040000000005,9.617759337150147,0.1027650554111629
6.517295999999999,9.62353711367966,0.102523258011239
6.519692,9.629175120582314,0.1022881282616726
6.52208,9.628015429312796,0.1021014919334031
6.524463999999999,9.624062241363946,0.1019314873770316
6.52686,9.62197138453465,0.1017512811878658
6.529243999999999,9.622022398078633,0.1015501677418763
6.531628,9.619419684570138,0.1013603757299051
6.534024,9.61267299994195,0.1012065967993047
6.536408000000001,9.60671771124668,0.1010525523733438
6.538787999999999,9.595966825125656,0.1009290554689661
6.541187999999999,9.58922014049747,0.1007750983615965
6.543572,9.586198118108396,0.1006012593905257
6.545967999999999,9.583967491652242,0.1004276115695395
6.548364,9.586951771502417,0.1002097498757829
6.550752,9.590215590606316,0.0999827524578988
6.553132000000001,9.597623380829909,0.0997210870731447
6.555528,9.611968638852526,0.0994106082280385
6.557916,9.627384832061784,0.099091568821703
6.560296,9.645594521950375,0.0987601000360953
6.5627,9.665666542958528,0.0984179918728886
6.565088,9.688811599899733,0.0980518988549502
6.567467999999999,9.709023390534744,0.0977062380274212
6.569871999999999,9.734450087476088,0.0973178574122945
6.572259999999999,9.75866607960393,0.0969442282922978
6.574644,9.781671366918276,0.096587459211702
6.5770360000000005,9.807470150911955,0.0962192428773039
6.579424,9.831918460465277,0.0958705827643696
6.581808,9.85664630927232,0.0955120043060281
6.584204000000001,9.880862301400164,0.0951438287677754
6.586588,9.908011559834204,0.09475758998873
6.588968,9.934089883081604,0.0943834421852941
6.591368,9.959376810396089,0.0940124992116544
6.593756,9.984803507337428,0.0936385708535643
6.596136,10.0039443627858,0.0933152999028012
6.598539999999999,10.018941247114478,0.0930234888747732
6.600924,10.032867196256516,0.0927416109030038
6.603307999999999,10.04479104465214,0.0924748982416921
6.605704,10.055643957861124,0.0922180121515167
6.608092,10.062772208830996,0.0919786735197085
6.610472000000001,10.07618630129384,0.0916933666843447
6.612868,10.088669228196904,0.0914129918742517
6.615256,10.102223090286603,0.0911241510587331
6.617636,10.11256414681639,0.0908620947786272
6.620031999999999,10.12625777853295,0.0905705920398959
6.622419999999999,10.138089079129957,0.0902872880231999
6.624816,10.146335487114708,0.0900160217570076
6.627211999999999,10.155001203980042,0.089730764459303
6.629599999999999,10.163666920845374,0.0894453898015271
6.63198,10.174055199203403,0.0891575849092527
6.634384,10.181789750508958,0.0888767757339569
6.636772,10.186870574762038,0.0886028089235954
6.639156000000001,10.189297671962644,0.0883361334539145
6.641552,10.192283847670687,0.0880522442994959
6.64394,10.19969353375215,0.0877308668878696
6.64632,10.213249291699723,0.0873702361560685
6.648715999999999,10.228295293714512,0.0869891838599632
6.651103999999999,10.239476863863333,0.0866266141445506
6.653484,10.250798203639006,0.086260213519823
6.655880000000001,10.262538852295265,0.085880401804157
6.6582680000000005,10.265200162779216,0.0855552678442518
6.660647999999999,10.27107427882308,0.0852080108901189
6.663047999999999,10.276296768560892,0.084855385364962
6.665436000000001,10.283940667925698,0.0844788590183683
6.6678120000000005,10.288651300984313,0.0841176644713939
6.67022,10.293501703669785,0.0837516803733406
6.672604000000001,10.297281171168615,0.0833928381608792
6.674983999999999,10.302922969787003,0.0830281319008247
6.677388,10.309635703592036,0.0826559823568682
6.679772000000001,10.315696811091003,0.0822790878573944
6.682156,10.324551415269312,0.0818931573830127
6.684551999999999,10.33205554500726,0.0815222306894024
6.686939999999999,10.339140365864626,0.081164495014025
6.68932,10.344455403401051,0.0808373494448869
6.691716,10.34855973612398,0.080522880134159
6.694104,10.348939406607792,0.0802213757688342
6.69648,10.344895566718192,0.0799532771578601
6.6988840000000005,10.346066633134924,0.0796530852368747
6.701272,10.344164663618605,0.079369780866058
6.703651999999999,10.342634781154617,0.079101171891662
6.706055999999999,10.34818213611652,0.0787952552461449
6.708443999999999,10.347583419212317,0.0785240975139051
6.710824,10.347636328614165,0.0782589494594624
6.713216,10.347549468389158,0.0779990212202769
6.715604,10.347322838537288,0.0777432171926612
6.717999999999999,10.350448783872194,0.0774627412030162
6.720396,10.353574729207098,0.0771815302660256
6.722784,10.355117882676169,0.0768973417501169
6.725164,10.357871740958736,0.0766026885673835
6.72756,10.360485829614444,0.0763127986328993
6.729947999999999,10.363099918270157,0.0760238352427472
6.732328,10.372279387672554,0.0756908287224157
6.734723999999999,10.384811432261731,0.0753345642312505
6.737112000000001,10.39604022423879,0.0749658879633696
6.739496,10.404615289163376,0.0745996207258963
6.741891999999999,10.413841980394018,0.0742398810917484
6.744280000000001,10.427492181998076,0.0738494906216691
6.746659999999999,10.4359274772958,0.0734880343348313
6.749064,10.4465046429668,0.0731126263712324
6.751452,10.455359247145106,0.0727372156535537
6.753832,10.458859175390222,0.0723951841924175
6.756227999999999,10.466642844381887,0.072027178996735
6.758615999999999,10.473635117440638,0.0716573170899761
6.760996,10.477274815312612,0.0713110455957061
6.7634,10.479983347624808,0.0709663275925029
6.765788,10.480270470310003,0.0706439367452655
6.768168,10.484282255234312,0.0703135526099527
6.770563999999999,10.48838658795724,0.0700065515772189
6.772951999999999,10.491931842172724,0.0697174174935283
6.775332,10.495337326761357,0.0694328564109398
6.777728000000001,10.496600940976704,0.0691609024941684
6.7801160000000005,10.495023836684478,0.0689232848386671
6.7825,10.489023222018831,0.0687141475819435
6.784896000000001,10.485257025525083,0.0685159399055048
6.78728,10.488940153509564,0.0683036274793872
6.78968,10.492483511867183,0.0680956652915834
6.792076000000001,10.49467639578444,0.0679023952737363
6.7944640000000005,10.499802546007894,0.0676993929665719
6.796843999999999,10.506651257724045,0.0674973927897511
6.799248,10.513220430186472,0.0673031166155891
6.801635999999999,10.52086053783554,0.0671025865494374
6.804016,10.524868531044111,0.0669321366759786
6.806411999999999,10.529528150558743,0.0667683563111212
6.808800000000001,10.534467309327091,0.0665958300210764
6.811179999999999,10.540058094401502,0.0664296337960468
6.813579999999999,10.543646778729492,0.0662708087353775
6.815968000000001,10.547515002311204,0.0661045857348921
6.818347999999999,10.552873469960137,0.0659205745033525
6.820744,10.55650937611637,0.0657358160043329
6.823132,10.556932476712689,0.0655677534322502
6.825512000000001,10.555213706935731,0.0654105615193681
6.827908,10.549630505292802,0.065263543719417
6.830296,10.545118238836508,0.0651104259692285
6.832676,10.5380920149546,0.064953543881714
6.8350800000000005,10.51998435215397,0.0648384981887193
6.837464,10.500945523793565,0.0647246845289798
6.839844,10.482558321739212,0.0646174825057035
6.842239999999999,10.46375181080428,0.0645225403554508
6.844627999999999,10.446807630988904,0.0644245153308436
6.847024,10.432936487106586,0.0643135896993769
6.849424,10.420136278410904,0.0641968225428097
6.851807999999999,10.408267235275002,0.0640783457237691
6.854188,10.396258422512243,0.0639639043486175
6.856592,10.386623797548232,0.0638573776807918
6.85898,10.376989172584226,0.0637506393815198
6.86136,10.368937339486056,0.0636491183498174
6.863756,10.357532931201108,0.063568284848822
6.866140000000001,10.342915717356243,0.0635037558836546
6.868524,10.328810360190577,0.063450054208235
6.870919999999999,10.318848974144606,0.0633782789465014
6.873304,10.31796692627094,0.0632738610281819
6.875684000000001,10.325233051009802,0.0631386177627577
6.878084,10.33450127649508,0.062996907952774
6.880468,10.344281358659554,0.0628659724036543
6.882852000000001,10.36234938306342,0.0626995178638089
6.885248,10.379626011534366,0.0625301809878368
6.887636,10.396111244072392,0.0623584458160538
6.890032000000001,10.413155555117864,0.0621706043573481
6.892432,10.42433333355094,0.0619988118898228
6.89482,10.435371342357158,0.0618317827560173
6.897200000000001,10.447200747096296,0.0616681321805314
6.8996,10.458378525529373,0.0614971430144095
6.901988,10.471837943962589,0.0613122191949094
6.904372,10.485716671276386,0.0611156663333309
6.9067680000000005,10.502947973776958,0.0609001253920728
6.909156,10.520738354784967,0.0606687295433493
6.911535999999999,10.538808275046703,0.0604291592731612
6.9139360000000005,10.55888029605485,0.0601831558464912
6.916324,10.578300690756944,0.059930096245471
6.918703999999999,10.597860855085894,0.0596742332229062
6.9211,10.608481450869403,0.059445251620448
6.923488,10.61202480922702,0.0592404492008887
6.925871999999999,10.615568167584636,0.0590362554779108
6.928268,10.623535036315667,0.0588088359285581
6.930656,10.631641674673562,0.0585788062046334
6.933036,10.64240204008393,0.0583501156883327
6.935436,10.6502291391881,0.0581276820264804
6.937819999999999,10.656054137545858,0.0579109818731636
6.9402040000000005,10.666023107023308,0.0576787695132773
6.9426,10.675340450194698,0.0574400852223935
6.944988,10.680793361500111,0.0572084630360342
6.947368,10.691321409485004,0.0569614999439425
6.949768,10.695843155230644,0.0567310691536057
6.952156,10.697431634670084,0.0565069431437542
6.954536,10.696598704482533,0.0563006927069827
6.956931999999999,10.697488335787671,0.056097457328494
6.959316,10.699169363025735,0.0558974177161671
6.961712,10.700990159890656,0.0556936165227317
6.964116,10.703881891942215,0.0554852113298232
6.966499999999999,10.702629652874082,0.0552910176027004
6.96888,10.702588118619447,0.0550875427391526
6.971284,10.702826123618532,0.0548755671640124
6.973667999999999,10.698920157497923,0.0546776667695219
6.976048,10.688728349884345,0.0545031995739155
6.9784440000000005,10.67425280152421,0.054346743174207
6.980832,10.660056792417798,0.0541824950521282
6.983211999999999,10.651075689617716,0.0539995198120207
6.985615999999999,10.64460854424325,0.053822606219904
6.988,10.637861859615064,0.0536538106836706
6.990384,10.631766801292937,0.0534924567192859
6.992776,10.632748980396691,0.0533124104618315
6.995164,10.630518353940536,0.0531459620991119
6.997544,10.63536496491027,0.0529610234287594
