Time,Force,Position
4.749508,7.706542835686499,0.152948666573301
4.751912,7.717901918001075,0.1528637697330287
4.7543,7.730983561808347,0.1527639443749095
4.75668,7.740340543376503,0.1527106599620989
4.7590840000000005,7.756123136064491,0.1525381393953278
4.761472,7.780193670991867,0.1522223916030225
4.763851999999999,7.80938656442696,0.151795846171736
4.766255999999999,7.844585760101302,0.1512787742196734
4.76864,7.87196354424508,0.1508446741734441
4.771019999999999,7.891472695030051,0.1505283961869098
4.773416,7.906977644322188,0.1502732580848544
4.775804,7.922762132868045,0.1500064134782707
4.778187999999999,7.945623858839792,0.1496330342963996
4.780584,7.9688576718638755,0.1492737134601291
4.782967999999999,7.998190334925828,0.1488465320582618
4.785348,8.034972322466006,0.1483241134888357
4.787743999999999,8.071941301461289,0.1477671746249611
4.790131999999999,8.103929587433583,0.147224996145327
4.792516,8.130889958554652,0.1467228375049982
4.79492,8.160179191504099,0.146136742219616
4.797304,8.187326554080268,0.1455966618592134
4.799684,8.208747153670911,0.1451463279518937
4.802079999999999,8.229144039903154,0.1446843486539801
4.804467999999999,8.257689098747925,0.1441035190775186
4.806864,8.290330906884149,0.143494670398297
4.809259999999999,8.32334480207271,0.1429096355221883
4.811647999999999,8.347698667969544,0.1424397865246088
4.814028,8.36036669046984,0.1420841226358273
4.8164240000000005,8.375269131142034,0.1417206500843392
4.818812,8.393057616292177,0.1413508036372333
4.821191999999999,8.418063108495067,0.1408769278271072
4.823588,8.440182556220007,0.1404083887406026
4.825976,8.453409657227748,0.1400272819697561
4.828356,8.464262570436732,0.139655073259674
4.830752,8.480842246631244,0.1392176947916054
4.833139999999999,8.497888453534586,0.138734497600972
4.835536,8.513631407825807,0.1382519641036471
4.837932,8.525882017303392,0.137829435714735
4.8403160000000005,8.54018005349777,0.1374387778999491
4.8427,8.558946926035935,0.137041465855521
4.845095999999999,8.575619150029066,0.136645323035735
4.84748,8.583399027304994,0.1363292790640222
4.849863999999999,8.583402819020733,0.1361369418027567
4.852268,8.575862842601758,0.1360909542055828
4.854655999999999,8.569114262115702,0.1360414781334485
4.857036,8.558967780472496,0.1359839506528699
4.859431999999999,8.547518046217174,0.13592058269988
4.861819999999999,8.544681119425334,0.1357912767842092
4.864204,8.541936740432112,0.1356896643393705
4.866599999999999,8.543104015133107,0.1355088062946338
4.868987999999999,8.536729417557257,0.1353780394382435
4.871368,8.530494589608269,0.1352406610278054
4.873764,8.529380224309126,0.1350981748219984
4.876152,8.536599127219743,0.134903593983038
4.878531999999999,8.537579410465634,0.1347645140070196
4.883316,8.518495256134852,0.1347173590119847
4.885699999999999,8.511559684193692,0.1347056670785815
4.888096,8.511189492999224,0.1345950710629684
4.890484,8.508492335834244,0.134460771700318
4.892879999999999,8.50449192605715,0.1343203183257146
4.895276,8.504308726317783,0.1341702452704536
4.897664,8.511714620683506,0.1339395722614168
4.900044,8.52582566542278,0.133602912267341
4.902444,8.537190435310961,0.1332616187480101
4.904827999999999,8.547856357064841,0.1329517156716107
4.907208,8.565132985535788,0.1326069680980879
4.9096,8.583201009939652,0.1322610943535864
4.911988,8.604109752851093,0.131854650934321
4.914383999999999,8.616498236097671,0.1315350134715253
4.916788,8.631632994195337,0.1312216502273487
4.9191720000000005,8.646720530464764,0.1309419952233138
4.921556,8.659992957442876,0.1306476053455266
4.923948,8.669448174383259,0.1303639260017127
4.926336,8.681836657629837,0.1300486559111595
4.9287160000000005,8.696971415727505,0.1297397718813358
4.931112,8.716342692743483,0.1294032418355021
4.9335,8.731617220468014,0.1290874771168182
4.93588,8.74209615076679,0.1288239436174692
4.938284,8.748803196998214,0.1286290458186043
4.940672,8.755043712520811,0.1284855336270836
4.943051999999999,8.763565868043544,0.1283070584869012
4.945448,8.770505231700444,0.1281348089789647
4.947831999999999,8.77623389054384,0.1279840850902883
4.950216,8.782986262745636,0.1278522351593055
4.952611999999999,8.792951440507345,0.1276780764838828
4.954999999999999,8.797097307484911,0.12753423420678
4.957375999999999,8.79844967778314,0.1274156585345745
4.959772,8.801245070320341,0.1272987964712341
4.96216,8.813072579201611,0.127110684835229
4.964552,8.826390332150096,0.1268921750612265
4.966948,8.84133809879266,0.1266368403880741
4.969335999999999,8.85810097472654,0.1263985334449984
4.971716,8.875096168085896,0.1261819380503237
4.974111999999999,8.88701622476578,0.1260233108883829
4.976499999999999,8.894420223273633,0.1258985915344797
4.978896,8.902243530662068,0.1257569147920487
4.9813,8.913651730662755,0.1255888197885378
4.983683999999999,8.92599109622322,0.1254127486395188
4.986064,8.938749770664264,0.1252181037416237
4.988468,8.952626602120189,0.1249768118440684
4.990856,8.963290628016203,0.124777904759978
4.9932360000000005,8.97432674096455,0.1245946408051926
4.995632,8.982569357233563,0.1244356002704531
4.99802,8.987227080890325,0.1243027424061125
5.0004,8.986669898240752,0.1242339901259163
5.002795999999999,8.987276198576437,0.1241780165986404
5.005183999999999,8.991095304472037,0.1240804554676301
5.007564,8.991189748128525,0.124015384716066
5.009968,8.987839068799618,0.1239708934861634
5.012356,8.983277684657212,0.1239457364324544
5.014736,8.980578631634364,0.1239048416913467
5.01714,8.975784930066482,0.1238587553806062
5.019528,8.969687975886483,0.1238053510631695
5.021907999999999,8.970528489505513,0.1236810020566897
5.024304,8.982590211670125,0.1234339331047134
5.026687999999999,8.990787501968764,0.1232226536811396
5.029068,8.998053626707629,0.1230199587762313
5.031472,9.007042312939186,0.1228086050880039
5.03386,9.021617992529414,0.1225534262201054
5.03624,9.03749692473176,0.1223069745843363
5.038631999999999,9.057007971374595,0.1220060071547078
5.0410200000000005,9.07628670059196,0.1216856021083338
5.043399999999999,9.103294293541271,0.1212986952192874
5.045804,9.136308188729831,0.1208524345456251
5.048191999999999,9.173093967985746,0.1203464779879381
5.050572,9.21244092649552,0.1198011091933649
5.052967999999999,9.24978578425888,0.1192787653373136
5.055355999999999,9.288341346835736,0.118738728076392
5.057735999999999,9.330109714972508,0.1181658604823122
5.06014,9.37122645680322,0.1175913320451999
5.062528,9.406476666021543,0.1170707973365144
5.064908,9.443449436732564,0.1165432153387929
5.067312,9.482144768936282,0.1160086890189496
5.069696,9.51511333815447,0.1155237464767111
5.072076,9.53807140364057,0.115137495599102
5.074471999999999,9.568106706552562,0.1146848662396782
5.076859999999999,9.596978526479296,0.1142205667831557
5.079244,9.62268476267436,0.113762805704338
5.081639999999999,9.639079343271645,0.1133705260765087
5.084024,9.653239505697028,0.1129777857690678
5.086403999999999,9.6624643010698,0.1126287544176107
5.088807999999999,9.671689096442574,0.112280545281667
5.091195999999999,9.670810840284648,0.1119985058567511
5.093576,9.667278857074244,0.1117312240478779
5.095971999999999,9.662116860169764,0.1114966333244453
5.09836,9.652950661772447,0.1112973512552759
5.100739999999999,9.641270505949516,0.1111057634915534
5.103136,9.625725918260615,0.1109437187876168
5.105524,9.603104093145824,0.1108456366225508
5.107919999999999,9.579411332844392,0.1107584786425034
5.110319999999999,9.559862543662655,0.1106304255431882
5.1127080000000005,9.536449322614944,0.110532125269207
5.115087999999999,9.511313540074536,0.1104403522343579
5.117492,9.487108923093906,0.1103421207140307
5.119879999999999,9.463044075740138,0.1102386268023444
5.12226,9.4326933868934,0.110197782773616
5.124664,9.403645950658774,0.1101643506503516
5.127047999999999,9.375901767036265,0.1101390370150894
5.129428,9.357748778265258,0.1100415746074218
5.131828,9.340387185427172,0.1099426971138419
5.134216,9.327541650761118,0.1098183929194046
5.136596,9.31427680721448,0.1097095195261524
5.138991999999999,9.30832151851921,0.1095573873121879
5.141379999999999,9.30115552501044,0.1094215192825421
5.143759999999999,9.293198135568751,0.109286248093894
5.146159999999999,9.287103077246622,0.1091387654055894
5.148544,9.28631547302944,0.1089660331871777
5.150923999999999,9.293116962917344,0.1087409002891924
5.1533240000000005,9.310720352470254,0.108431891249694
5.155708,9.326461410903606,0.1081335436242887
5.158091999999999,9.338989663777042,0.1078686475932059
5.160488,9.359666089263005,0.1075329190301751
5.162876,9.381273680308748,0.1071919402685335
5.165256,9.407025242474182,0.1068147288763614
5.167652,9.441436833931345,0.1063791015290114
5.170039999999999,9.482274036508338,0.105881813269663
5.17242,9.520177972779136,0.1054066235711006
5.174815999999999,9.560363549050072,0.1049077218393636
5.177203999999999,9.594682592708615,0.1044551140991213
5.179588,9.631934902673356,0.1039848015675559
5.181983999999999,9.667744190399118,0.1035132581447133
5.184371999999999,9.69982881588577,0.1030611585589031
5.186756,9.72632644801375,0.1026425411476317
5.189151999999999,9.753895015328377,0.1022140015207387
5.191539999999999,9.783745222643129,0.1017612270879684
5.193936,9.813874969211607,0.1012997286243191
5.196331999999999,9.838417722421417,0.1008705131121883
5.198719999999999,9.856442316712776,0.1004792334972232
5.201099999999999,9.861662910592717,0.1001808016792098
5.203496,9.870887705965483,0.0998517334460558
5.205884,9.885187638017731,0.0994831772378355
5.208268,9.887614735218335,0.0992002241395333
5.210672,9.889110666859164,0.0989223362205107
5.21306,9.883249821820382,0.0987092964252149
5.21544,9.868728947489874,0.0985512424318382
5.217835999999999,9.847922231666397,0.0984469889440953
5.220223999999999,9.827395055096636,0.0983325091159111
5.222604,9.802584137780324,0.0982569901588571
5.2250000000000005,9.78349998344954,0.0981468041393016
5.227388,9.760411627625924,0.0980651373404323
5.229772,9.736624423668006,0.0980074179126363
5.232167999999999,9.722568184188454,0.0978871671859771
5.234552,9.711957067694293,0.0977574920061543
5.236932,9.701206181573273,0.0976325172016981
5.239328,9.687614576944672,0.0975508648902486
5.241715999999999,9.67053062750244,0.0975074747367895
5.244112,9.658102505859096,0.0974404226076211
5.246515999999999,9.650981838320702,0.0973549744179837
5.2489,9.6485169985812,0.0972456017404151
5.25128,9.648426346640452,0.0971373950389937
5.253676,9.646054054699569,0.0970533900580512
5.256063999999999,9.65564714540894,0.0969144898367997
5.258444,9.666683258357288,0.0967811850527366
5.260844,9.686798709477944,0.096583068962422
5.263227999999999,9.711569988397487,0.0963624371403049
5.265607999999999,9.736992893623096,0.0961459726072082
5.268012,9.76586092183409,0.095921614961482
5.2704,9.798872921164785,0.0956650441473353
5.27278,9.825087222323305,0.0954509490263907
5.275184,9.85009081866833,0.0952504310865802
5.277572,9.876025580573131,0.0950457020043025
5.279951999999999,9.895022874678904,0.0948888639884832
5.282355999999999,9.916162039157951,0.0947150595279492
5.284743999999999,9.9402344699432,0.0945248622138036
5.287119999999999,9.965005748862744,0.0943103687626029
5.289516,9.999135905208318,0.0940254653894499
5.291904,10.031543500061192,0.0937462069487427
5.294287999999999,10.061437137488456,0.0934721565781771
5.296684,10.09682522047577,0.093151244384972
5.299067999999999,10.128907950104551,0.0928356276616194
5.301452,10.15926811824064,0.0925241364770139
5.303848,10.181806874846162,0.0922325763342701
5.3062320000000005,10.20197144365293,0.0919393088548005
5.308611999999999,10.215617853541248,0.0916760470414832
5.311011999999999,10.228612637123508,0.0914089933360683
5.313396,10.243237434399848,0.0911150226993772
5.315791999999999,10.25721060537013,0.0908171775838352
5.318188,10.2674591141013,0.0905353829933445
5.320576,10.281711824325305,0.0902287735059082
5.3229560000000005,10.29931710973608,0.0898924218561249
5.325352,10.3199028832813,0.0895146020007319
5.32774,10.343981001640152,0.0891042770428822
5.33012,10.364334457759892,0.0887106621169564
5.332524,10.38003208608074,0.0883366719307037
5.334912,10.395869484028449,0.0879582249436041
5.337295999999999,10.403838248617353,0.0876244839721489
5.339692,10.413669344325807,0.0872847955119007
5.342076,10.420567173728072,0.0869595966182386
5.344456,10.421318931264222,0.0866742853638203
5.346851999999999,10.41792671768068,0.0864154484466675
5.349239999999999,10.410949611484885,0.0861648854482054
5.351624,10.407836937155064,0.0858956054969811
5.3540280000000005,10.410730565064494,0.0855931243104016
5.356412,10.41427581927998,0.0852956345953266
5.358792,10.413956641629492,0.0850159978582959
5.361187999999999,10.412706298419227,0.0847397607422839
5.363575999999999,10.408802228156487,0.0844690471056488
5.365956,10.40890235938658,0.0841764117013894
5.368356,10.407140159497118,0.0838905587817994
5.3707400000000005,10.40323608923438,0.083620240558345
5.373124,10.391695703038312,0.0834077411299457
5.375519999999999,10.37466087128219,0.0832374547591899
5.377904,10.356275565085708,0.0830832100152727
5.380299999999999,10.338681654822144,0.0829296774849954
5.382699999999999,10.32052866605114,0.0827935334538218
5.385084,10.305681030638668,0.0826578452403078
5.387467999999999,10.28897106410664,0.0825283068951892
5.38986,10.275845990186864,0.0823903752872044
5.392248,10.26737674406598,0.0822368319558105
5.394628,10.263703095370849,0.0820629052739221
5.397023999999999,10.26920133264664,0.0818625059682772
5.399411999999999,10.275863052907686,0.0816790441707747
5.401792,10.275028226862265,0.0815479206760705
5.4042,10.27498479674976,0.0814181007826976
5.406584,10.27745532406287,0.0812877582677107
5.408967999999999,10.281508643241818,0.0811603925497356
5.411364,10.2883554591001,0.0810242986830353
5.413752,10.291849699771603,0.0809149144492963
5.416132,10.30135024268236,0.0807759675156047
5.418527999999999,10.312201260033476,0.0806213991447895
5.420915999999999,10.326265082944504,0.0804445231514466
5.423312,10.342750315482531,0.0802439576817683
5.425707999999999,10.35993439615486,0.0800210335846748
5.428095999999999,10.379539886454184,0.0797757571228729
5.430476,10.406130066380785,0.0794725839130134
5.432875999999999,10.429042805896511,0.0791534465243615
5.43526,10.45251462391968,0.0788183509109037
5.437639999999999,10.478966930077288,0.0784463487753525
5.440036,10.497597824704332,0.0780808232755473
5.442424,10.51613617153276,0.0776937375431616
5.444804,10.5277842723904,0.0773116107153411
5.447207999999999,10.531890500971196,0.0769259445814877
5.4495960000000006,10.541119088059707,0.0764873604596469
5.451975999999999,10.55225722809602,0.0760177407068369
5.454372,10.564373755520354,0.0755193020222959
5.45676,10.574395634399655,0.0750073441883149
5.4591400000000005,10.58777008846573,0.074475230922001
5.461536,10.604264800293103,0.0739020819211187
5.463924,10.611168317268977,0.0733610714806702
5.466316,10.617140668685066,0.0728227506407821
5.468711999999999,10.624463494541516,0.0722700982578826
5.471099999999999,10.633136794838329,0.0717034284375031
5.47348,10.643812195881551,0.0711285798634527
5.475884,10.650343625805084,0.0705744736900004
5.478272,10.64844734386237,0.0700675991942842
5.480652,10.647202688225716,0.0695655613899302
5.483056,10.64260545740228,0.0690852128508801
5.485444,10.6307912195261,0.0686389052136045
5.487823999999999,10.625215601314643,0.0681861342987477
5.49022,10.619080904595751,0.0677503495411234
5.492603999999999,10.615739704556193,0.0673085102286374
5.494988,10.61863712418136,0.0668611662426599
5.497383999999999,10.616040098246474,0.066446914680234
5.499771999999999,10.610090497124812,0.0660543819892289
5.502152,10.60130017749557,0.0656936108565604
5.504547999999999,10.590879844172251,0.0653537347535134
5.5069360000000005,10.570960863796047,0.0650610013901482
5.50932,10.545639985658408,0.0648233335242184
5.511715999999999,10.524974935319657,0.0645764993324433
5.514104000000001,10.503890576100329,0.0643413694016708
5.516488,10.482386908000416,0.064118167731398
5.518888,10.460184391766203,0.063915082439996
5.521275999999999,10.43849373221119,0.063722509059228
5.523656,10.418665403775734,0.0635261895011911
5.526051999999999,10.398557536086557,0.0633370415544924
5.528439999999999,10.381755021755913,0.0631543606863738
5.530819999999999,10.366675068917958,0.0629722905322434
5.533216,10.353038138318988,0.0627989028267909
5.535604,10.340332373279791,0.0626243461897652
5.537999999999999,10.328418004173516,0.0624525601193645
5.540396,10.319948758052632,0.0622842540761354
5.542784,10.309477411185334,0.0621224240131851
5.545163999999999,10.304593057676705,0.0619529382953161
5.54756,10.301431265660767,0.0617848941224229
5.549948,10.30255321439139,0.0615958988491348
5.552328,10.310752400547898,0.0613830505036482
5.554723999999999,10.324166493010738,0.0611474202790113
5.557111999999999,10.341212699914076,0.0608832894491633
5.559492,10.355837497190418,0.0606377132066063
5.561891999999999,10.372604164840034,0.0603822858513199
5.564276,10.389370832489654,0.0601274590897058
5.566655999999999,10.40627726976613,0.0598690499660994
5.569064,10.42332347666947,0.0596077717049852
5.571447999999999,10.443302949879005,0.059340377506679
5.573832,10.469428494954649,0.0590515460501022
5.576228,10.49075844260454,0.0587717872467175
5.578611999999999,10.516092591747263,0.0584814023438251
5.580996,10.5463621079426,0.0581790934092289
5.583391999999999,10.573558588204884,0.0578887955445468
5.585779999999999,10.596750866974332,0.0576101522954432
5.588176,10.614868009064308,0.0573493160251049
5.590571999999999,10.63470771264698,0.0570912844282933
5.592959999999999,10.652265776229516,0.056847712184517
5.595339999999999,10.668333595744832,0.0566209004628074
5.597744,10.67797580414032,0.0564228981317208
5.600131999999999,10.68212356697575,0.0562536150031121
5.602512,10.683710150557324,0.0561055944308435
5.604916,10.6852967341389,0.0559577775671633
5.607304,10.689164957720614,0.0557963644465005
5.609684000000001,10.693824577235242,0.0556388720223143
5.61208,10.698484196749874,0.0554816077452925
5.614468,10.701001945891225,0.0553334846392242
5.616848,10.701238055032444,0.0551986759924576
5.619243999999999,10.70240532973344,0.0550639725016649
5.621631999999999,10.69914909406102,0.0549516015717057
5.624012,10.699897059881431,0.0548288297201787
5.626416,10.696640824209013,0.0547164867215242
5.628804,10.691522257417034,0.0546056450030831
5.631184,10.686263920998195,0.0544984868046759
5.633579999999999,10.68487001644533,0.0543851080433457
5.635967999999999,10.680822384839992,0.0542689549834518
5.638348,10.677985458048154,0.054144827529822
5.640743999999999,10.675567840136894,0.0540090747506844
5.6431320000000005,10.67664256703927,0.0538526386651853
5.645511999999999,10.685865466554176,0.0536731087887977
5.647908,10.69522813569594,0.0534894379169155
5.650296,10.711016415957538,0.0532803483352041
5.6526760000000005,10.726245617711692,0.0530870504758137
5.655072,10.741055510585266,0.0529055745954888
5.65746,10.751721432339146,0.0527376095189099
5.659856,10.764249685212585,0.0525694908700902
5.662252,10.77850049957872,0.0524041829626139
5.66464,10.794613645064407,0.0522382253680833
5.66702,10.805372114616908,0.0520937929073621
5.669415999999999,10.818412224169542,0.0519372636681112
5.671803999999999,10.83024162890868,0.0517891642198182
5.674184,10.842862429580734,0.0516445971052971
5.67658,10.850408093573316,0.0515130650780917
5.678968,10.858093527192755,0.051377590367383
5.681352,10.86684989599884,0.0512385538440211
5.6837480000000005,10.877980452603673,0.0511095391633653
5.686136,10.88389610290218,0.0509975126505113
5.688515999999999,10.892465480253152,0.0508889380027789
5.690912,10.895819951297796,0.0507970996271562
5.6933,10.892236954543415,0.050718674119575
5.695683999999999,10.890656058535448,0.0506359436542382
5.69808,10.883860256221148,0.0505697534236414
5.700468,10.873339791667734,0.0505042248589136
5.702863999999999,10.863378405621765,0.0504233461406613
5.70526,10.852625623642872,0.0503384840066094
5.707652,10.835726769797873,0.0502699396457317
