Time,Force,Position
6.152272,5.091317277428055,0.1635047344961228
6.154667999999999,5.196287709678836,0.1624642675591168
6.157055999999999,5.290971890659551,0.1614949645907414
6.159436,5.378255864848152,0.160494766616166
6.161831999999999,5.450178451087212,0.1596304583134477
6.164216,5.503761057100166,0.1588762975276464
6.166611999999999,5.533556459155204,0.1583724863483154
6.169008,5.551295826619234,0.1579445898915618
6.185732,5.569543259046725,0.1578408155749998
6.188115999999999,5.57871324915978,0.1578178128746996
6.190515999999999,5.594261628564421,0.1576825108624399
6.192903999999999,5.62205492987304,0.1573064680226162
6.195283999999999,5.649988000808523,0.156924796412207
6.19768,5.68620901398339,0.1563526815655677
6.200063999999999,5.719404213053445,0.1558109920301873
6.202444,5.745569396525855,0.1553766015227365
6.204839999999999,5.764704564400619,0.1550527699635442
6.207224,5.7816978619021056,0.1547807588974052
6.209619999999999,5.802555591269566,0.1544279081069664
6.212016,5.830350788436055,0.1539289325986721
6.2144,5.864384605267273,0.1533411242078781
6.216783999999999,5.89730026508361,0.1528341110664236
6.21918,5.929517076765643,0.1523764952037425
6.221563999999999,5.9621531973282575,0.1518974650070859
6.22396,5.993066756398177,0.1514477145874744
6.226355999999999,6.024307076550058,0.1509209281060253
6.22874,6.053452748156906,0.1503852693622269
6.231119999999999,6.086649843084832,0.1497243234461241
6.233519999999999,6.11784483726634,0.1491160390356062
6.235908,6.140147484730646,0.1486449319207614
6.238287999999999,6.15369755510461,0.148296861724907
6.240691999999999,6.156865034694151,0.1481337265377009
6.243079999999999,6.159752975029973,0.147989883320933
6.245464,6.159987188313319,0.1478861465128578
6.247867999999999,6.158079531223389,0.1478305424491792
6.250252,6.162969572305627,0.1476505914281306
6.252635999999999,6.170745657865818,0.1474627874857872
6.255032,6.185878520105617,0.147119125327139
6.257415999999999,6.202269308987161,0.1466997814897574
6.259796,6.213911722271193,0.1463206921591541
6.2622,6.216522019211162,0.1460705020956089
6.264588,6.216478589098658,0.1458543035642989
6.266968,6.219275877493732,0.1455502976738882
6.269364,6.218395725477934,0.1452580818252329
6.271747999999999,6.215932781596301,0.1449765792960971
6.274132,6.217426817379258,0.1446664239395697
6.276527999999999,6.226090638386723,0.144259352951867
6.278915999999999,6.228328848274355,0.143991510143159
6.281295999999999,6.225539143310759,0.1437733865628568
6.2837,6.227125726892333,0.143500171322396
6.286088,6.233460686071416,0.1431905563134528
6.288468,6.247105200101866,0.1427712410375531
6.290863999999999,6.261588331893476,0.142303161641905
6.293251999999999,6.269041448087442,0.141925594032274
6.295632,6.276913873161988,0.1415201029370488
6.298036,6.279943478982538,0.1412425721576058
6.300424,6.2801795881237545,0.1410071951012033
6.302804,6.274177077600244,0.1408556277100349
6.305199999999999,6.26924550226337,0.1406817779847602
6.307584,6.265058101031171,0.1405484212415484
6.309968,6.266130932075678,0.1403957454137213
6.312367999999999,6.273210065359437,0.1401357801199035
6.314755999999999,6.276192449351744,0.1399117445162653
6.317136,6.279407150769529,0.1397161919826058
6.31954,6.285647666292126,0.1395098929755852
6.321928,6.295333304800116,0.1392702860142622
6.324308,6.301993129203294,0.1390434077411191
6.326703999999999,6.308188318755517,0.1387573581225837
6.329091999999999,6.320110271293271,0.1383842198459592
6.331472,6.333475246070001,0.1380124367875745
6.333867999999999,6.347771386406508,0.1376279678048317
6.336255999999999,6.357970777451564,0.1372757634556929
6.338635999999999,6.364165967003788,0.1369925121015752
6.341032,6.375900928086438,0.1366772754918503
6.343416,6.391173559953097,0.1363654786081033
6.345811999999999,6.411661098126089,0.1359573586250033
6.348212,6.43498935480666,0.1354636369849123
6.350596,6.452962935554037,0.1350714619554304
6.352979999999999,6.467024862607198,0.1347884563211377
6.355376,6.483228660033636,0.1344652891406794
6.357764,6.499479679288318,0.1340991434634243
6.360144,6.508421143691633,0.1338263394917558
6.362539999999999,6.5175949255204255,0.133582407532085
6.364927999999999,6.528491268841915,0.1333218081362764
6.367308,6.537665050670706,0.1330792706835671
6.369703999999999,6.537946485782297,0.1329365436173012
6.372095999999999,6.535946280893748,0.1328429757655128
6.374471999999999,6.539625617162487,0.1327122142445964
6.376868,6.542606105296926,0.1326231773796997
6.379256,6.547216607125444,0.1324833813899398
6.381651999999999,6.552665726715123,0.1322966808569683
6.384055999999999,6.563981378917192,0.1320256733141251
6.386443999999999,6.580092628545013,0.1316900475125788
6.388824,6.595040395187579,0.1313413112849807
6.391228,6.608173052538831,0.13097440308235
6.393611999999999,6.61758104765097,0.1306546860994304
6.395992,6.6295030001887225,0.1303200994066408
6.398391999999999,6.647431254965725,0.1298922936063865
6.400775999999999,6.666989523436808,0.1294157779420161
6.403155999999999,6.684545691161476,0.1289720012764523
6.405555999999999,6.697957887766448,0.1285947301652024
6.40794,6.717748473663008,0.1281477442693732
6.410319999999999,6.7394013906791255,0.1276806163004775
6.412716,6.762265012508741,0.127190910993987
6.415104,6.78340607284566,0.1267143651927915
6.417487999999999,6.811716918407087,0.1261641617317672
6.419884,6.846965231767542,0.12551976900166
6.422272,6.876906091023047,0.1249288172422217
6.424652,6.901539496173601,0.1243849566366899
6.427056,6.920678455764104,0.1239431257176851
6.429444,6.939118567220306,0.1235424952072028
6.431823999999999,6.953274937929954,0.1232180013107186
6.434223999999999,6.963706646400488,0.1229368774270339
6.436612,6.969994383751328,0.1227188840452063
6.438991999999999,6.977445604087423,0.1225188303551594
6.441395999999999,6.985548450729577,0.12232333597086
6.44378,6.990718031065535,0.1221670696944211
6.446159999999999,7.001242287334687,0.1219276711115093
6.448563999999999,7.009624673230561,0.1217230708008278
6.450951999999999,7.018938224686212,0.1215093772608228
6.453332,7.033326912821337,0.121225170523702
6.455736,7.047343513904124,0.1209257306078395
6.458124,7.05777522237466,0.120657393476523
6.460504,7.065133894912138,0.1204326642065419
6.462907999999999,7.07621722968873,0.1201706959094382
6.465292,7.083995211106788,0.1199261383881149
6.467675999999999,7.083904559166041,0.1197781981399518
6.470072,7.085396699091129,0.1196256298462635
6.472455999999999,7.092615602001748,0.1194098216691732
6.47484,7.104909641591839,0.1191267533831466
6.477243999999999,7.115760658942953,0.1188413255262002
6.479628,7.124609575547652,0.1185804463220338
6.482007999999999,7.134249888085267,0.1183173957988441
6.484404,7.148965337302355,0.117986433215137
6.486792,7.160794742041492,0.1176504152498413
6.489172,7.169970419728154,0.1173335130921165
6.491567999999999,7.178354701481897,0.1170186493669606
6.493955999999999,7.176448940249836,0.1168472757422224
6.496336,7.174682948644635,0.1166683924392411
6.498731999999999,7.16919229480032,0.1165259540426596
6.50112,7.16062860502295,0.1164252340131656
6.503499999999999,7.149503735991722,0.1163778584609416
6.505891999999999,7.141451902893549,0.1162888817624027
6.508279999999999,7.133819378675958,0.116178313347086
6.510676,7.1240449840850895,0.1160998463827314
6.513076,7.11385128061364,0.1160425059423728
6.515459999999999,7.106870382702108,0.1159366108335381
6.517844,7.101239959230933,0.1158003180780667
6.520247999999999,7.09481813982684,0.1156659630389382
6.522632,7.081738391877439,0.1156002074310571
6.525012,7.068379104674318,0.1155483019904668
6.527415999999999,7.058651931911692,0.1154271010484352
6.529803999999999,7.052137564708983,0.1152585217718056
6.532183999999999,7.044692031946495,0.1150987232035677
6.534587999999999,7.037339046982624,0.1149718780642071
6.536971999999999,7.034921429071365,0.114788015342626
6.539351999999999,7.0330156678393045,0.1146164393413136
6.541756,7.032320611420742,0.1144205417941805
6.544139999999999,7.032416950935097,0.114222875154425
6.546519999999999,7.034375621569009,0.1140066758409157
6.548924,7.03754499701642,0.1137673892638621
6.551311999999999,7.0402025157846335,0.1135153264400494
6.553692,7.042860034552846,0.1132644562902652
6.556096,7.046308949253978,0.1130120937932288
6.558479999999999,7.048314841716133,0.1127551437674791
6.56086,7.053673309365064,0.1124448443251444
6.563264,7.059962942573774,0.112127242750985
6.565652,7.064250475036066,0.1118341343564295
6.568031999999999,7.064254266751805,0.1116023068440664
6.570435999999999,7.070124591079933,0.1113053271044462
6.572823999999999,7.073992814661646,0.1110307388954329
6.575199999999999,7.076510563802999,0.1107868711898931
6.5776,7.071671536264742,0.1106441525168576
6.579984,7.065621803912987,0.1105239494637022
6.582367999999999,7.06185371156137,0.1103658732173807
6.584764,7.056083518463336,0.1102315746795988
6.587147999999999,7.0510121734996005,0.1100620980909218
6.589528,7.053949231521535,0.1098002237708655
6.591927999999999,7.058096994356967,0.1095171021568484
6.594315999999999,7.0643866275656775,0.109204492657463
6.596696,7.071467656707304,0.1088919810967709
6.599091999999999,7.078269146595212,0.1085928838884781
6.601479999999999,7.080926665363425,0.1083457555909835
6.603859999999999,7.085726054504914,0.1080703279036287
6.606264,7.093039401072019,0.1077853165858674
6.608651999999999,7.097279711706069,0.1075384189681323
6.611032,7.099238382339981,0.1073277657856486
6.613427999999999,7.101988448906812,0.107116206596098
6.615815999999999,7.108091090660418,0.1068531318045493
6.618195999999999,7.109909991667471,0.1066486102023463
6.620595999999999,7.11987706528705,0.1063498627757001
6.62298,7.128633434093131,0.1060722669986404
6.625359999999999,7.140742378085987,0.1057415783976199
6.62776,7.151920156519065,0.1054183949099747
6.630148,7.1643086397656415,0.10507652805263
6.632527999999999,7.174555252638942,0.1047628648267938
6.634924,7.18559326144516,0.1044502056118561
6.637307999999999,7.190485198385265,0.1042120137859587
6.639692,7.195097596071653,0.1039884580165969
6.642095999999999,7.200641159317819,0.1037592620943051
6.64448,7.204042852190707,0.103557983302892
6.64686,7.21023804174293,0.1033358345862189
6.649255999999999,7.219226727974489,0.1030911647195544
6.651643999999999,7.222720968645994,0.1029225942710405
6.65404,7.224492647824802,0.1027617280352602
6.656443999999999,7.224913852563252,0.1026276856496863
6.658832,7.2277564669286996,0.1024525027838288
6.661211999999999,7.231670016480785,0.1022639428995624
6.663608,7.238097523458485,0.1020689474613135
6.665996,7.245875504876545,0.101845907746222
6.668376,7.246296709614994,0.1017130467286935
6.670772,7.247928619166944,0.1015597681110008
6.673159999999999,7.252354025398228,0.1013862562212238
6.675543999999999,7.255568726816013,0.1012322664770621
6.67794,7.255291083420163,0.1011327084509055
6.680327999999999,7.257015540770728,0.1010124127158718
6.682708,7.256318588494297,0.1009327219296159
6.685108,7.254690470658085,0.1008596771309216
6.687495999999999,7.25120002170232,0.1008004240554778
6.689876,7.245427932746416,0.1007749025623687
6.692271999999999,7.239795613417372,0.1007426771366553
6.694659999999999,7.232440732595633,0.1007172039602358
6.697039999999999,7.228438426960666,0.100644746685747
6.699439999999999,7.229790797258895,0.1005054781731794
6.701827999999999,7.232074333116902,0.1003594879293589
6.704208,7.241714645654518,0.1001285096388986
6.706607999999999,7.250004483751775,0.0999248424114748
6.708992,7.258294321849031,0.0997222921195956
6.711371999999999,7.264861598453592,0.0995276306099862
6.713763999999999,7.271568644685012,0.0993263285933444
6.716151999999999,7.281628266103209,0.0990797829378171
6.718548,7.292758822708044,0.0988215234239131
6.720951999999999,7.302027048193322,0.0985771413471372
6.72334,7.317860654425292,0.0982521938297149
6.725719999999999,7.337326375097758,0.0978717240579163
6.728123999999999,7.358933966143502,0.0974685852954986
6.730511999999999,7.381100635696686,0.0970389745781416
6.732892,7.406200571556066,0.0965848657593119
6.735287999999999,7.431580046669166,0.0961175730622135
6.737675999999999,7.456307895476207,0.09564330547104
6.740055999999999,7.484248549843164,0.0951341245441213
6.74246,7.5132601393967615,0.0946151473330546
6.744847999999999,7.535334261151328,0.0941575170361095
6.747228,7.5561976780923965,0.0937217052983603
6.749623999999999,7.577061095033465,0.0932869253549741
6.752011999999999,7.5908472745486435,0.0929206355937698
6.754391999999999,7.606635554810239,0.0925385149702218
6.756788,7.622563604698695,0.0921523374938674
6.759176,7.639842129027511,0.0917453081459007
6.761555999999999,7.663778581901634,0.0912994157508191
6.763952,7.685573164402481,0.090877470330858
6.766335999999999,7.704434480597132,0.0904780338966222
6.768716,7.722364631232005,0.0900841161754434
6.771111999999999,7.732146609254349,0.0897635985272763
6.7735,7.73871578171678,0.0894779947771085
6.775896,7.742351687873014,0.0892144594264504
6.7783,7.747710155521945,0.0889473656299248
6.780683999999999,7.751066522424459,0.0886965197646266
6.783064,7.754143350073253,0.0884574069137233
6.785468,7.757080408095186,0.088223935883718
6.787856,7.757875595743844,0.0880132795092802
6.790236,7.753595646713028,0.0878445740180137
6.792631999999999,7.753971525481104,0.0876507733775551
6.795019999999999,7.750902281263787,0.0874641131892635
6.7974,7.750486764098947,0.0872696178248467
6.799804,7.751142182120741,0.0870636045083665
6.802187999999999,7.747002002716787,0.0868877248464107
6.804572,7.743653219245749,0.0867136663220775
6.806968,7.733087428721963,0.0866025527676001
6.809351999999999,7.712371364839232,0.0865747582695078
6.811731999999999,7.695519732822474,0.0865216204449492
6.814136,7.68239276304483,0.0864494433349644
6.816523999999999,7.670988354759881,0.0863737543883427
6.818904,7.667173040580021,0.086255148175687
6.821308,7.662286791213521,0.0861467475571097
6.823696,7.659123103339718,0.0860351270414599
6.826075999999999,7.657170120279414,0.0859074359242829
6.828472,7.656148302778887,0.0857751286478084
6.830855999999999,7.658059751584556,0.085623715599831
6.833235999999999,7.662113070763502,0.0854517587875746
6.83564,7.668959886621783,0.0852676392605774
6.838028,7.682604400652233,0.0850410813788487
6.840408,7.6985305546828195,0.0847904510100478
6.842812,7.719764162818356,0.0845266157732486
6.8452,7.739414979088057,0.0842620494939212
6.847579999999999,7.761859292037093,0.0839862011513949
6.849976,7.78909920241188,0.0836840086675496
6.852364,7.81461655129397,0.0833864768664945
6.854744,7.84707136797509,0.0830420828661626
6.857139999999999,7.886091565402901,0.0826320290542076
6.859527999999999,7.9204559350318195,0.082244500718517
6.861908,7.952678434287463,0.0818785088366693
6.864312,7.984249307237047,0.0815067773824262
6.8667,8.00995364757424,0.0811720362977055
6.86908,8.040453585337186,0.0808132014604926
6.871476,8.068160026420797,0.0804661204919779
6.873863999999999,8.089580626011438,0.0801708603337781
6.876244,8.11621613190841,0.0798372300409504
6.878648,8.141129076312685,0.0795077269830677
6.881031999999999,8.162968984783907,0.0792012074015817
6.883412,8.180013295829376,0.0789199413676251
6.885812,8.192262009449092,0.0786635639990381
6.888195999999999,8.200506521575974,0.0784342946687956
6.890575999999999,8.203955436277106,0.0782289481410306
6.89298,8.207404350978237,0.0780244576624469
6.895363999999999,8.208059769000032,0.0778309193606442
6.897743999999999,8.206713086275412,0.0776503768117893
6.900139999999999,8.20015149724446,0.0775085014488197
6.902528,8.19130826821337,0.0773903415459259
6.904907999999999,8.18097479511506,0.0772976588839935
6.907304,8.171432717949669,0.0772067752925721
6.909692,8.16230994966486,0.0770991804762258
6.912087999999999,8.15211624619341,0.0770001304822509
6.914484,8.144204182722097,0.0768775542696745
6.916872,8.132846996265394,0.0767570607361259
6.919248,8.1276358816748,0.0765952481005037
6.921652,8.129641774136957,0.076383464288504
6.92404,8.123639263613443,0.076219441029649
6.92642,8.118707688276569,0.0760469755115921
6.928815999999999,8.121924285552224,0.07582408470019
6.931199999999999,8.127282753201154,0.0755840870130822
6.933584,8.137716357529559,0.0753137450293508
6.935979999999999,8.14894135779088,0.075045828996472
6.938364,8.16165660211942,0.0747528037666069
6.940747999999999,8.172649284955265,0.0744611390653052
6.943152,8.186854773351024,0.0741460045598273
6.945535999999999,8.201339801000504,0.073820727071085
6.94792,8.223041835702734,0.0734478819165481
6.950315999999999,8.246234114472182,0.0730520672839942
6.952703999999999,8.265981270256239,0.0726565306850046
6.955083999999999,8.285868195667154,0.0722551758107781
6.95748,8.304684185891432,0.0718624290542162
6.959868,8.326433442421903,0.0714575910192463
6.962263999999999,8.347251533392598,0.0710561779846751
6.96466,8.369512646602269,0.0706664958075985
6.967044,8.385767457572687,0.0703108641227077
6.969427999999999,8.397086901490496,0.0699800170186809
6.971824,8.4113396117145,0.0696353794246744
6.974212,8.424241847498141,0.0693103261704337
6.976592,8.424991709176425,0.069052633460569
6.978987999999999,8.425601801227849,0.0688004597289942
6.981375999999999,8.419274425480241,0.0685809027090691
6.983756,8.412435193053438,0.0683476597380213
6.986151999999999,8.411182953985303,0.0681014991269713
6.988539999999999,8.410163032342647,0.0678790477697435
6.990924,8.406581931446134,0.0676878185374863
6.993319999999999,8.40206966498984,0.0674986660624281
6.995704,8.39448436260049,0.0673266574445905
6.998104,8.384757189837867,0.0671691897445416
7.000499999999999,8.379685844874132,0.0670008162602263
7.002887999999999,8.374614499910399,0.0668320816202361
7.005267999999999,8.370614090133303,0.0666559040374722
7.007664,8.363540644423152,0.0664963921797831
7.010052,8.354045789086003,0.0663610576621551
7.012435999999999,8.34189720669638,0.0662263937751117
7.014835999999999,8.332542120986092,0.0660853601628383
7.017223999999999,8.32504936639536,0.0659399235184013
7.019603999999999,8.316625446244853,0.0657962310584428
7.022,8.306339194974786,0.0656561480949378
7.024388,8.303130181130609,0.0654805078110147
7.026767999999999,8.301131872099932,0.0652927421792776
7.029164,8.304068930121865,0.0650843134019765
7.031556,8.31059088075605,0.064874401579378
7.033935999999999,8.309383967658292,0.0646905059126485
7.036339999999999,8.306734032321556,0.0644943393529146
7.038724,8.30343247067876,0.0642894398870908
7.041103999999999,8.303064175342161,0.0640743370301396
7.043507999999999,8.303766815192201,0.0638522356879574
7.045895999999999,8.306471555788656,0.0636217237237894
7.048276,8.306103260452057,0.0634070928635333
7.05068,8.309878936235153,0.0631711939910228
7.053063999999999,8.314446007951167,0.0629393664131982
7.055444,8.321434489294179,0.0626843646456849
7.057843999999999,8.335779747316797,0.0623885270652546
7.060227999999999,8.353198041272472,0.0620783713792285
7.062612,8.365820737802395,0.0617802953869366
7.065007999999999,8.37830366470546,0.0614876907084727
7.067392,8.39306823160866,0.0611777766280281
7.069775999999999,8.411045604071775,0.0608486256445044
7.072172,8.430093911721531,0.0605153422456885
7.074555999999999,8.443787543438091,0.0602136109110475
7.076939999999999,8.456550009594878,0.0599143705608666
7.079343999999999,8.463445943139272,0.0596336180950613
7.081728,8.47206443817636,0.0593542787094852
7.084107999999999,8.480822702840312,0.0590690667196074
7.086511999999999,8.49172283787754,0.058771815162398
7.088899999999999,8.498339232168211,0.058500182759243
7.091279999999999,8.508680288697999,0.0582255351590857
7.093676,8.51580853966787,0.0579694813603774
7.096064,8.52200562507796,0.0577138873787897
7.098443999999999,8.526060840114773,0.0574723063264972
7.100847999999999,8.527322558472255,0.0572339812371325
7.103232,8.52616286720274,0.0570179955381232
7.105616,8.520067808880608,0.0568178647462605
7.108011999999999,8.511691110558342,0.0566345109905941
7.110396,8.511183045594883,0.0564286806979948
7.112791999999999,8.511885685444923,0.0562124164747128
