Time,Force,Position
9.274924,5.405211732299777,0.1532379957366546
9.277311999999998,5.426162009465855,0.1529064203736685
9.279692,5.444645551034561,0.1525629189622133
9.282087999999998,5.462524688125454,0.1521741044295168
9.284475999999998,5.481894069283563,0.1517314661019567
9.28686,5.496979709695119,0.1513968178079116
9.289255999999998,5.512716976412733,0.1510589243106139
9.291643999999998,5.522959797570294,0.1508672596010953
9.294028,5.54130356951214,0.1505402947386308
9.296423999999998,5.562253846678217,0.1502231485578223
9.298811999999998,5.586369707575968,0.1498784283168339
9.301192,5.604851353286804,0.1496926243193108
9.303591999999998,5.625846956423255,0.1494744736519461
9.305979999999998,5.649403738813565,0.1491746584864236
9.308364,5.66499934004645,0.1490014909472919
9.310759999999998,5.682736811652612,0.1487757098780309
9.313144,5.703175232139492,0.1484528642352979
9.315528,5.720168529640979,0.1481816848069485
9.334651999999998,5.747818269607,0.1481304487864675
9.337036,5.754521524122683,0.1480999693737767
9.339432,5.768861094571696,0.1478816095407421
9.341819999999998,5.783247886848952,0.1476220361594965
9.344203999999998,5.801406563193561,0.1472573851112714
9.3466,5.814397555060085,0.1469554739285557
9.348988,5.826644372821933,0.1466068929728358
9.351371999999998,5.838798642785164,0.1462208484653052
9.353768,5.848950812001978,0.1458775164292342
9.356156,5.863898578644542,0.1454501734845918
9.358536,5.87791517972733,0.1450401363871109
9.360931999999998,5.89537690379551,0.1445923201700491
9.363319999999998,5.913630023796609,0.1441395571737228
9.365704,5.933885244544124,0.1436435241743842
9.368099999999998,5.961869329023586,0.1430183640546271
9.370487999999998,5.989201787196991,0.1423970574584114
9.372868,6.0142998271985,0.1417776491508727
9.375263999999998,6.04675464387962,0.1409975403178118
9.377652,6.077906207948624,0.1402173418579135
9.380048,6.105892188285955,0.1394669208109135
9.382444,6.124846052279223,0.1388396513437423
9.384832,6.144079455526213,0.1381961528731345
9.482816,5.690511525210398,0.1380765240055921
9.485204,5.689907120732583,0.1380222097537758
9.487584000000002,5.693259695919359,0.1379429904304241
9.48998,5.702199264464804,0.1377803846111208
9.492368,5.711930228943169,0.1376145697085388
9.494748,5.723104215660508,0.1374499038682273
9.497152,5.736792159803463,0.1372644192530641
9.499536,5.751271499879336,0.1370769901047518
9.501916,5.774318321448316,0.1367079276293349
9.50432,5.798203760778457,0.1362851349078334
9.506704,5.827304106414934,0.1357652535392706
9.509084,5.864552624663933,0.13510658613524
9.51148,5.904781631047374,0.1343495076316264
9.513864000000002,5.945290176684535,0.1335732288578374
9.516244,5.988080362321833,0.1327446502019527
9.518648,6.031661943892049,0.131920804891794
9.521032000000002,6.0798993532611565,0.1310419761301639
9.523412,6.126134661883848,0.1302049327095735
9.525816,6.166223898640428,0.1294847243756266
9.528204,6.203891725770011,0.1288291554708315
9.530584,6.250778660698759,0.1280128380715
9.532976,6.291799063015118,0.1272993093674832
9.535364,6.329793651226665,0.1265967906138752
9.537744,6.363132411639318,0.1259621798088602
9.540148000000002,6.3950281498129975,0.1253312088707545
9.542532,6.426412031307478,0.1246934123373673
9.544912,6.455421725003204,0.12407179517157
9.547316000000002,6.481777691646457,0.1234792968893582
9.549704000000002,6.50720249272993,0.1229073936379352
9.552084,6.5343498553061,0.1223261818497164
9.554480000000002,6.55549091564302,0.1218392033105555
9.556868,6.567832177061353,0.1214786827220846
9.559248,6.579102503293049,0.121138381111162
9.561648000000002,6.5935856350846604,0.1207460950888779
9.564032,6.608208536503132,0.1203488893256209
9.566412,6.620177710869129,0.1199761298277333
9.568816000000002,6.628282453369152,0.1196547003695575
9.5712,6.638808605496172,0.1192850533710271
9.573584,6.65161639762333,0.1188713857820698
9.57598,6.66377256344443,0.1184516141784789
9.578364,6.670853592586057,0.1181084504708121
9.580744,6.678865787287463,0.1177552291687023
9.583148,6.685247968294789,0.117448284388356
9.585536,6.690791531540954,0.1171859182203746
9.587916,6.695915785906538,0.1169468324638232
9.590316,6.7015518969513215,0.1167223146858074
9.592704,6.706628929488664,0.1165283663744501
9.595084,6.71408014982476,0.1163284732520737
9.597488000000002,6.720180895720495,0.1161622641701249
9.599872,6.724279540869816,0.1160234646047065
9.602252,6.732894244191168,0.1158451969527951
9.604656000000002,6.742160573818577,0.1156713139550137
9.607044000000002,6.753009695311823,0.1154944967394975
9.609424,6.76278788161843,0.1153370889823112
9.611820000000002,6.771215593484678,0.1152118030732877
9.614208,6.7792239964703445,0.1151082769802765
9.616588,6.786952860202291,0.1150195601963716
9.618992,6.792772170986438,0.1149924664010207
9.621376,6.798731251397445,0.1149583695468363
9.62376,6.807483828487788,0.1148974768441914
9.626156000000002,6.817027801511047,0.1148352138496832
9.628544000000002,6.828573875280726,0.1147486214255202
9.630924,6.843472524237178,0.1146057915113894
9.633328,6.86135166132807,0.1143867158774739
9.635712000000002,6.877368467299405,0.1141845585284848
9.638092,6.889800380658487,0.1140111942791781
9.640496,6.902651602898149,0.1138160642132329
9.642884,6.911917932525558,0.1136493229426259
9.645264,6.917319830286994,0.1135251905652284
9.647664,6.92258195842157,0.113408476376961
9.650052,6.924398963570752,0.113313518270498
9.652432,6.928497608720074,0.1131788419355689
9.654836,6.9307339227498375,0.1130623920032026
9.657224,6.931899301592962,0.1129626449076695
9.659604000000002,6.933204450062946,0.1128556985920847
9.662008,6.939864274466124,0.1126701107278002
9.664392,6.947222947003603,0.1124489351502769
9.666772000000002,6.953138597302106,0.1122233610541227
9.669176,6.962359600959141,0.1119869379083223
9.671564,6.967995712003924,0.1117777325602556
9.673948,6.970978095996231,0.1115866098676682
9.676344,6.970747674428623,0.1114425417185214
9.678728,6.969725856928097,0.1113000759350314
9.681108000000002,6.967353564987212,0.1111873626012236
9.683508,6.967914539352522,0.1110425403037734
9.685896,6.967404578531193,0.1109122821800867
9.688276000000002,6.968756948829421,0.1107658098053414
9.690672,6.971320023941147,0.1105961877878083
9.69306,6.978166839799429,0.1103640762040723
9.69544,6.98664366935179,0.1100890645593598
9.697836,6.996843060396845,0.109805017339969
9.700224,7.005180120322345,0.1095380876999945
9.702604,7.012213927635731,0.1092588574763122
9.705000000000002,7.017525173456418,0.1089893148480882
9.707388000000002,7.025629915956441,0.1086969086654868
9.709768,7.027868125844074,0.1084683462622369
9.712164,7.030757962037763,0.1082465799287295
9.714552,7.032576863044816,0.1080388889512569
9.716932,7.029088309946919,0.1078653184755872
9.719328,7.026251383155077,0.107697270237256
9.721716,7.024485391549878,0.1075136516666819
9.724112000000002,7.022067773638619,0.1073232422409664
9.726508,7.019510386100499,0.1071399614557189
9.728896,7.016161602629463,0.1069574008408651
9.731276,7.010159092105951,0.1067914374548162
9.733672000000002,7.0070898478886345,0.1065938695182804
9.736060000000002,6.998154071058927,0.1064582450454367
9.738444,6.990940855721917,0.1063135452152799
9.74084,6.982796474825127,0.1061765949179847
9.743228000000002,6.974884411353814,0.106067000491295
9.745608,6.965249786389807,0.1059657229873315
9.748004000000002,6.954404456612299,0.1058861004592379
9.750392000000002,6.945002149073768,0.1058116390065381
9.752776,6.934668675975459,0.1057446729319333
9.755172000000002,6.918096583212422,0.1057176697686623
9.75994,6.882391218432492,0.1057150525040751
9.762336,6.865958895296315,0.105680344751525
9.764724,6.850457737719916,0.1056375760023076
9.767120000000002,6.840451025703571,0.1055125416921466
9.769516,6.831235709620144,0.1053866309636288
9.771904,6.823231098350214,0.1052383152897642
9.774284000000002,6.813876012639926,0.1051189068479895
9.77668,6.806383258049194,0.1049838862214885
9.779068,6.803546331257354,0.1048107873051889
9.781448,6.804853375585208,0.1045875960207873
9.783848,6.811095786965674,0.104311939940693
9.786232000000002,6.819759607973138,0.1039960266428215
9.788616,6.827212724167103,0.1037015372814222
9.791012000000002,6.828427220696341,0.1034434562780812
9.793400000000002,6.829362177971857,0.1031988582408164
9.795784,6.834441106367068,0.1029039209923605
9.798180000000002,6.840590969948917,0.1025954495991156
9.800568000000002,6.848463395023464,0.1022787830557598
9.802948,6.8615035045761,0.1019386753878977
9.805348,6.874264074875014,0.1016114936867574
9.807736000000002,6.89102884666676,0.1012393013035249
9.81012,6.905232439204651,0.1009184484203413
9.812516,6.922229528421877,0.1005771341313974
9.814904000000002,6.93359240245219,0.1003238647655189
9.817288,6.944955276482502,0.1000709282407109
9.819680000000002,6.960042812751928,0.0997916893286725
9.822064,6.974478722715295,0.0995039864124767
9.824460000000002,6.989054402305523,0.0992114123668089
9.826864,7.000836585216416,0.0989420209486402
9.829248,7.00661246588806,0.0987359805579253
9.831628000000002,7.010386245813286,0.0985506676505309
9.83402,7.009736515365097,0.0984272078248779
9.836404000000002,7.010949116036464,0.0982904399458188
9.8388,7.017469170812781,0.0981263451292891
9.841192,7.025199930402598,0.0979417057110786
9.84358,7.030788819619136,0.0977851163394745
9.845956,7.034096068835538,0.0976623730002821
9.848352000000002,7.039265649171496,0.0975269737810634
9.850736,7.042992207268479,0.0973849567336608
9.853128000000002,7.051933671671794,0.0971845503394241
9.855524,7.057150473835996,0.0970095348793547
9.857908000000002,7.063298441559977,0.0968277669523457
9.8603,7.065302438164262,0.0966922289488877
9.862696,7.068796678835767,0.0965230605204103
9.86508,7.07443278988055,0.0963284257663113
9.86746,7.081000066485111,0.0961302474026587
9.869852000000002,7.090780148649587,0.0958937673664592
9.87224,7.099209756373705,0.0956841188181787
9.874632000000002,7.106708198538043,0.0954807121980755
9.877036,7.11513780626216,0.0952703961294824
9.879424,7.130784421039027,0.0949877008395968
9.881800000000002,7.146850344696474,0.0946847968173345
9.884196,7.165197908354059,0.0943535537805237
9.886584,7.183964780892223,0.0940045682768178
9.888964,7.20287142305725,0.0936502488703705
9.891364,7.223919935595552,0.0932736447609743
9.893752,7.247669397014572,0.0928478003482936
9.896132,7.269696296940895,0.0924291313046854
9.898536,7.294656463173414,0.0919914329416697
9.90092,7.311236139367928,0.091604257327133
9.903300000000002,7.334753283361471,0.0911616029669446
9.905692000000002,7.363764872915066,0.0906597000636337
9.908080000000002,7.394406476162742,0.0901192002392046
9.910472,7.427841576089753,0.0895677655952211
9.912868,7.45755201377765,0.0890395117075271
9.915256,7.477531486987182,0.0885814075603499
9.917636000000002,7.500164687249191,0.0881196774864935
9.92004,7.5236365052723615,0.0876222578505651
9.922424,7.54803948885531,0.0871202233433526
9.924804000000002,7.57672621318481,0.0865770610848102
9.927196000000002,7.5932605634089505,0.0861372779702946
9.929584000000002,7.609515374379369,0.0857094271499977
9.93198,7.621905753483816,0.0853095016998008
9.934384,7.633225197401625,0.0849218465623667
9.936768,7.64533603725235,0.084537020260642
9.939148,7.653722214863961,0.0841715667984494
9.941552,7.659686982848576,0.083840306639457
9.943936,7.665651750833191,0.0835094820113719
9.946316,7.664539281391916,0.0832342390659508
9.948716,7.672598697921566,0.0829209249890058
9.951104,7.677724848145021,0.0826295772726924
9.953484,7.673771660196169,0.0824074246561358
9.955876,7.67340336485957,0.0821750820089477
9.958264,7.665166436164164,0.081993518124099
9.960644000000002,7.658372529707734,0.0818210712265158
9.963036,7.658096782169751,0.0816182323608808
9.965424,7.652745897952298,0.0814549708219859
9.96782,7.645345691160183,0.0813434126409513
9.970216,7.638876649927847,0.0812277027194456
9.9726,7.626773393508598,0.0811739299740563
9.974984,7.623609705634795,0.0810594281135643
9.977376,7.624450219253825,0.0809171697198489
9.979764,7.620867222499441,0.0808201028866925
9.98216,7.617004686491336,0.0807349709774519
9.984556,7.612210984923454,0.080653885049357
9.986944,7.60685820484813,0.0805964134035354
9.989324,7.603367755892364,0.0805308214707695
9.991728000000002,7.595733335816905,0.0804992514159503
10.003652,7.551972346223062,0.0804720015311274
10.006048,7.550529323984085,0.0804619928614379
10.008432,7.551088402491525,0.0804380874950225
10.010828,7.552858185812465,0.0803984846444404
10.013232000000002,7.557561235439599,0.0803413273240465
10.015620000000002,7.564545925066872,0.0802584870663098
10.018,7.573392945813701,0.0801687874620762
10.020396000000002,7.583730210627749,0.0800510594700906
10.022784,7.593927705814937,0.0799408604250708
10.025164,7.60091239544221,0.0798601766518685
10.027568,7.61576571842829,0.0797316004906461
10.029956000000002,7.631038350294949,0.0795858803162478
10.032336,7.646171212534748,0.0794464297228479
10.03474,7.665308276267382,0.07928045369843
10.037124,7.685656044813513,0.079100756580332
10.039504,7.712149885225756,0.0788755208625262
10.041900000000002,7.73785232970508,0.078649216189873
10.044288000000002,7.765696644557683,0.0784036621665875
10.046668,7.798336556836037,0.0781338733456843
10.049072,7.826739950196078,0.0778655282162612
10.051456000000002,7.852908925384227,0.0775848018836202
10.053836,7.874561842400344,0.0773182260498827
10.056232,7.893700801990846,0.0770519182491559
10.05862,7.912188135275292,0.0767799141003206
10.061,7.926299180014565,0.0765139048120584
10.063396,7.937756497701364,0.0762524629704042
10.065784,7.944837526842991,0.0759974992999392
10.068164,7.954851822290814,0.0757277204800775
10.07056,7.960070520312885,0.0754807485848249
10.072948,7.965988066469257,0.0752057942747382
10.07534,7.970462590386654,0.0749221152029813
10.077744,7.978010150237106,0.0746196438902415
10.080128000000002,7.985977018968137,0.0743009254389246
10.082508,7.992640635087053,0.0739674240474451
10.084912,7.993717257847299,0.0736515716987756
10.087296000000002,7.996144355047904,0.0733187058774773
10.089676,8.002203566689007,0.072946525031662
10.09208,8.00761115202405,0.0725663404989377
10.094464000000002,8.013857355120253,0.0721561999340876
10.096844,8.020662636723898,0.0717232228914084
10.099248,8.031472119820378,0.0712699425576864
10.101632,8.04256114217058,0.0708055924528253
10.104012,8.055000638961138,0.07032327338711
10.106408000000002,8.064786408699222,0.0698438557882199
10.108792,8.07764521437036,0.0693457459544331
10.111172,8.09213403373558,0.0688178523542791
10.113576000000002,8.103270277914023,0.0683151821858061
10.11596,8.11282373022663,0.0678088555629489
10.11834,8.122936261046679,0.0672792037881059
10.120744000000002,8.13011552556053,0.0667613312487444
10.123132000000002,8.136503394141464,0.0662421081527265
10.125508,8.13609356455023,0.0657492041464184
10.127912000000002,8.134612799772357,0.0652638188741633
10.130300000000002,8.1351341357409,0.0647709506245083
10.13268,8.142453169881614,0.0642536401149584
10.135080000000002,8.143626132156216,0.0637703998418814
10.137468000000002,8.138093944057266,0.0633417637414921
10.139848,8.134424087077871,0.0629098044212371
10.142252,8.124468388605507,0.0625144604386447
10.14464,8.11460523793176,0.0621480423168971
10.14702,8.101529281698099,0.0618029727779593
10.149416,8.089104951770492,0.0614663309003236
10.1518,8.074910838521948,0.0611625740967656
10.15418,8.062159747512379,0.0608706269710247
10.156576,8.051922613928426,0.0605853270459452
10.15896,8.042709193702867,0.0603284416134014
10.161356,8.043646046836253,0.0600257020770989
10.163752,8.043884051835338,0.0597493941447413
10.16614,8.046356475006316,0.0594898403939667
10.16852,8.053065417095608,0.0592392159888682
10.170924,8.05721317993104,0.0590171980597051
10.173312,8.064526526498145,0.0588099592065761
10.175692000000002,8.069558233065113,0.0586203961852765
10.178096,8.070957825191584,0.0584667628233084
10.180484,8.069936007691059,0.0583373499016489
10.182860000000002,8.071847456496727,0.0581987520121793
10.18526,8.079625437914787,0.0580426510173568
10.187644,8.086192714519347,0.0578987560485467
10.190024,8.099138380415496,0.0577521386907725
10.192432,8.11529685187156,0.0575870974747201
10.194816,8.131455323327625,0.0574221608269681
10.197196000000002,8.145751463664132,0.0572594886298985
10.199592,8.161398078441,0.0570802925689449
10.201984,8.177836089150784,0.056905865832966
10.20436,8.190549437621454,0.0567366899360223
10.206764,8.204613260532485,0.056552290465549
10.209152,8.211460076390765,0.0564013541356149
10.211532000000002,8.220728301876044,0.0562289063884162
10.213928,8.229344901055264,0.0560477075808813
10.216316,8.236238938741787,0.0558637966663294
10.218696,8.24648555161509,0.0556572649487065
10.221092,8.260364278928884,0.0554192382985123
10.223480000000002,8.281460013295431,0.0551516184298113
10.22586,8.302835286915698,0.0548736329297322
10.228264,8.32034612866999,0.054603236536294
10.230648,8.337437661543703,0.0543484143413852
10.233028,8.34973359699166,0.0541029424526273
10.23542,8.3629606979994,0.053857526340794
10.237804,8.369669640088691,0.0536168174041045
10.240200000000002,8.373445315871786,0.0533837232649418
10.242596,8.37708122202802,0.0531552943748909
10.244980000000002,8.38337085523673,0.0529299505542316
10.247376,8.392314215497915,0.0527089811573642
10.24978,8.396322208706486,0.0525001875518189
10.252164,8.398700188220978,0.0523163988857371
10.254544,8.397446053294974,0.0521646483992895
10.256948,8.39684354467503,0.0520218609241788
10.259332,8.39223683456225,0.0518913706090206
10.261712,8.387350585195751,0.0517708679436171
10.264116,8.380322465455972,0.0516611182751808
10.266504,8.371804101648978,0.051571877487724
10.26888,8.359793393028344,0.0515089697212533
10.271284,8.342288238847662,0.0514778514625632
10.273672,8.325434710973035,0.0514560086094519
10.276052,8.314447715710799,0.0514216482432917
10.278456000000002,8.302669324515644,0.0513826380229654
10.280844000000002,8.293684429999825,0.0513422982892592
10.283224,8.28162649955095,0.0513128789994098
10.285628,8.276366267274243,0.0512707507085386
10.288012000000002,8.275901632423288,0.0512220683971519
10.290392,8.275436997572333,0.0511732887032607
10.292796,8.276322837161738,0.0511096601580137
10.295184,8.273204475258309,0.0510571111185775
10.297564,8.278234285967406,0.0509779706547916
10.29996,8.288758542236558,0.0508684181697227
10.302344000000002,8.300912812199789,0.0507341039273035
10.304728,8.314277786976518,0.050589589427345
10.307124000000002,8.329085783992223,0.0504590889335358
10.309508,8.340680975448011,0.0503435641648221
10.311888,8.35334710209044,0.0502225416703794
10.314284,8.364150897613312,0.0501017348917899
10.316668,8.373092362016628,0.0499811457449468
10.319048,8.384455236046941,0.0498403873093429
10.321452,8.396097649330974,0.0496898963347238
10.32384,8.400942364442837,0.049550843560504
10.32622,8.40685801474134,0.04940663416881
10.328616,8.40876946354701,0.0492728275540009
10.331004,8.407607876419624,0.0491485440499725
10.333384,8.403373253359181,0.0490352720117563
10.335788,8.39206139287285,0.0489432427287146
10.338172,8.381540928319438,0.0488558774015588
10.340552,8.36673672301947,0.04878880675411
10.342948,8.347136920293751,0.0487270786835914
