Time,Force,Position
8.560723999999999,5.227753113061693,0.1539897759343255
8.56312,5.243301492466336,0.1538582416132054
8.565503999999999,5.26201545560265,0.1536978203668146
8.567884,5.283522915418299,0.1534855613235141
8.570288,5.299722921128999,0.1533610144168552
8.572676,5.319275502026474,0.1531374871885781
8.575052,5.337664599938695,0.1529011830018238
8.577447999999999,5.358382559679295,0.1525472411806267
8.579836,5.379659597927336,0.1521635610628318
8.582232,5.403637585056094,0.1516862297848799
8.584636,5.422959744385961,0.1512982076212856
8.587019999999999,5.444423774089106,0.1508581815543221
8.589404,5.460021271179861,0.1505401332782103
8.591804,5.487863690174594,0.1499787239368127
8.594192,5.521804959207194,0.1493122750385667
8.596572,5.556258084918992,0.1486702310607726
8.598968,5.597741226228435,0.1479295528668277
8.601351999999999,5.640435072351377,0.1471599049409611
8.603731999999999,5.67917193880973,0.1464243921867834
8.606136,5.705803652990964,0.1459133779618401
8.608524,5.734903998627439,0.1452915640494808
8.610904,5.754320601613793,0.1448257037000083
8.613299999999999,5.77271349124175,0.1443395396720151
8.615684,5.786171013817096,0.1439487806084409
8.618063999999999,5.804284364191335,0.1434823699543405
8.620467999999999,5.828404016804823,0.1429048211828561
8.622855999999999,5.854525770164728,0.1422956049645876
8.625236,5.878365883524496,0.1417488116562737
8.62764,5.895780385764434,0.141347908869021
8.630023999999999,5.9095627735638745,0.1410460156164094
8.632404,5.925347262109732,0.140705610458419
8.634803999999999,5.942621994722809,0.1403204008427345
8.637188,5.963621389574999,0.1398748625132409
8.639567999999999,5.979685417374576,0.1395201387854249
8.641971999999999,5.996168754054737,0.1391390838420168
8.644359999999999,6.008695111070305,0.1387870707507649
8.64674,6.014610761368807,0.1384993375507996
8.64914,6.014939418308639,0.1382957721928931
8.651527999999999,6.012567126367754,0.1381734270572145
8.653908,6.018575324464874,0.1379187687272474
8.687348,5.928178675946452,0.1378568056762719
8.689744,5.920451708072374,0.1378482382288033
8.694524,5.909234291242529,0.1377888863322693
8.696919999999999,5.907139642697495,0.1377858810047829
8.699323999999999,5.915707124190603,0.1376027377543811
8.701711999999999,5.923250892325315,0.1373970524459902
8.704087999999999,5.932284904527247,0.1371421142715825
8.706484,5.94010821191568,0.1369173050628413
8.708872,5.953658282289646,0.1366034218533534
8.711248,5.964834164864854,0.1363038996018516
8.713643999999999,5.973635859641309,0.1360195834400515
8.716028,5.979876375163907,0.1358060142135562
8.718423999999999,5.992215740724372,0.1355232529243107
8.720816,6.008000229270229,0.1352076224886667
8.723203999999999,6.024995422629585,0.1348636754021363
8.725584,6.039569206361945,0.1345839371116984
8.727979999999999,6.056889264945394,0.134313247155171
8.730364,6.083101670246048,0.1339375552526561
8.732747999999999,6.109453845173562,0.1335527098738914
8.735152,6.135993011556176,0.1331152042268523
8.73754,6.156805414953264,0.1327676723429589
8.73992,6.173473847230655,0.1324983710863994
8.742315999999999,6.193215315441103,0.132169944743538
8.744703999999999,6.212864235852935,0.1318029593241538
8.747084,6.227485241413537,0.1314852416735777
8.74948,6.236751571040947,0.1312734500120023
8.751868,6.24839208846711,0.1310515591245762
8.754252,6.264967972945886,0.1307515819521121
8.756651999999999,6.275817094439132,0.1305363305909823
8.759039999999999,6.289599482238572,0.1302766457094922
8.76142,6.306035597090488,0.1299901177307691
8.763824,6.3276866182487375,0.1296108911665071
8.766207999999999,6.3453806597423945,0.1292525416210038
8.768588,6.354973750451768,0.1289857703441938
8.770992,6.360702409295166,0.1287755509295484
8.77338,6.367641772952064,0.1285374967860517
8.77576,6.372626257690788,0.1282863547229944
8.778156,6.369649561272087,0.1281175581527458
8.780543999999999,6.36695240410711,0.1279323104530175
8.782924,6.36411547731527,0.1277557169892225
8.785328,6.364211816829624,0.1275359014954685
8.787711999999999,6.367520961903896,0.1272565477020785
8.790092,6.369247315112331,0.1269833610709665
8.792499999999999,6.374838100186739,0.1266584002205741
8.794884,6.378147245261011,0.1263802906111758
8.797264,6.385740131081837,0.1260228964676311
8.799667999999999,6.388025562797713,0.1257182642157215
8.802055999999999,6.386586332274475,0.1254602660402816
8.804435999999999,6.387288972124515,0.1251628216644525
8.806828,6.385617424175799,0.1248755986286205
8.809216,6.378498652495275,0.1246470661002825
8.811596,6.367375679321917,0.1244793913122853
8.813991999999999,6.361560160253508,0.1242614123061501
8.816379999999999,6.362123030476688,0.1239735653095597
8.818776,6.364967540700004,0.123638769894673
8.821176,6.364739014990265,0.1233529677944554
8.823564,6.364882576332864,0.1230882443534137
8.825944,6.368611030287715,0.1227857741474651
8.828339999999999,6.375272750548762,0.1224444611703554
8.830727999999999,6.380583996369449,0.1221392221919444
8.833108,6.385615702936416,0.1218513129350911
8.835507999999999,6.389296935063026,0.1215989187662397
8.837895999999999,6.398565160548305,0.1212841576384962
8.840271999999999,6.4008959182345535,0.1210679842076727
8.842668,6.406020172600139,0.1208200239641814
8.845051999999999,6.40700045584603,0.1206375167092639
8.847444,6.409843070211478,0.1204328641023206
8.849839999999999,6.413197541256123,0.120241265624833
8.852228,6.414782228979828,0.120107978565422
8.854607999999999,6.415947607822953,0.1199985177982831
8.857012,6.420558109651472,0.119861523561909
8.859395999999998,6.425028841853129,0.1197321407102347
8.861775999999999,6.424703976629034,0.1196651488753756
8.864172,6.423447945845162,0.1196089950028468
8.866556,6.422843541367346,0.1195583380964062
8.868939999999998,6.429176604688561,0.1194119105338939
8.871343999999999,6.440864343942968,0.1191778952332706
8.873728,6.451760687264455,0.1189462241507369
8.876107999999999,6.457721663533333,0.1187814825762928
8.878504,6.46289124386929,0.118618751042596
8.880887999999999,6.465407097152775,0.1184781346686203
8.88328,6.468993885622896,0.1183200183540716
8.885676,6.4668539111074885,0.1182298929652386
8.888064,6.4717911740179686,0.1180401233185495
8.89044,6.478730537674867,0.1178249819427877
8.892847999999999,6.493398765063712,0.1175187377722347
8.895232,6.5116518850648095,0.1171839660352917
8.897616,6.533397349879545,0.116786107461192
8.90002,6.558635159507915,0.1163226946912011
8.902403999999999,6.585735300255841,0.1158412226467267
8.904784,6.616839642496601,0.1153125478447908
8.907179999999999,6.647012819177584,0.1147897364431149
8.909568,6.677837622164624,0.114271479177975
8.911947999999999,6.709873129965164,0.1137341887258423
8.914344,6.741257011459645,0.113194203282618
8.916732,6.765843194781956,0.1127379128225219
8.919124,6.784003766984438,0.1123844127564809
8.92152,6.802676195866118,0.1120436680976523
8.923907999999999,6.82507328698691,0.111667962285174
8.926288,6.851334809973675,0.1112522685534695
8.928692,6.881460764826414,0.1107952119079005
8.93108,6.91372859005243,0.1103119692053664
8.93346,6.952002717517697,0.1097598899829136
8.935863999999999,6.982268441997296,0.1093069340450219
8.938248,7.003734367558309,0.1089500292932943
8.940631999999999,7.018542364574015,0.1086623376499646
8.943028,7.030836404164105,0.1083877521730034
8.945416,7.036053206328307,0.1081997670184255
8.947795999999999,7.038756051066894,0.1080228932177321
8.950192,7.04252983099212,0.1078318748414857
8.95258,7.042578948678232,0.1076740732673647
8.95496,7.047842972670677,0.1074492783003079
8.957355999999999,7.055807945543839,0.1071682068889838
8.959743999999999,7.058837551364391,0.1069399682576585
8.962124,7.062518783490999,0.1067185515208663
8.964519999999998,7.069273051550663,0.1064602012961947
8.966908,7.076865937371489,0.1061597653432111
8.969304,7.083946966513116,0.1058457855056839
8.9717,7.084230297482575,0.1055985309544512
8.974084,7.0790664047202245,0.1053906726175367
8.976464,7.068175748972344,0.1052354876821603
8.981247999999999,7.024511098892857,0.1051623918389328
8.983632,7.005332500905588,0.1051095599566169
8.986035999999999,6.9992374425834605,0.1049084555407956
8.988424,6.996215420194387,0.1046704861307096
8.990803999999999,6.992774088924733,0.1044534429365778
8.9932,6.995339059894329,0.1041698391613104
8.995588,6.997205182729624,0.1039205962544755
8.997968,6.997348744072224,0.1036803344539639
9.000376,6.999494406161238,0.1034193409195326
9.002759999999999,6.9982874930634775,0.1032089732896459
9.005139999999999,6.990654968845886,0.1030829476924123
9.007532,6.986747106867408,0.1029276027289826
9.00992,6.983910180075568,0.1027586995596544
9.0123,6.981724879589785,0.102596954113723
9.014704,6.980563292462398,0.102462010898764
9.017088,6.9814038060814285,0.1023063843821405
9.019468,6.9914634274996255,0.1020472468184265
9.021872,7.004968171903216,0.1017735481259516
9.02426,7.024059909665475,0.1014572634245496
9.02664,7.051671907092599,0.1010712949841496
9.029036,7.081845083773582,0.1006357443841974
9.031424,7.108945224521508,0.1002365108225789
9.033804,7.124824156723852,0.0999644655422555
9.0362,7.140283780045615,0.0997143075840559
9.038584,7.158816439300433,0.0994323440317954
9.04098,7.177069559301532,0.0991667705362189
9.043384,7.197604319302768,0.0988681973700498
9.045772,7.217719770423423,0.0985903486598557
9.048152,7.233691250424383,0.0983593535007531
9.050548,7.250082039305924,0.0981090073451785
9.052932,7.274621000799994,0.0977741266957578
9.055316,7.298228796734285,0.0974469415535034
9.057712,7.319834491922158,0.0971412441808654
9.060099999999998,7.337715524870919,0.0968615519023813
9.06248,7.354944931513621,0.0965755703676875
9.06488,7.375759230768578,0.096275354413268
9.067268,7.39242955890384,0.0960227209774196
9.069648,7.408028951852464,0.0957832303344928
9.072052,7.425770215174365,0.0955223949277407
9.07444,7.437784715510737,0.0953046481106882
9.07682,7.450590611780025,0.095088500417619
9.079224,7.469682349542284,0.0948088795542279
9.081608,7.493849223984016,0.0944802935174369
9.083988,7.516433306559911,0.0941511000119682
9.086392,7.533290626150275,0.093863195373169
9.08878,7.546423283501527,0.0935984026469712
9.09116,7.557693609733222,0.0933455279803462
9.093564,7.568963935964917,0.0930926533137211
9.095948,7.581305197383251,0.0928267450293447
9.098332,7.593366919547864,0.0925740389552403
9.100728,7.597280469099951,0.0923980652227553
9.103116,7.599471457159339,0.0922267044369221
9.105496,7.598868948539394,0.0920716337751572
9.1079,7.601199706225645,0.0918932856947142
9.110284,7.603810003165615,0.0917025300483146
9.112668,7.597620501187,0.0915809707989141
9.115064,7.591011690327805,0.0914782705648661
9.117452,7.585753353908967,0.0913511960665988
9.119832,7.5747682545046,0.0912631041264965
9.122228,7.565925025473509,0.0911512844483595
9.124616,7.556290400509501,0.091038403847178
9.126996,7.538507602932964,0.090998814693898
9.1294,7.522726906102845,0.0909416629504798
9.131788,7.508156914086225,0.0908663560039968
9.134168,7.497591123562437,0.0907576853579674
9.136564,7.490238138598567,0.0906147548526221
9.138952,7.483816319194475,0.0904664608449238
9.141332,7.477022412738045,0.0902983582144537
9.143728,7.473441311841531,0.0900967857221552
9.146116,7.473073016504931,0.0898627535882762
9.148496,7.478990562661303,0.0895679707345487
9.150892,7.489703706243427,0.0892434681041456
9.15328,7.505491986505023,0.088876517270422
9.15566,7.520349101206841,0.0885157281586031
9.15806,7.536137381468436,0.0881517939747432
9.160448,7.559422208036502,0.0877125414479506
9.162828,7.583405882738869,0.087243798193581
9.16522,7.607389557441237,0.0867781287731236
9.167608,7.632164628076521,0.0863125048155341
9.17,7.658522490577641,0.0858522080877653
9.172396,7.680596612332208,0.0854324310003554
9.174784,7.703741669273413,0.0849988709108368
9.177164,7.719949258415589,0.0846164577075494
9.179568,7.734526833863688,0.0842691596472409
9.181952,7.748964639684925,0.0839298433573274
9.184332,7.760049870319387,0.0836286550766473
9.186736,7.774068367260043,0.0833099800069189
9.189124,7.790740591253175,0.0829856603688302
9.191504,7.802197908939974,0.0827076138660433
9.193908,7.80844032032044,0.0824762082558856
9.196292,7.811609695767851,0.0822704436345371
9.198672,7.80984370416265,0.0820982987748192
9.201076,7.805796072557311,0.0819527381346951
9.203464,7.801888210578832,0.08180125460449
9.20584,7.794907312667298,0.0816737685993828
9.208244,7.78322336512863,0.0816037382960669
9.210632,7.77205127426916,0.0815469042035464
9.213012,7.758597543409552,0.0815153871507215
9.215408,7.743141711803526,0.0814978326374091
9.217796,7.724100987585249,0.0814900777866545
9.220176,7.710135400046444,0.0814446423521796
9.222572,7.700313783627331,0.0813651349848402
9.224956,7.696638239074332,0.0812379146079369
9.22734,7.698317370454524,0.0810621844303597
9.229736,7.6993448755286575,0.0808791266367149
9.232124,7.703445416535847,0.0806726587355387
9.23452,7.701819194557506,0.0804952904086459
9.236916,7.69725970627297,0.0803353530993971
9.239304,7.693771153175072,0.0801649016377972
9.241684,7.695497506383507,0.0799524671889793
9.244076,7.699086190711498,0.0797327530393415
9.246464,7.704676975785906,0.0794993636350937
9.248844,7.707474264180981,0.0792764682703822
9.251248,7.707989912575917,0.0790782661706923
9.253636,7.708505560970852,0.0788791724474755
9.256016,7.710651223059867,0.0786467516120683
9.258412,7.711214093283047,0.0784102368814246
9.260796,7.71019417164039,0.0781683097686196
9.26318,7.71252682518451,0.0778907578544735
9.265576,7.716721809848186,0.0776053349843307
9.267964,7.719194233019164,0.0773217823756736
9.27036,7.719385016190006,0.0770642299509226
9.272756,7.71850486417421,0.076817352991
9.275144,7.710687244359384,0.0766129169227472
9.277524,7.702310546037117,0.0764317071271048
9.279924,7.693002682155073,0.0762539779079344
9.282312,7.687559250139001,0.076056296098259
9.284692,7.68104488293629,0.0758671872230606
9.287096,7.679745422039914,0.0756381918545095
9.289484,7.672719198158006,0.0754349873246314
9.291864,7.665692974276099,0.0752321494157961
9.29426,7.656804419274635,0.0750352823012448
9.296648,7.651920065766006,0.0748134399397638
9.299028,7.650388287444152,0.0745586202099398
9.301424,7.653000480241991,0.0742739912935191
9.303812,7.653331033039693,0.074012637454812
9.306192,7.652590650650756,0.0737594973076862
9.308588,7.657577031247349,0.0734822464188159
9.310976,7.666288074083056,0.0731950958463028
9.313356,7.675930282478541,0.0729058205749045
9.315756,7.690507857926639,0.072592841217214
9.318148,7.704573576695538,0.0722660600519127
9.320524,7.716637194718022,0.0719514130729135
9.322932,7.731773848673559,0.071616249546418
9.325316,7.743325610016845,0.0712850641232307
9.327696,7.75515691061385,0.0709433452077015
9.330092,7.7660570456510785,0.0706057110693348
9.33248,7.780030216621359,0.0702486697868722
9.334855999999998,7.790930351658586,0.0699135947751486
9.337264,7.805415379308067,0.0695735081525858
9.339648,7.81817784546485,0.0692337835802197
9.342028,7.835735909047386,0.068876923011128
9.344432,7.853154203003061,0.0685275701428197
9.34682,7.870432727331876,0.0681860259415039
9.3492,7.88864241722047,0.0678458475582256
9.351596,7.910064912668978,0.0674826098613285
9.35398,7.935072300729741,0.0671162731929267
9.35636,7.958357127297806,0.0667526098485558
9.358764,7.977637752373039,0.0664118117060578
9.361152,7.994124880768936,0.0660777860791627
9.363532,8.006328268418278,0.0657764128727379
9.365927999999998,8.016110246440626,0.0654998431691451
9.368316,8.025612685209248,0.065233644120583
9.370712,8.036046289537653,0.0649664130721626
9.373108,8.052346426478445,0.0646760776624636
9.375496,8.067156319352021,0.0644096281107489
9.377876,8.083688773718292,0.0641460796113535
9.38028,8.100221228084562,0.0638841546997439
9.382664,8.115403208010475,0.0636403242670439
9.385044,8.126580986443553,0.0634144049241221
9.38744,8.137479225622911,0.0631991137489108
9.389832,8.144513032936295,0.0629975426456824
9.392212,8.150615674689902,0.0627983321242085
9.394616,8.153645280510453,0.0626151370930713
9.397004,8.150528814464893,0.0624638658180604
9.399384,8.145270478046056,0.062326649141316
9.401788,8.1404314505078,0.0621741208217318
9.404172,8.132379617409628,0.0620420921392066
9.406552,8.123396618751677,0.0619114054223994
9.408948,8.1194887567732,0.0617570802454256
9.411336,8.11572066442158,0.0615975055716549
9.413716,8.117027708749434,0.0614144190236217
9.41612,8.11982499714451,0.0612087692494685
9.418508,8.122622285539581,0.0610039185359548
9.420888,8.12276584688218,0.0607986810940228
9.423292,8.127332918598194,0.060562661498847
9.42568,8.126964623261594,0.060343689061076
9.42806,8.126316788671275,0.0601356981688858
9.430464,8.127950594081094,0.059909676636141
9.432852,8.134939075424104,0.059651384077516
9.435232,8.144069427140392,0.0593805950734364
9.437628,8.1522686132969,0.0591105052590701
9.440016,8.16060756908027,0.0588357410475693
9.442396,8.172019560796695,0.0585471317767075
9.444792,8.185573422886398,0.0582446173699895
9.44718,8.201920781655433,0.057939491441666
9.449564,8.21226183818522,0.0576568115797907
9.45196,8.225536161021202,0.0573655703159332
9.454344,8.23946211016324,0.0570834783927458
9.456728,8.24710221781231,0.0568344411139831
9.459124,8.255813260648017,0.0565799444513955
9.461512,8.262661972364167,0.0563286598659078
9.463892,8.268160209639959,0.0560938720286792
9.466288,8.270585410982696,0.0558722401192124
9.468676,8.276595504937683,0.05565292451123
9.47106,8.279532562959618,0.0554476844459077
9.473464,8.286893131354965,0.055213529249068
9.475852,8.292670907884476,0.0549712105092303
9.478232,8.29751751885421,0.0547304036112719
9.480628,8.299942720196944,0.0545121502356125
9.483016,8.300365820793264,0.0543005877141237
9.485396,8.305584518815333,0.0540810548382716
9.4878,8.310942986464266,0.0538570045653522
9.490188,8.315370288553417,0.0536342284971971
9.492568,8.32072875620235,0.053410872256136
9.494972,8.325435597545223,0.0531793288896026
9.49736,8.336148741127348,0.0529296022514143
9.49974,8.345139323216776,0.0526764460572575
9.50214,8.352966422320948,0.0523993911183643
9.504524,8.365868658104592,0.0521051723545662
9.506908,8.371693656462346,0.0518325664691636
9.509304,8.376307950006602,0.0515703429556273
9.511692,8.383995279483912,0.0512975760428199
9.514072,8.392753544147864,0.0510187963558819
9.516468,8.394294801759063,0.0507673490396891
9.518856,8.392623253810347,0.0505312575492983
9.521236,8.388390526607775,0.0503208721443397
9.523632,8.386811526457679,0.0501148211756532
9.52602,8.382811116680584,0.0499288373996262
