Time,Force,Position
8.972468,5.324153107857064,0.1545045300241422
8.974864,5.323781020804726,0.154481536041157
8.977252,5.331277567111195,0.1542856891239396
8.979648000000001,5.33612038636519,0.1541328272224509
8.982043999999998,5.342313680059544,0.1539304983997972
8.984431999999998,5.349949995992874,0.1537238774420046
8.986812,5.36531517565815,0.1533483813376793
8.989211999999998,5.384916874241737,0.1529109401912169
8.991595999999998,5.402049941370084,0.1526150904658457
8.99398,5.420578808909164,0.1523726629557153
8.996375999999998,5.44669677055333,0.1519803461948285
8.998763999999998,5.470720083652464,0.1515959612756067
9.001144,5.488504777086868,0.1513116747253523
9.003543999999998,5.507779714588493,0.1509696236042656
9.005935999999998,5.529895370597696,0.1505292546381487
9.008316,5.550847543621643,0.1500758839751318
9.010711999999998,5.577294162205642,0.1494753910366545
9.013099999999998,5.603089154483584,0.1488702992853586
9.01548,5.634099053067859,0.1481531239406176
9.017875999999998,5.666179886838771,0.1474223241135354
9.020264,5.695327454303488,0.1467573096315361
9.022644,5.719911741767931,0.1462142834700547
9.02504,5.733274820686791,0.1459149349354683
9.027428,5.7502227922179046,0.1455601341223144
9.029823999999998,5.77224590042849,0.1451028105076926
9.03222,5.794036691213599,0.1446184421871262
9.034608,5.812894215692512,0.1441920617940855
9.036988,5.828446386812892,0.1437999937150394
9.039383999999998,5.839389951962624,0.1434365926689993
9.041771999999998,5.846144220022288,0.1430745038879363
9.044152,5.84973290435028,0.1427399621894866
9.046551999999998,5.849177617558577,0.1424937342857226
9.048939999999998,5.849413726699793,0.142239165163187
9.05132,5.85444543326676,0.1419011046980909
9.053719999999998,5.8562643342738125,0.1416393461644801
9.056103999999998,5.858734861586923,0.1413813722618373
9.058488,5.8566421088997584,0.1412391034721067
9.060883999999998,5.85571283919785,0.141113168670343
9.063271999999998,5.851058907256828,0.1410475930927526
9.065656,5.84361147863647,0.1410253186432714
9.068047999999996,5.836443589269834,0.1409842584677403
9.070436,5.829275699903197,0.1409440877306413
9.072831999999998,5.834679493522501,0.1406339881230915
9.075228,5.841992840089604,0.1402502242358617
9.077616,5.839714991805206,0.1400295519821214
9.079999999999998,5.831942697960755,0.1399349946367182
9.082396,5.8265445919150585,0.1398241866155531
9.084784,5.8283162710938665,0.1396167390705046
9.087167999999998,5.833672842884928,0.1393610067802539
9.089564,5.84433686878094,0.1390406580143903
9.091952,5.849459227288655,0.1388920152920252
9.094335999999998,5.85974927027446,0.1386830170557619
9.096732,5.876837011432433,0.1383562281591534
9.09912,5.887266824045098,0.1381426174329523
9.101503999999998,5.8962536144187885,0.1379301023636421
9.1039,5.904681326285036,0.1377540552212494
9.106288,5.919906736323453,0.1374618703593845
9.108667999999998,5.937041699309669,0.1370950858134222
9.111064,5.948589668937215,0.136811251316733
9.113452,5.9601376385647615,0.1365283808940443
9.115831999999996,5.972429782296983,0.1362898430017975
9.118232,5.990308919387875,0.1359670299993714
9.120615999999998,6.001902214985796,0.135776912567123
9.122999999999998,6.009351539464021,0.135669899877994
9.125396,6.022248087674058,0.1354893066097861
9.127783999999998,6.044456291481878,0.1351731264452612
9.130167999999998,6.068014969730055,0.1348204860803864
9.132564,6.083612466820809,0.1345648407314725
9.134948,6.097766941672586,0.1343117361243899
9.137344,6.111130020591447,0.134069375511835
9.139748,6.133479889883996,0.1336282065295482
9.142136,6.1575995424974845,0.133129788188785
9.144516,6.180695481752577,0.1326181379481751
9.146912,6.206212830634668,0.1320503360316706
9.149296,6.235826928808209,0.1314582373706784
9.151675999999998,6.267722666981888,0.1308204933418089
9.15408,6.294962577356675,0.1302481806552385
9.156468,6.322062718104602,0.129691736060767
9.158848,6.352747751464783,0.1290913238436759
9.161244,6.38408441113102,0.1284980074723024
9.163628,6.415048983744921,0.1278841064799206
9.166011999999998,6.4440586774406485,0.1272627880435695
9.168412,6.471765118524258,0.1266303414783539
9.1708,6.497469458861452,0.1260271130131413
9.17318,6.521311468079088,0.1254472746598872
9.175584,6.539985792818637,0.1249185123053721
9.177972,6.5526538153189335,0.1244813979327064
9.180352,6.569837895991264,0.1239947338658616
9.182756,6.586462898156151,0.1235411612218968
9.185144,6.592658087708374,0.1232650936436194
9.187524,6.598433968380017,0.1230171961187349
9.18992,6.598994942745327,0.122858324303533
9.192308,6.598857068976337,0.1227407182136524
9.194688,6.5985794255804855,0.12263146762615
9.197092,6.594716889572382,0.1225574064498431
9.199476,6.587129691325164,0.122525710755361
9.201856,6.582475759384142,0.122454238043303
9.204252,6.576890661883342,0.122393097619004
9.206636,6.571445334009401,0.1223241661337986
9.209015999999998,6.563346279082985,0.122278665063407
9.21142,6.553245123410154,0.1222618993516821
9.213808,6.544447220349437,0.1222544347380484
9.216188,6.538023505087475,0.1222390424769616
9.218588,6.534672825758569,0.1221771697295046
9.220976,6.535605887176216,0.1220436599298416
9.223356,6.537050805273061,0.1219229675629713
9.225752,6.546504126355575,0.1216901897944291
9.22814,6.55409511631853,0.1214788603362254
9.23052,6.562245184788927,0.1212371695150908
9.232924,6.57961436105849,0.1208542147726138
9.235308,6.592048170275442,0.1205390699007101
9.237692,6.604342209865533,0.1202289180003861
9.240088,6.606765515350399,0.1200516582114033
9.242476,6.60597601527535,0.1199290944524375
9.244856,6.605186515200301,0.119806239343172
9.247252,6.605840037364228,0.1196856460406946
9.24964,6.601418422848683,0.1196412014261867
9.252020000000002,6.5949947075867215,0.1196254782279768
9.254424,6.589641927511397,0.1195911845952663
9.256812,6.588013809675188,0.1195151982541036
9.259192,6.590809202212392,0.1193587763209078
9.261588,6.589879932510483,0.1192436962059319
9.263972,6.590301137248932,0.1190956365641092
9.2831,6.516984646457007,0.1190362085561042
9.285488,6.507535117090233,0.1190181295191281
9.287868,6.509446565895902,0.1188301687552483
9.290264,6.514291281007766,0.1186046320966495
9.292652,6.518065060932991,0.1183957095195542
9.295032,6.5219786104850765,0.1181789559751594
9.297436,6.532178001530133,0.1178642237200946
9.299824,6.54237739257519,0.1175486600123024
9.302204,6.548432812500554,0.1172954323809059
9.304608000000002,6.550623800559944,0.1170900527067784
9.306992,6.554118041231448,0.1168982425569288
9.309376,6.559334843395651,0.1166939964705367
9.311772,6.564272106306132,0.1165068857335079
9.314156,6.573353340336307,0.1162598093565247
9.316536,6.581363639179843,0.1160304432417205
9.31894,6.599104902501743,0.115685564060459
9.321328,6.618708496943201,0.1153224206521719
9.323712,6.640453961757936,0.1149283766667156
9.326108,6.657264059520058,0.1145970929152713
9.328496,6.672583913214962,0.1143031507673659
9.330876,6.687903766909864,0.1140084272457257
9.333279999999998,6.706296656537823,0.11367439525549
9.335664,6.717192999859312,0.1134580766672197
9.338048,6.72794957355394,0.1132502528266048
9.340448,6.74378128392804,0.1129760887212272
9.342835999999998,6.762965569488918,0.1126484439633645
9.345216,6.77758657504952,0.1124020541915259
9.347616,6.797003178035872,0.1121070225043223
9.350003999999998,6.822565852888337,0.1117311452096598
9.352384,6.852272498860495,0.1112997037296263
9.354788,6.876252381847123,0.1109295890430782
9.357176,6.899580638527693,0.1105534067216494
9.359556,6.920115398528928,0.1102043553389246
9.361952,6.937437352970248,0.1099052839275664
9.36434,6.955318385919008,0.1095784214201932
9.36672,6.96747265588224,0.109313028535821
9.369116000000002,6.9786957602856905,0.1090566377793601
9.3715,6.984703958382811,0.1088691944385441
9.373884,6.99178309166657,0.1086655667390504
9.37628,7.002214800137104,0.1084083852643113
9.378664,7.019304437152947,0.1080903012626757
9.381048,7.034252203795512,0.107805997750891
9.383444,7.04989881857238,0.1074832277549534
9.385828,7.062751936669912,0.1071840820817072
9.388212,7.071600853274609,0.1069328256321035
9.390616,7.073512302080278,0.1067585624707014
9.393004,7.0751914334604695,0.1065562177371767
9.39538,7.067139600362298,0.1064548381774144
9.397776,7.054292169838373,0.1063999843668119
9.400164,7.038371703381394,0.1063823213626868
9.402548,7.023522172111052,0.1063499598321754
9.416892,6.921993071129927,0.1063110580851796
9.419288000000002,6.90542097836689,0.1062862373716514
9.421676,6.892061691163768,0.106215328274624
9.42406,6.881775439893702,0.1061061183393949
9.426464,6.864179633772269,0.1060503475167217
9.428848,6.842439856531144,0.1060462082718489
9.431232,6.825867763768107,0.1060168998573403
9.433628,6.815721282124901,0.1058996339826673
9.436016,6.805435030854834,0.105789184086345
9.438396,6.801806708130076,0.1056189888028645
9.440791999999998,6.805627709883546,0.1053906844243671
9.443180000000002,6.814523848316488,0.1051015704078678
9.44556,6.8280758145483205,0.1047763518187202
9.447956,6.84269871596679,0.1044367396948687
9.450344,6.85853232219876,0.1040759899056076
9.452724,6.87543686361737,0.1037027396603005
9.455127999999998,6.896205836901951,0.103291900666413
9.457516000000002,6.914832939813256,0.1029094236886595
9.459896,6.932156790112444,0.1025113297123014
9.4623,6.950272036344552,0.1021109070298343
9.464688,6.969318448136437,0.1017033636480445
9.467068,6.990087421421019,0.1012910228717087
9.469468,7.008434985078605,0.1009239372023385
9.471856,7.022918116870216,0.1005967474103893
9.474236,7.038052874967884,0.1002754179629207
9.476632,7.056260668998608,0.0999167998826913
9.479019999999998,7.071023340043939,0.0995746144972379
9.4814,7.077498068849883,0.0993317334593658
9.483796000000002,7.087185603215742,0.0990478538934645
9.486184000000002,7.0922173097827095,0.0987997153096842
9.488568,7.084584785565118,0.0986689424774627
9.490964000000002,7.0808166932135,0.0985039483802784
9.493352000000002,7.073975564928827,0.098373404133053
9.495736,7.068065602203932,0.0982361120822715
9.498132000000002,7.061876100225316,0.0981122888913627
9.500520000000002,7.055407058992981,0.0980020621441699
9.5029,7.047215456267947,0.0978980540588574
9.505299999999998,7.039955019102694,0.0977871687423012
9.507688000000002,7.037210640109471,0.0976500193557501
9.510068,7.034745800369969,0.0974989761492606
9.512467999999998,7.032280960630467,0.0973479578340723
9.514856000000002,7.02674308495791,0.0972301000863122
9.51724,7.021764287792792,0.0970851042776831
9.519632,7.0145038506275394,0.0969729454172297
9.522016,7.009385283835563,0.0968342811705818
9.524412000000002,7.004546256297306,0.0966820395095107
9.526803999999998,7.003711430251884,0.0964915271766515
9.529191999999998,7.006741036072435,0.0962680150578548
9.531584,7.012052281893123,0.0960147944497601
9.533976,7.021227959579783,0.0957310380095857
9.536359999999998,7.043347407304724,0.0953283312922934
9.53874,7.060391718350193,0.0949773663740933
9.54114,7.075993007156685,0.0946180154144612
9.543527999999998,7.092013604843759,0.0942415291167174
9.545908,7.108453511411413,0.0938463497557148
9.548312,7.125312726859647,0.0934338967049318
9.550696,7.144313812681159,0.0929982074839867
9.553072,7.167598639249225,0.0925166415981832
9.555468,7.191023235444151,0.0920333007711849
9.557856,7.219662737945409,0.0915016202991229
9.560248,7.249373175633306,0.090960753215862
9.562640000000002,7.282296418881117,0.0903864997834043
9.565028000000002,7.311867086942153,0.0898527752155117
9.567424,7.343439855749607,0.0893003490138113
9.569824,7.373801919743563,0.0887685806191396
9.572212,7.4058865452302145,0.0882362289440178
9.574592,7.435829300343588,0.0877327654316456
9.576996,7.466982760270461,0.0872137966613573
9.57938,7.489708508331085,0.0867813239963833
9.58176,7.511363321205072,0.0863635350120605
9.584156,7.523938795906753,0.0860240872310159
9.58654,7.53986684579521,0.0856453919933823
9.588920000000002,7.557377687549502,0.0852690799436795
9.591324,7.572327350049937,0.0849344945786801
9.593708,7.581782566990319,0.084659376322473
9.596092,7.587745439117064,0.0844299252935371
9.598492,7.591566440870534,0.084223024794531
9.60088,7.591103701877449,0.0840606542275161
9.603256000000002,7.587288387697588,0.0839372384630221
9.60566,7.577978627957673,0.0838738780969673
9.608048,7.567458163404261,0.0838270606621199
9.610428,7.552793727731155,0.0838163861171672
9.612832,7.545066759857077,0.0837557012670012
9.615216,7.538690266423359,0.0836721290194227
9.617596,7.53217400336278,0.0835946007659816
9.62,7.523655639555784,0.0835318496576443
9.622384,7.512204009442593,0.0834879962260072
9.624764,7.50047284007568,0.0834558548257373
9.627156,7.492745872201603,0.0833943533855093
9.62954,7.483808199514026,0.0833491958660308
9.631936,7.479805893879062,0.0832702887398378
9.634332,7.476315444923295,0.0832053518081387
9.636716,7.473616391900446,0.0831422595203777
9.639096,7.473710835556933,0.0830666287301928
9.6415,7.483955552572364,0.0829131691432972
9.643884,7.498204471080629,0.0827309405453941
9.646264,7.51324478552181,0.0825506707442919
9.648668,7.528145330336134,0.0823759620362361
9.651052,7.545467284777453,0.0821691447773835
9.653432,7.560787138472356,0.0819752506925253
9.655828,7.577038157727038,0.0817777960659367
9.658212,7.5985040832880495,0.0815364461762604
9.660608,7.611961605863397,0.081352737484816
9.663011999999998,7.621926783625107,0.0812115875496213
9.665396,7.634453140640676,0.0810333594363439
9.667776,7.650332072843019,0.0808210004012766
9.670172,7.669144271351558,0.0805909025027229
9.67256,7.689306944300457,0.080341199558619
9.67494,7.708678221316436,0.0800896716644324
9.677344000000002,7.728748346466718,0.0798095663484318
9.679728,7.7441626438181075,0.079549023519995
9.682108,7.755992048557244,0.0792983081937599
9.684512000000002,7.76959123661732,0.0790105717824574
9.686896,7.78188717206528,0.0787082876097814
9.689276,7.790458445274126,0.0784239553226601
9.691684,7.796655530684219,0.0781338572707425
9.694068,7.8059256520273665,0.0778234077250766
9.696448,7.817477413370652,0.0774892638896222
9.698852,7.828098009154159,0.0771598205929958
9.701236000000002,7.842210949751301,0.0767906740004715
9.703616,7.853018536989911,0.076417719731827
9.706012,7.857307965310073,0.0760686994141463
9.7084,7.869093939936704,0.0756566684719394
9.71078,7.884512029003832,0.0752006102533668
9.713184000000002,7.895786146951265,0.0747759259242477
9.715568,7.901053962659448,0.0743884185671538
9.717952,7.905530382434714,0.0739993838492108
9.720348,7.9050714351573665,0.073637212095658
9.722736,7.905683423066657,0.0732662113607801
9.725112,7.90494493653559,0.07291521493794
9.727516,7.909421356310856,0.0725269022614223
9.729904,7.912826840899482,0.072145146088463
9.732284,7.915021620674611,0.0717798446221957
9.734687999999998,7.915074530076462,0.0714311065417039
9.737075999999998,7.913776965037953,0.0711027372707086
9.739456,7.912199860745725,0.0707851245519278
9.741852000000002,7.905966928654605,0.0704817720255072
9.744236,7.894938399137733,0.0701965804580154
9.74662,7.886051739994139,0.06989534464272
9.749020000000002,7.877816707156601,0.0696029086605064
9.751408,7.876099833237512,0.0692930492917422
9.753788,7.880761348610012,0.0689712266685229
9.756184,7.878997252862679,0.0686977401630263
9.758572,7.874951517115211,0.0684458107195438
9.760952,7.869695076554244,0.0682059706715128
9.763348,7.86709236304575,0.0679636733976646
9.765736,7.864349879910397,0.0677270391579425
9.768116,7.864121354200658,0.0674936174564546
9.770512,7.864823994050697,0.0672583791199054
9.7729,7.865107325020157,0.0670392769484267
9.775296,7.859616671175842,0.0668760252024014
9.777696,7.857199053264583,0.0666941806263409
9.780080000000002,7.849286989793271,0.0665567168018168
9.78246,7.844959818934212,0.0664156139981877
9.784864,7.839841252142236,0.0662710280697316
9.787248000000002,7.835514081283177,0.0661295798258234
9.789628,7.829696666356899,0.0660120238692183
9.792032,7.82932647516243,0.0658862640831263
9.794416000000002,7.824253234340827,0.0658087499231198
9.796796,7.819179993519224,0.0657313022164913
9.799192,7.809683242324207,0.0656904618193987
9.801576,7.794040419263079,0.0656845163856567
9.803956,7.781330862508146,0.0656665647615532
9.806352,7.770204097619049,0.0656553079620782
9.808736,7.766154570155841,0.0656068508815052
9.811132,7.763036208252411,0.0655563228705061
9.813528000000002,7.759778076722124,0.0655112878860521
9.815912,7.758661815565111,0.0654512174711741
9.818292,7.757126245527517,0.065407776010255
9.820696000000002,7.759083020303559,0.0653310277937275
9.823084,7.76932773731899,0.0652060732752108
9.82546,7.784228282133312,0.0650730369821032
9.827864000000002,7.803412567694189,0.0649097572739159
9.830252000000002,7.820082895829451,0.0647421507806892
9.832632,7.840617655830687,0.0645629263500852
9.835036,7.863434055832059,0.0643652717746045
9.837420000000002,7.891465362139765,0.0641371048198854
9.8398,7.919776207701191,0.0639004276463595
9.842204,7.949717066956696,0.0636342777422224
9.844588000000002,7.978726760652424,0.0633712361351656
9.846968,8.006293432109173,0.0630950454465952
9.849364,8.03707290912584,0.0627964840665984
9.851752,8.069994256515784,0.0624855851789767
9.854132,8.10254351685339,0.0621564460563515
9.856532,8.128155309391966,0.0618567543151621
9.85892,8.152184310064706,0.0615505214596839
9.8613,8.176632619618028,0.0612293651177968
9.863703999999998,8.197496036559096,0.0609102070914526
9.866091999999998,8.217987366447826,0.060572538550293
9.868472,8.23526589077664,0.0602565931851117
9.870864,8.246677882493067,0.0599623146514018
9.873252,8.251431945664182,0.0596846410275643
9.875648000000002,8.259678353648935,0.0593787493954126
9.878052,8.26671405682019,0.0590838903398413
9.88044,8.271887428871885,0.0587934892007623
9.88282,8.274779160923446,0.0585220237590514
9.885216,8.278741828161643,0.0582462855349967
9.8876,8.279771229093646,0.0579796867848592
9.88998,8.280800630025649,0.0577127945862815
9.892384,8.284903066890708,0.057433819817323
9.894772,8.290867834875323,0.0571524172636743
9.897151999999998,8.300836804352773,0.0568587367392014
9.899556,8.310945543457082,0.0565621613320945
9.901944,8.323847779240726,0.0562647598730997
9.904324,8.3424767780099,0.0559574371490013
9.90672,8.36296810789863,0.0556493551116263
9.909108,8.380106862600586,0.055363256096389
9.911488,8.399107948422097,0.0550757620642419
9.913884,8.419971365363166,0.0547886772315727
9.916268,8.439112220811538,0.0544973075779075
9.918652000000002,8.45825307625991,0.054205904286461
9.921048,8.478464866894917,0.0539086083523025
9.923436,8.495975708649212,0.0536449623053991
9.925816,8.517630521523198,0.0533647354510935
9.928208,8.533418801784794,0.0530974696664488
9.930596,8.548555455740331,0.0528211525875331
9.932992,8.558756742643258,0.0525585747569575
9.935384,8.569889195105961,0.052295581436987
9.937767999999998,8.58367537462114,0.052036824641089
9.940148,8.592386417456847,0.0517960329644592
9.94254,8.600166294732777,0.0515557833170904
9.944928,8.601008704209676,0.0513338080994609
9.947323999999998,8.59877807775352,0.0511232065554681
9.949728,8.592403480177671,0.0509291256675711
9.952112,8.58123328517607,0.0507417519374433
9.954491999999998,8.568992154987832,0.050559545347655
9.956896,8.559032664799728,0.0503613361685099
9.95928,8.547210843492069,0.050163080395348
9.961659999999998,8.530034346251218,0.0499899435553629
9.964064,8.51672228087634,0.0498103653201165
9.966452,8.501547884381905,0.049630225162039
