Time,Force,Position
10.330772,5.224939304363521,0.1518407786078126
10.33316,5.273265469815506,0.1509477209386154
10.33554,5.295056260600614,0.1503990562933245
10.337944,5.299109579779561,0.1501038384027647
10.340332,5.30144033746581,0.1498336220867912
10.342712,5.315596708175458,0.1493552021480759
10.345108,5.324677942205632,0.1489921863923475
10.347496,5.330825909929612,0.1486944273469468
10.349876,5.335995490265571,0.1484689557205279
10.352272,5.339535056907451,0.1483114761871457
10.35466,5.346379976907862,0.148114740286532
10.397672,5.395488059003419,0.1480205914066336
10.400056,5.400888060906986,0.1479829298962371
10.402452,5.406847141317994,0.1479065058477455
10.40484,5.4142964657962205,0.1477755972130417
10.40722,5.428543488446616,0.1475124466356623
10.409616,5.445723777403206,0.1471926438444389
10.412004,5.459319173747544,0.1469305678365129
10.414388,5.470260843039406,0.1467076322521388
10.416784,5.478129476398213,0.1465512742610218
10.419172,5.488092758302054,0.1463919660454654
10.421552,5.508019322109736,0.1460724252295774
10.423948,5.539027324836141,0.1455096964006381
10.426336,5.576600708309238,0.1447835910073573
10.428732,5.610309659916361,0.1441386089466135
10.431128,5.642296050030787,0.1435077131695043
10.433516,5.665762180480348,0.1430340392427606
10.435896,5.683269230518902,0.1426460075113987
10.4383,5.6984020927587,0.1422818050150076
10.440688,5.707947961639831,0.1420138927476378
10.443068,5.723080823879631,0.1416455966395248
10.445472,5.740867413171905,0.1412414308699169
10.44786,5.755860505784845,0.1408898528821004
10.450244,5.767408475412392,0.1405831305935272
10.45264,5.773322229853024,0.1404197101003908
10.455028,5.772950142800688,0.1403970519868593
10.457412,5.774719926121628,0.1403259528926403
10.459808,5.7793304279501445,0.1401610769449336
10.462196,5.7862225697788,0.1399396473986079
10.464576,5.794837273100151,0.1396962566500962
10.46698,5.808806652354695,0.1393333726872571
10.469368,5.818819051944649,0.139003102956738
10.471748,5.822220744817536,0.1387358663025782
10.474144,5.81710217802556,0.1386048741707682
10.476532,5.81235569828592,0.1384957776844518
10.478912,5.815058543024507,0.1382739504708269
10.481308,5.824978394815844,0.137906847040724
10.483696,5.832384289181565,0.1375641714313454
10.48608,5.839231105039847,0.1372586119992593
10.488476,5.845611390189306,0.137026869278412
10.490864,5.857718438324292,0.1367044390327845
10.493248,5.87066410422044,0.13633346574878
10.495644,5.884448387877752,0.1359124760337309
10.498036,5.898604758587398,0.1355118719950956
10.500416,5.919419057842354,0.135004665698612
10.502812,5.943306393030364,0.1344356678004774
10.5052,5.958813238180372,0.1339931397509734
10.507584,5.969664255531486,0.1336221908184237
10.509984,5.979025028815381,0.1333020187766421
10.512368,5.992901860271308,0.1329264786349374
10.514752,6.003426116540461,0.1326286904786782
10.517148,6.011017106503415,0.1323790356138158
10.519532,6.0207027450114055,0.1321342369846721
10.521916,6.039280730236599,0.1317857939891515
10.524312,6.0638650177010405,0.1313379137475606
10.526696,6.084212786247174,0.1309348970872254
10.52908,6.100835892554193,0.1305854784231404
10.531476,6.121043891473465,0.1301964330987794
10.533864,6.14046049445982,0.1298106675109602
10.536244,6.166210160767387,0.1292612803223026
10.538643999999998,6.185860977037087,0.128780150313545
10.541028,6.197363620694259,0.1284378220263077
10.543408,6.2048148410303545,0.1282080416157172
10.5458,6.214128392486007,0.1279539311676825
10.548188,6.219857051329406,0.1277410164690449
10.550567999999998,6.224934083866748,0.127524001916449
10.552964,6.2354583401358985,0.1272422787705815
10.555352,6.2488686408830025,0.1269632894737195
10.557731999999998,6.262418711256966,0.1266761317239172
10.560144,6.2703817882722594,0.1264620788086777
10.562532,6.277833008608355,0.1262345026148117
10.564912,6.286075624877369,0.1260019867184768
10.567315999999998,6.29646011151966,0.1257313185324942
10.5697,6.301397374430141,0.1255253272692024
10.572084,6.296883212115978,0.1254447109934934
10.57448,6.28994764017482,0.1254206039704865
10.576864,6.286736730472773,0.125349625704615
10.579244,6.280173245583951,0.1253463439539306
10.586408,6.273145125844175,0.1252825114242454
10.588804,6.27635793140409,0.1252241309098195
10.591192,6.283994247337419,0.1250796002712632
10.593571999999998,6.2919101025244695,0.124919763669158
10.595968,6.2995464184578,0.1247754940672465
10.598356,6.307834360697187,0.1246368797270916
10.600736,6.315470676630517,0.1244945076898334
10.603148,6.321803739951731,0.1243426518330888
10.605536,6.3299991343925015,0.1241697900676986
10.607931999999998,6.3391256943930525,0.1239847042108213
10.610328,6.348903880699659,0.1238046030408338
10.612711999999998,6.362686268499099,0.1235657642458207
10.615092,6.373535389992344,0.1233697993666563
10.617487999999998,6.383173806672092,0.1231993989084119
10.619872,6.397328281523869,0.1229798526679905
10.622267999999998,6.414695561935563,0.1227023534081939
10.624664,6.428058640854422,0.1224869767662276
10.627047999999998,6.441049632720946,0.1222485759049673
10.629428,6.443378494549327,0.1221567179218955
10.631832,6.444404103765591,0.122054508724456
10.63422,6.447199496302796,0.1218919233041897
10.6366,6.446549765854607,0.1217579134669452
10.638991999999998,6.443106538727084,0.1216568172191713
10.641379999999998,6.441525642719117,0.1215345945940735
10.64376,6.444508026711424,0.1213226920672275
10.646164,6.447909719584312,0.1210880202701322
10.648547999999998,6.447307210964368,0.120910663199722
10.650928,6.446704702344422,0.1207334304029798
10.653332,6.441306596298725,0.12061627664548
10.65572,6.439540604693523,0.1204205324137566
10.6581,6.441127188275098,0.1201636232876031
10.6605,6.440060044804197,0.1199306792459966
10.662888,6.438341275027239,0.1196920494302499
10.665271999999998,6.442256720437194,0.1193498909814634
10.667668,6.446451705100869,0.1189924829822464
10.670056,6.4517176249511845,0.1186199407883734
10.672436,6.456331918495441,0.1182402496509629
10.67484,6.46481064390567,0.1178144232949307
10.677224,6.4800870674880695,0.1173023449421225
10.679607999999998,6.498436527003523,0.1167482525708763
10.682012,6.519579483198312,0.1161682170808894
10.684396,6.543515936072436,0.1155628072743756
10.686775999999998,6.568383554506336,0.1149482633476689
10.68918,6.584591143648513,0.1144325914338828
10.691568,6.594512891297719,0.1140137335741357
10.693948,6.604294869320065,0.1136049808693321
10.696352,6.62129385439516,0.113094924088801
10.69874,6.637361673910476,0.112594404122854
10.70112,6.656502529358848,0.1120483881261922
10.703516,6.673082205553362,0.1115630904875379
10.705904,6.686728615441681,0.1111171339194724
10.708284,6.697162219770084,0.1107192583378719
10.71068,6.705965810404408,0.1103664427898667
10.713064,6.709274955478679,0.1101055258898532
10.715448,6.715657136486006,0.1098048908392019
10.71784,6.720176986373775,0.1095235181010712
10.720228,6.727490332940879,0.109216029980187
10.722604,6.73280157876157,0.108934896784668
10.725012,6.735319327902921,0.1086802383743752
10.727396,6.73476404111122,0.1084663852811958
10.729776,6.730204552826684,0.1083008140796567
10.732167999999998,6.721361323795594,0.108197880468081
10.734556,6.711447159577864,0.1081103477550974
10.736952,6.711403729465359,0.1079098120223616
10.739348,6.717366601592106,0.1076376177669239
10.741736,6.720396207412656,0.1073975343948906
10.74412,6.715137870993819,0.1072675825065335
10.746516,6.7106709305079,0.1071365270976983
10.7489,6.70727492520862,0.106990057723058
10.75128,6.702807984722701,0.1068588741886645
10.75368,6.695779864982923,0.1067804080294837
10.756064,6.694618277855536,0.1066382251074092
10.758448,6.697880201101564,0.1064268763694266
10.760848,6.706077491400204,0.1061608729664571
10.763236,6.7127845376316255,0.1059346294796126
10.765619999999998,6.715999239049411,0.1057676472596337
10.768016,6.717072070093917,0.1056312671574078
10.7704,6.719867462631123,0.1054868302715727
10.772783999999998,6.724245647034162,0.1053411912339678
10.77518,6.730206623303039,0.1051944167110715
10.777568,6.740963196997668,0.1050019880135031
10.779964,6.75572397218513,0.1047639339359285
10.78236,6.7734180136787865,0.1044965302769531
10.784748,6.785757379239251,0.1043054998515721
10.787128,6.797025809613078,0.1041318221655307
10.789524,6.812018902226017,0.1039285457829155
10.791912,6.831947361891569,0.1036720477050945
10.794296,6.854809087863315,0.1033885782674377
10.7967,6.879253605700898,0.1031080758392424
10.799088,6.906771159471536,0.1027929262193701
10.801468,6.936570353242312,0.1024402392246556
10.803864,6.961294410333616,0.1021463544299525
10.806252,6.984807762611421,0.1018767610950092
10.808632,7.004456683023252,0.1016447090280761
10.811028,7.020520710822829,0.1014344756178947
10.813416,7.041799644928739,0.101160382947835
10.815796,7.064009744594427,0.1008785355913809
10.818192,7.083426347580782,0.1006192282448537
10.82058,7.099258057954882,0.1003807373894277
10.822959999999998,7.113227437209426,0.100156535188023
10.82536,7.124403319784636,0.0999555038682539
10.827744,7.130783604934093,0.0997963598787162
10.830123999999998,7.137303659710411,0.0996319391287188
10.832524,7.147176289673504,0.0994200582240091
10.834908,7.152765178890044,0.0992629851650256
10.837304,7.156491736987026,0.0991202385703631
10.839704,7.160358064710868,0.0989713600572054
10.842092,7.161430895755376,0.0988434065378357
10.844472,7.155706028627715,0.0987754556349053
10.846868,7.149841391873194,0.098714214322731
10.849256,7.145047690305311,0.0986396737599401
10.85164,7.1443979598571214,0.0985190328347308
10.854036,7.143748229408933,0.0983987268328855
10.856424,7.144960830080302,0.0982655673497721
10.858808,7.148035761871226,0.0981191979341236
10.8612,7.148177427355956,0.0979990878126126
10.863588,7.150740502467682,0.0978402842194043
10.865968,7.154374512766049,0.0976684793541654
10.868364,7.163875055676805,0.0974459851598251
10.870752,7.174726073027919,0.0971974200751208
10.873148,7.183574989632617,0.0969676555071459
10.875543999999998,7.198709747730286,0.0966680533011015
10.877932,7.210771469894899,0.0964014876161409
10.880312,7.215755954633624,0.0962037980307594
10.882708,7.222370453066428,0.0959658950271526
10.885096,7.23019565631273,0.095709370137548
10.88748,7.236018758812616,0.0954721404548993
10.889876,7.238768825379448,0.0952658570926742
10.892264,7.247525194185529,0.0950018432020601
10.894644,7.251765504819578,0.0947621665616123
10.89704,7.254143484334071,0.0945351503498794
10.899428,7.253727967169229,0.0943270159336152
10.901808,7.249867327018993,0.0941296108975429
10.904208,7.245355060562701,0.0939252689129181
10.906592,7.241122333360127,0.0937077340920838
10.908972,7.238100310971053,0.093470808874424
10.911372,7.233727814141622,0.0932603491676364
10.913756,7.22842415175241,0.0930555118164779
10.91614,7.219395827124087,0.0928741310157578
10.91854,7.210227732868901,0.0926990232159492
10.920928,7.204924070479691,0.0924945125607615
10.923312,7.199340868836759,0.0923040981936854
10.925708,7.195619998313385,0.0921026339327226
10.928092,7.202980566708732,0.0918029081934171
10.930471999999998,7.213134631783414,0.0914881244889073
10.932864,7.22235753129832,0.0911800367155088
10.935251999999998,7.235864171559778,0.0908273547720153
10.937628,7.253375013314071,0.0904401720178717
10.940024,7.270513768016025,0.0900366017974976
10.942408,7.289375084210676,0.0896271053540171
10.944788,7.310098731524885,0.0892082307827537
10.947184,7.331893314025732,0.0887785173088234
10.949568,7.359135120258388,0.088325832835188
10.951947999999998,7.382372724998211,0.0879045068259106
10.954344,7.402397524178117,0.0875163268180372
10.956727999999998,7.4210718489176655,0.0871523877204189
10.959104,7.43616128104496,0.0868019804940483
10.9615,7.450040008358757,0.086468170334671
10.963888,7.461637095672415,0.0861622853940359
10.966264,7.474025578918993,0.0858586510561167
10.968676,7.481618464739817,0.0855867889866303
10.971063999999998,7.482273882761615,0.0853693918613824
10.973444,7.483348609663991,0.0851337323469351
10.975856,7.475483768020922,0.0849685025283441
11.002171999999998,7.241362758072545,0.084943310514537
11.004576,7.222461803481129,0.0849366037196313
11.00696,7.21021877743502,0.0848908212082497
11.009339999999998,7.204121823255022,0.0847927414794635
11.011744,7.201889300940998,0.0846701649592199
11.014128,7.200076087507553,0.0845292724658612
11.016507999999998,7.205200341873137,0.0843392758150368
11.018912,7.216191128851112,0.084110061584188
11.021296,7.222898175082532,0.0839230911764016
11.023675999999998,7.233609422806787,0.083705979170719
11.026072,7.247533476090957,0.083456355329974
11.02846,7.265369183069345,0.0831453872788994
11.030836,7.282832802995395,0.0828131612520656
11.033231999999998,7.303648998108219,0.082445039806757
11.035616,7.325303810982206,0.0820393941871359
11.038011999999998,7.343653270497659,0.0816350332644567
11.040404,7.368568110759803,0.0811657401805118
11.042792,7.398325770275944,0.0806334304656869
11.045172,7.432367170538638,0.080060756275337
11.047572,7.465384857442936,0.0794642319053471
11.04996,7.494677882108121,0.0788880973408338
11.052336,7.527463251586942,0.0782743194930562
11.054728,7.554941166960814,0.0776756131454957
11.057116,7.577111628229737,0.0770915537694806
11.059496,7.602262577633098,0.0764593008422998
11.061908,7.62168676405093,0.0758523129365226
11.064296,7.636594892296729,0.0752610115263404
11.066676,7.6492686023706336,0.0746586468418044
11.06908,7.667436758004592,0.0740054531885784
11.071464,7.684953287332492,0.0733467069721152
11.073844,7.703820291100751,0.0726706041020766
11.076248,7.716401453376039,0.0720423047311304
11.078636,7.728842846024467,0.0714180270358398
11.081012,7.741284238672895,0.0707990443257496
11.083416,7.756519128000657,0.0701744548403405
11.085804,7.7705433125149215,0.0695635069998615
11.08818,7.778281655536215,0.0690007362357754
11.090576,7.785321150423207,0.0684707592095749
11.092959999999998,7.793012271616257,0.0679526371213873
11.095356,7.8020066454214225,0.0674547429310117
11.097752,7.811792415159507,0.0669604936183426
11.100136,7.819948171203512,0.0664994581908142
11.102516,7.829686719113353,0.0660449578574092
11.104912,7.838726418888893,0.0656169652154416
11.1073,7.843854464970216,0.0652423978271142
11.10968,7.853638338850431,0.0648555580364134
11.112084,7.861792199036566,0.0644977442558997
11.114472,7.871249311834817,0.064158902130721
11.116851999999998,7.876422683886514,0.0638510501586272
11.119256,7.8830390781771875,0.0635571655727477
11.12164,7.88895662433356,0.0632919466019484
11.124024,7.902323494968158,0.0630122962152837
11.126428,7.91899571896129,0.0627420625888439
11.128812,7.92924233183459,0.0625153105749584
11.131192,7.9319923984014205,0.0623388088397134
11.133596,7.938327357580503,0.0621609577275018
11.135984,7.943451611946088,0.0619948577748802
11.138364,7.942429794445561,0.0618609973843601
11.140768,7.9386144802656995,0.0617325413421135
11.143156,7.930515425339285,0.0616327422818287
11.145536,7.923207766345788,0.0615366370834598
11.147932,7.914829172165652,0.0614476051098511
11.150316,7.906031269104935,0.0613747383479551
11.1527,7.90188919384311,0.0612938317869502
11.1551,7.89588478746173,0.0612159163313525
11.157488,7.892254568879103,0.0611496702963349
11.159868,7.891976925483252,0.061057061300918
11.162271999999998,7.888766015781205,0.060974372074769
11.16466,7.891281869064689,0.0608775232611329
11.16704,7.892866556788395,0.0607826157505289
11.169436,7.892588913392543,0.0606906392041926
11.171824,7.886584507011162,0.0606127166525934
11.174204,7.879137078390804,0.0605217067640295
11.1766,7.875973390517001,0.0604033798553921
11.178988,7.882959976002142,0.0602393256090856
11.181368,7.888875626300646,0.0600827584121534
11.183768,7.901868514025037,0.0598962294914892
11.186156,7.923800970294875,0.0596772317321147
11.188536,7.944522721751213,0.0594699922097904
11.190928,7.969667983580967,0.0592316767354512
11.193316,7.99481324541072,0.0589948192025161
11.195695999999998,8.018096176120917,0.0587602351032611
11.198087999999998,8.041658646084832,0.0585154781743255
11.200475999999998,8.063778093809773,0.0582596108172133
11.202856,8.090972678214188,0.0579835268219767
11.205268,8.117934945193122,0.0576854696012275
11.207656,8.142615572171922,0.0574062475279335
11.210036,8.170229465456915,0.0571188963188846
11.212436,8.187972624636686,0.0568626135086956
11.214824,8.197986920084507,0.0566235956811773
11.217204,8.208140985159192,0.0563790918552091
11.219608,8.22136808616693,0.0561212300946646
11.221992,8.234595187174667,0.0558641501652792
11.224372,8.247822288182405,0.0556078493762908
11.226776,8.252109820644698,0.0553813360990995
11.229164,8.254954330868015,0.0551413670424176
11.231544,8.251932308478942,0.0549176267847935
11.233936,8.241600731238503,0.0546956636425065
11.236324,8.234202420304257,0.0544659441572837
11.238703999999998,8.223870843063816,0.0542437126555827
11.2411,8.21181670433068,0.0540176245701712
11.243488,8.204046306344098,0.053768308986353
11.245884,8.194273807611099,0.053524805960413
11.24828,8.182359438504822,0.0532925818281676
11.250664,8.166440867905711,0.0530730666544492
11.253044,8.147169722119827,0.0528752287833438
11.255448,8.12789857633394,0.0526767961354869
11.257836,8.104762998682082,0.0524847609723584
11.260212,8.090706759202527,0.0522619652691433
11.262608,8.088243815320896,0.0520175195517259
11.264992,8.087782972185678,0.0517672202291187
11.267388,8.084388862744268,0.0515231867396927
