Time,Force,Position
10.65562,5.355863338493911,0.1536809084295577
10.658008,5.370340782711914,0.1535823760809349
10.660391999999998,5.389753593982529,0.1533757993204671
10.662788,5.414800620440056,0.1530097510096374
10.665176,5.439615329472109,0.1526163285076132
10.667556,5.458610727720011,0.1522924347132036
10.66996,5.475651247049742,0.1519587253825312
10.672344,5.487663851528242,0.1516882878535957
10.674724,5.49758180746171,0.151418330874217
10.677128,5.507499763395178,0.1511468503101989
10.679516,5.519000511194481,0.150864175138561
10.681896000000002,5.531711963807283,0.1505422791362632
10.6843,5.5409782934346925,0.1502714005358094
10.686688,5.557321860487991,0.149834736220897
10.689068,5.569521456421596,0.1495020082727239
10.691472,5.580650117168562,0.1492002375387801
10.69386,5.593408791609607,0.1488319034411626
10.69624,5.603793278251898,0.1484808359589882
10.698644000000002,5.615668008961408,0.148072405336104
10.701028,5.625448091125884,0.1476705735829979
10.703408,5.632062589558688,0.1473052642066427
10.705804,5.631227763513265,0.147072775793067
10.708192,5.6280187496690885,0.1468605076169954
10.710572,5.623087174332215,0.1466715907334247
10.712976,5.621088865301536,0.1464276880252208
10.715364,5.628681751122362,0.1460124590793036
10.717744,5.638509055115081,0.1455874244553354
10.72014,5.650570777279695,0.145149284589343
10.722528,5.666217392056561,0.1446585157101948
10.724908,5.687637991647201,0.1440225911013094
10.727312,5.7060327771330295,0.1434062973799555
10.729696,5.722565231499301,0.1428172474959119
10.732076,5.735745110678796,0.1423038151025807
10.734472,5.747993824298513,0.1418115795645391
10.73686,5.761220925306251,0.1412538198787482
10.73924,5.773284543328733,0.1406818912389722
10.741632,5.779993485418023,0.1402289014780182
10.74402,5.79415175198554,0.1396553032202137
10.746412,5.808821875232255,0.1390982964406203
10.748816,5.8244231640387465,0.1385317456172907
10.751204,5.8348095465389065,0.1380773047513551
10.753584,5.849572217584238,0.1375661088567478
10.755988000000002,5.867220933107522,0.1370549254799046
10.758376000000002,5.882588008630669,0.1366013282995281
10.760752,5.891576694862226,0.136244595684616
10.763148,5.890182790309364,0.1360558474157824
10.765532,5.889068425010221,0.135848957784021
10.767916,5.89330873564427,0.1355280038029564
10.770312,5.8979683551589,0.1351829777311596
10.7727,5.894759341314724,0.1349752298777247
10.77508,5.890060083403326,0.1348159951621431
10.777476,5.889457574783382,0.1346245331461099
10.779864,5.8984462610149375,0.1342795408532932
10.782244000000002,5.906783320940439,0.1339328574913353
10.784648,5.914561302358496,0.133622463527693
10.787036,5.923223227508092,0.1333484153232572
10.789416,5.942547282695829,0.1329040487348579
10.791812,5.956656431577233,0.1325634861866539
10.794196,5.968531162286744,0.1322277950148105
10.796580000000002,5.974399590757002,0.1319955524890213
10.798984,5.982921746279739,0.1317312912362756
10.801368,5.989022492175474,0.1315286669302288
10.803748,5.990886719152901,0.1313656213656665
10.806152,5.995963751690242,0.1311373249590211
10.84676,5.992705620159953,0.1310878141313362
10.849164000000002,5.993823777174834,0.1310185834230257
10.851552000000002,5.998806366055688,0.13089065009442
10.853932,5.99992452307057,0.130821611143373
10.856332000000002,6.006537125645505,0.1306398472155604
10.858716,6.012405554115764,0.1304153710542903
10.8611,6.020043765906962,0.1301298814159964
10.863496,6.0321054880715765,0.1297523187208337
10.865884,6.045936993557129,0.1293067913599249
10.868264,6.057394311243929,0.1288736814222712
10.870668000000002,6.066989297811171,0.1284672138891667
10.873052,6.0741628747514165,0.1281195245937498
10.875436,6.076912941318246,0.1278611929364967
10.877832,6.082875813444992,0.1275386942388675
10.88022,6.090840786318155,0.1271848599987138
10.8826,6.096524119191181,0.1268787227579879
10.885004000000002,6.104069783183763,0.1265450975429009
10.887392000000002,6.1114756775494845,0.126221095055386
10.889772,6.122234147101982,0.1258262263399418
10.892168000000002,6.128057249601867,0.1255131619266803
10.894556,6.134020121728613,0.1251919773070295
10.896936,6.137049727549163,0.1249178677130881
10.899332,6.137285836690379,0.1246802824456604
10.90172,6.144179874376904,0.1243534668800952
10.904104,6.145859005757094,0.1241204504636115
10.906504000000002,6.147630684935906,0.1239266680885559
10.908892000000002,6.145490710420496,0.1238340134898358
10.911272,6.143862592584287,0.1237551576679591
10.913668,6.147681698479886,0.1236180386804392
10.916056,6.151221265121766,0.1234969966042492
10.918436,6.155831766950284,0.1233571476366084
10.920840000000002,6.165796944711994,0.123123031361291
10.923228000000002,6.182979129526454,0.1227709936404056
10.925608,6.20188387583361,0.1224078858814782
10.928004,6.216644651021071,0.1221128860221825
10.930388,6.237691267701504,0.1217124755240062
10.932772,6.260879754755214,0.1212748793018297
10.935168,6.284580098488123,0.120852249786053
10.937556,6.306929967780671,0.1204686710105693
10.939952000000002,6.333935664872112,0.1200359562872157
10.942348,6.359730657150054,0.1196296006479521
10.944736,6.383104239800998,0.1192745377203653
10.947116,6.406710139877419,0.1189478286463423
10.949512000000002,6.4253806729012295,0.1186943197009452
10.951900000000002,6.443911436298179,0.1184471679195749
10.954284,6.461790573389071,0.1181951777388189
10.956680000000002,6.480368558614262,0.117901478020212
10.959068000000002,6.495361651227201,0.117642192329816
10.961448,6.506490311974167,0.1174355049876921
10.963844000000002,6.522554339773745,0.1171636053790454
10.966232000000002,6.535405562013407,0.1169458196492491
10.968612,6.541039777200321,0.116839819335195
10.971008,6.544112813133376,0.116794060588718
10.973396,6.546534222760373,0.1167431909020999
10.975792000000002,6.555101704253482,0.1166027564785506
10.978188,6.562458480933093,0.1164894175122394
10.980576,6.568744322426063,0.1163938737805959
10.982960000000002,6.574658076866697,0.116277790853015
10.985356,6.578197643508576,0.1161673822957437
10.987744,6.577221151978423,0.11609711134864
10.990124000000002,6.579317696381327,0.1159838453206402
10.992528,6.585837751157644,0.1157956087610039
10.994916,6.593336193321982,0.1155546607180195
10.997296000000002,6.601393713993764,0.1152841179647391
10.999692,6.611081248359622,0.1149665848304306
11.00208,6.620908552352343,0.1146420518325422
11.004460000000002,6.632318648210897,0.1143145319776237
11.006856,6.6486641111220655,0.1139277698653025
11.009244,6.663007473286815,0.1135656078780973
11.011624,6.672415468398954,0.1132662786268235
11.014020000000002,6.685036269071008,0.1129168987163622
11.016408000000002,6.6999387097432,0.1125241394357019
11.018788,6.713957206683856,0.1120977249883895
11.021188000000002,6.728767099557431,0.1116733721415878
11.023576000000002,6.7398523301918924,0.1112889538699927
11.025956,6.747492437840961,0.1109256224761964
11.028352000000002,6.757134646236446,0.1105392508462275
11.030740000000002,6.768359646497768,0.1101523889818213
11.033136,6.782238373811564,0.1097475060339886
11.035532,6.796117101125359,0.1093420928717437
11.037924,6.806131396573182,0.1089787824839547
11.040304,6.81307265608795,0.1086567415876358
11.0427,6.822667642655192,0.1083196247602007
11.045088,6.828770284408798,0.1080425762875296
11.047472,6.833522451722045,0.1077957482526124
11.049864,6.838274619035292,0.1075493259946853
11.052248000000002,6.841583764109563,0.1072978862893618
11.054628,6.845032678810695,0.1070421765290365
11.05702,6.85262556463152,0.1067334867570202
11.059404,6.861568924892704,0.106395331985896
11.061800000000002,6.869301580340389,0.1060802212946966
11.064204,6.879827732467409,0.1057426839789148
11.066588,6.892588302766324,0.1054118292470208
11.068968000000002,6.897200700452712,0.1051767817471605
11.071360000000002,6.9006023933256,0.1049638040904474
11.073744,6.904515942877686,0.1047636786819402
11.07614,6.905496226123576,0.1045945987545373
11.078532,6.901680911943714,0.1044714232476518
11.080916000000002,6.8957237273905765,0.1043780169467233
11.083312,6.891628873956995,0.104268990159113
11.085704,6.890327517202748,0.1041366502120096
11.088088,6.891028261194919,0.1039818543389368
11.090468,6.885582933320978,0.1039015779790816
11.114368,6.800301059878796,0.1037831206863323
11.116752000000002,6.795879445363252,0.1037292823873544
11.119148,6.791318061220847,0.1036824409454648
11.121548,6.791692044131053,0.1035845404423666
11.123936,6.795139062974315,0.1034508520568473
11.126312000000002,6.803661218497049,0.1032594804349362
11.128708,6.813254309206421,0.1030535235291543
11.131092,6.820985068796238,0.1028626939844248
11.133488,6.8257825620798585,0.1027005423634624
11.135884,6.830580055363479,0.1025392538991023
11.138268,6.837659188647238,0.1023413136951834
11.140648,6.845529717863915,0.1021445418663382
11.143052,6.859825858200423,0.1018644969373197
11.145436,6.86797592667082,0.1016534969319074
11.147816,6.877756008835296,0.1014002897895531
11.150212,6.8928907669329655,0.1010729156032528
11.152596,6.910307165030773,0.1007118471064055
11.154988,6.922927965702826,0.1003928079610886
11.157384,6.937550867121296,0.1000533196869171
11.159768,6.955666113353404,0.0996604881346004
11.162148000000002,6.96926530141348,0.0992964910035842
11.164544,6.979139827234442,0.0989641795658681
11.166928000000002,6.991575532309262,0.0985844637599303
11.169324,6.999634948838911,0.0982276009129769
11.171728000000002,7.005832034249004,0.0978859387752959
11.174116,7.011097954099317,0.0975530549192953
11.176492,7.019856218763268,0.0971696857471762
11.178896000000002,7.02647261305394,0.0968106513441197
11.18128,7.041376949584,0.0963639399080138
11.18366,7.052836163128669,0.0959288001370508
11.186056,7.066437247046614,0.0954690052999437
11.18844,7.076593207979166,0.0950213652556571
11.190820000000002,7.081022405926188,0.0946195739895225
11.193212,7.096021186112735,0.0940987477809482
11.1956,7.11167159260534,0.0935874672232696
11.197996,7.127741307978526,0.0930581095950568
11.200396,7.1410175266723765,0.0925484378072797
11.20278,7.161091443538395,0.0919853482415764
11.20516,7.180234194844636,0.0914306109242378
11.207556,7.195093205404325,0.0909277819810701
11.209944,7.212326403762765,0.0904260767766253
11.212324,7.22620702693443,0.0899661077031403
11.214728,7.237386701225379,0.0895573863709231
11.217112,7.2470761314491075,0.0891793332968608
11.219492,7.253552756112922,0.0888365514333038
11.221896,7.25574564003018,0.0885417448465764
11.224284,7.251093603947026,0.0883397235720135
11.226664,7.250445769356706,0.0881017902796739
11.229068000000002,7.237645560661026,0.0879763093904889
11.231452,7.229873266816574,0.0878438759056535
11.260124,7.133508058597797,0.0877447589611607
11.262504,7.132065036358821,0.0877355736252224
11.264908000000002,7.134486445985821,0.0877002251954068
11.267296000000002,7.140632517851932,0.0876448591617724
11.269672,7.149851625651097,0.0875612903677894
11.272072,7.163354474196819,0.0874311945613257
11.274456,7.176717553115679,0.0873084675853894
11.276836,7.199811596512902,0.0871157721206117
11.27924,7.217318646551456,0.086953289202584
11.281624,7.232683826216733,0.0868146199172397
11.284004,7.244044804389176,0.0867093509723278
11.2864,7.255685321815339,0.0865910748498516
11.288788,7.271749349614917,0.0864218735135806
11.291184,7.29102618297441,0.0862205726216205
11.293580000000002,7.305507418908152,0.0860494460628114
11.295968000000002,7.318638180401535,0.0859020887614376
11.298348,7.334190351521915,0.0857199122614603
11.300744000000002,7.345878090776322,0.0855631182632863
11.303128,7.354912102978253,0.0854139562104708
11.305508,7.366227755180322,0.0852362352679522
11.3079,7.377543407382391,0.0850608500886601
11.310288,7.38313229659893,0.0849206116978694
11.312684,7.383925588389718,0.0848102468904123
11.315084,7.385138189061085,0.0846814085854967
11.317468000000002,7.3866303289861746,0.0845401638953167
11.319848,7.388681547418704,0.0843745674598404
11.322252,7.390872535478094,0.0842033432827557
11.324636000000002,7.3897581701789505,0.0840325778316178
11.327016,7.394789876745918,0.0838109386292813
11.32942,7.399169957006828,0.0835812226105798
11.331808,7.402246784655622,0.0833346124676281
11.334188,7.405742921184997,0.0830696826509819
11.33658,7.404303690661759,0.0828393526741212
11.338964,7.397137697152992,0.0826409808796572
11.341360000000002,7.396397314764055,0.0823802365514503
11.343764,7.401011608308313,0.0820690996246816
11.346148,7.40469473629279,0.0817630814172201
11.348528000000002,7.415455101703158,0.081404891539222
11.350932,7.432221769352775,0.0810049242238945
11.353316,7.445915401069336,0.0806294522102825
11.355696000000002,7.455092974613866,0.0802692910925807
11.3581,7.467203814464592,0.079890048004847
11.360484,7.485600495808289,0.0794576844599484
11.362868,7.501855306778709,0.0790461666777996
11.365264,7.519041283308907,0.0786326194873773
11.367648,7.534737015771885,0.0782487447744281
11.370028,7.550432748234863,0.0778667529319937
11.372432,7.5672919636830995,0.0775091565474733
11.37482,7.580938373571417,0.0771826963647261
11.377196,7.597518049765933,0.0768409074791215
11.3796,7.618474014505618,0.076493829129596
11.381988,7.638359044058665,0.0761567551435796
11.384368000000002,7.660385943984989,0.0758007498182148
11.386772,7.685346110217507,0.0754279311177375
11.38916,7.708024636449888,0.0750835887094658
11.39154,7.723905464510101,0.0747762388620201
11.393944,7.74150885406301,0.0744698955471917
11.396328,7.754316646190167,0.0741879798009337
11.398708,7.764191172011132,0.0739233560495683
11.401112,7.780072000071345,0.0736244780960076
11.4035,7.795673288877838,0.0733360594240054
11.40588,7.814207843990526,0.0730349309149121
11.408284000000002,7.830460759103077,0.0727596759835561
11.410668,7.84592227828271,0.0724810212615236
11.413048,7.86231496302212,0.0722016213019631
11.415444,7.876845316641974,0.0719275160760649
11.417832,7.889513339142272,0.0716597054088456
11.420212,7.897525533843678,0.071405750696795
11.422616,7.900462591865611,0.0711814753412707
11.425,7.898324513208072,0.0709884606894279
11.42738,7.894044564177256,0.0708129181638478
11.429776,7.893489277385553,0.0706266052997103
11.432164,7.892654451340131,0.0704516742681436
11.434544,7.892191712347046,0.0702967422172576
11.436948,7.888655937420905,0.070161123151059
11.439336,7.889636220666794,0.0700173872613859
11.441716,7.885681136860075,0.0698983501406699
11.444120000000002,7.881446513799633,0.0697902978926426
11.446504,7.873859315552416,0.0697125849463818
11.448884,7.860126045439086,0.0696733053950321
11.45128,7.8491862720050944,0.0696258947274688
11.453668,7.83331113151849,0.0696025334761855
11.456048,7.816644595098965,0.0695755697976161
11.458444,7.805704821664972,0.0695272660058425
11.460832,7.792483408230841,0.0695004584320084
11.463208000000002,7.785408066662821,0.0694363467215946
11.465612,7.77940366028144,0.0693640530067165
11.468,7.777543225019753,0.0692653291791886
11.470380000000002,7.783970731997453,0.0691139194736552
11.47278,7.794402440467987,0.0689415416364085
11.475168,7.807115788938658,0.0687485892204082
11.477548,7.816104475170215,0.0685659823048207
11.479952,7.826443635842133,0.0683652988912144
11.482336,7.836270939834852,0.0681507926957143
11.484716,7.848379883827709,0.067915004552868
11.48712,7.858906035954729,0.0676738474666326
11.489508,7.874647094388083,0.0673998589528112
11.491888,7.890388152821435,0.0671254533694109
11.494284,7.912415052747759,0.0668109155142978
11.496672,7.937934297487719,0.0664630372828105
11.499048000000002,7.961870750361843,0.0661094547580978
11.501452,7.989811404728799,0.0657373362390576
11.50384,8.017612289468897,0.0653719680231393
11.50622,8.040617576783243,0.065025005705604
11.50862,8.063250777045251,0.0646587520947269
11.511008,8.079737905441148,0.0643281575188136
11.513384000000002,8.096085264210185,0.0640037973163819
11.51578,8.112712162232942,0.0636708636743282
11.518168,8.12947882988256,0.0633366392231525
11.520544,8.145593871226119,0.0629949932285146
11.522952,8.158124019957427,0.0626559866260769
11.525336,8.170933707942455,0.0623064333388362
11.527720000000002,8.178668259248008,0.0619803707431878
11.530124,8.186030723501224,0.0616352469072562
11.532508,8.196466223687498,0.0612771230719153
11.534888000000002,8.208112428687269,0.060908522063515
11.537284,8.218967237754121,0.0605386886360726
11.539672,8.236107888313946,0.0601375602219398
11.542052000000002,8.249523876634656,0.0597440200120916
11.544448,8.262800095328506,0.0593578411028825
11.546832000000002,8.277007479582135,0.0589708721381677
11.549228,8.287769740850372,0.0585796194535373
11.551632,8.297740606185691,0.0581846292851616
11.554016,8.305988910028313,0.0577855908938462
11.556396,8.314237213870936,0.0573865779266747
11.558796,8.320623186594,0.056987184015981
11.56118,8.326357533011008,0.0565787772199386
11.56356,8.329950009054738,0.0561834039842919
11.565964,8.329678053232495,0.0557985313479027
11.568348,8.32912655815653,0.0554241721081149
11.570728,8.327876214946263,0.0550737319285544
11.573124,8.330490303601973,0.0547161656861897
11.575508,8.340041860056711,0.0543377556089293
11.577892000000002,8.35289876986998,0.0539733715639937
11.580288,8.357607507070725,0.0536398385763544
11.582672,8.355239006845576,0.0533299796359141
11.585068,8.347515830687238,0.0530478845713383
11.587464,8.333506813035926,0.0527958451559374
11.589848,8.318147320944258,0.0525584593502927
11.592232,8.30036641922559,0.0523420966138239
11.594628,8.284447848626481,0.0521247134535584
11.597012,8.271555092132184,0.0519300105599032
11.599408,8.259313961943944,0.0517444270823732
11.601804,8.253590990674152,0.0515556536373342
11.604188,8.249031502389615,0.0513908770385739
11.606568,8.250338546717469,0.0512132935007937
11.608968,8.250015577351244,0.0510605789997464
11.611356,8.251135630223995,0.0509221255505939
11.613736,8.251556834962445,0.0508084111436714
11.616132,8.250907104514255,0.0506999789353084
11.618516,8.254541114812621,0.0505702514141581
11.6209,8.248676478058101,0.0504831782390781
11.623304,8.240669970930302,0.0504068916964779
11.625688,8.226657161563255,0.0503470553156491
11.628068,8.220512985555013,0.0502698695359464
11.630472,8.223540695517697,0.0501948932842076
11.632856,8.232155398839046,0.050118182975584
11.635236,8.23969916697376,0.0500465350068995
11.63764,8.250967597347586,0.0499740199969956
11.640028,8.262375797348271,0.0498963994358626
11.642408,8.269640026229265,0.0498349531112299
11.644804,8.273459132124863,0.0497644509359293
11.647192,8.2783491732071,0.0496889457953962
11.649572,8.280166178356284,0.0496244666205469
11.651976,8.279469226079852,0.0495504904795169
11.654364,8.276630403430143,0.0494868995144015
11.656744,8.27686461671349,0.0494128934469742
11.65914,8.275516038131,0.0493292851052385
11.661528,8.273376063615594,0.0492405615099187
11.663908,8.273238189846602,0.0491466322834762
11.666312,8.270167049771414,0.0490581212127582
11.6687,8.275383851935617,0.0489385990427698
11.67108,8.278458783726542,0.0488292924458389
11.673484000000002,8.285398147383441,0.0487144672300067
11.675872000000002,8.285120503987589,0.0486250180944422
11.678252,8.275251665740234,0.0485461911740427
