Time,Force,Position
12.727268,6.078545119147069,0.1571935662983745
12.760724,6.353865764816942,0.1566973099890952
12.763112,6.3700204445572695,0.1565055786675871
12.765496,6.397441658813553,0.1561640467302985
12.767892,6.423652168256336,0.1558552233270331
12.77028,6.451305699938095,0.1555473265127261
12.772659999999998,6.4846859946053845,0.155148697358911
12.775064,6.52165118188493,0.1547015827380576
12.777452,6.555962642111997,0.1542807161522343
12.779836,6.590740633047892,0.1537854302539082
12.782232,6.618488608386139,0.1533851027345597
12.784616,6.648146136672185,0.1529195754528949
12.786995999999998,6.6822271753316445,0.1523591779158075
12.7894,6.721103811416857,0.1517086978723033
12.791788,6.749318317463928,0.1512560706983208
12.794168,6.779302606831937,0.1507391158614527
12.796568,6.811149227319503,0.1502062442964489
12.798952,6.84052721635183,0.1497810122666428
12.801332,6.872139623556048,0.1493466847707132
12.803732,6.903752030760269,0.1489123572747837
12.806116,6.936714912404848,0.1484488540158481
12.8085,6.96902616774337,0.1479900861219944
12.810896,6.996681595283,0.147606733785966
12.81328,7.022894000583652,0.1472315720849387
12.815663999999998,7.049013858085689,0.1468224866885386
12.81806,7.069454174430438,0.1464600933674894
12.820448,7.085518202230016,0.1461534407094957
12.822844,7.101070373350397,0.145840268535047
12.82524,7.126585826374616,0.145403668550098
12.827628,7.153264762384094,0.1449796045465579
12.830008,7.184599526192462,0.1444893421464377
12.832408,7.212441945187196,0.1440815669235774
12.834792,7.239725285674489,0.1437123326836813
12.837176,7.2712451450800915,0.1433093100328469
12.839572,7.305418731538169,0.1428744061557524
12.84196,7.338009526130412,0.1424511807575983
12.84434,7.363290765871289,0.1421205720333644
12.846736,7.390993415239164,0.1417376248074585
12.84912,7.415111171994782,0.1413938418603681
12.851503999999998,7.437785906511426,0.1410512200756973
12.8539,7.450776898377949,0.1408111199528217
12.856288,7.462185098378636,0.1405821848797276
12.858672,7.474524463939102,0.1403428604546185
12.861068,7.48351125431279,0.1401680451237208
12.863452,7.489936865432624,0.1400526526051453
12.865852,7.497293642112234,0.1399247242456433
12.868248,7.501717152485651,0.1398401543039326
12.870636,7.503719253232068,0.1398090658307201
12.873016,7.503067626926014,0.1398061841389664
12.875412,7.504837410246952,0.1397513212266408
12.877796,7.503581379463082,0.1397064506743977
12.884972,7.479376762482455,0.1396742408316363
12.887352,7.469183059011006,0.139650286776041
12.889751999999998,7.459268894793277,0.1396117644449168
12.89452,7.438229861544322,0.1395606876270075
12.896924,7.43068988512535,0.1395100775916558
12.899307999999998,7.425803635758849,0.1394327245385901
12.901692,7.425293674937521,0.1393126920505484
12.904087999999998,7.421570908556277,0.1392483085875381
12.906475999999998,7.417848142175035,0.1391840200780265
12.908856,7.419340282100125,0.1390349590711093
12.911252,7.427258033145044,0.1387760885540192
12.91364,7.433313453070406,0.1385382673939129
12.91602,7.438717246689711,0.1382962249722101
12.918423999999998,7.441607082883402,0.1380727521390266
12.920811999999998,7.442634587957535,0.137872952351172
12.923196,7.437795560419279,0.1377554982500907
12.925591999999998,7.438683295866554,0.137563494568863
12.927979999999998,7.441433362433384,0.1373486854271213
12.93036,7.442553415306134,0.1371808820906937
12.932759999999998,7.4492604615375555,0.1369467638032321
12.935144,7.45275470220906,0.1367683620219649
12.937528,7.455178007693926,0.1366081768605593
12.939923999999998,7.45839270911171,0.1364439118074039
12.942312,7.466170690529769,0.136193476897525
12.944692,7.473436815268631,0.1359345416163112
12.947095999999998,7.481913644820992,0.1356528058389952
12.949483999999998,7.490670013627072,0.135356579361665
12.951864,7.504129432060286,0.1349687515463521
12.954268,7.514283497134967,0.1346031038040729
12.956656,7.520712899970534,0.134281784510331
12.959036,7.520065065380213,0.1340621037857736
12.961432,7.522350497096087,0.1338031094253739
12.963819999999998,7.527569195118156,0.1335053447557106
12.966204,7.539725360939254,0.1331139314577834
12.9686,7.550950361200575,0.1327330858692481
12.970987999999998,7.569904225193842,0.1322559352659656
12.973368,7.580058290268523,0.1318937426881599
12.975772,7.5879307153430675,0.1315723579913454
12.978155999999998,7.598504089298331,0.1311885129467954
12.980536,7.604701174708421,0.1308449626193958
12.98294,7.609035928998957,0.1305204959497111
12.985324,7.616303949595689,0.1301593187397152
12.987704,7.620778473513084,0.1298274551338389
12.990108,7.620597169631586,0.129547796787846
12.992496,7.621347031309868,0.12925949634185
12.994875999999998,7.616881986681817,0.1290488945433743
12.99728,7.6170727698526575,0.1287893277545399
12.999664,7.614562604142781,0.1285911757438596
13.002043999999998,7.615637331045159,0.128360814628152
13.004448,7.6165722883206755,0.1281369412328769
13.006832,7.624444713395221,0.1278243482399151
13.009211999999998,7.634459008843043,0.1274806169865467
13.01162,7.645404469850645,0.1271295701453877
13.014004,7.654767138992409,0.1267884261503684
13.016384,7.669204944813647,0.1263839898465107
13.018792,7.67777621802249,0.126049748722402
13.021176,7.692214023843729,0.1256459575508123
13.023556,7.709213008918823,0.1251899612729974
13.025959999999998,7.72407012362064,0.1247667751718506
13.028348,7.737297224628381,0.1243844779248627
13.030728,7.754109218248371,0.1239715147289492
13.033124,7.766777240748668,0.1236156447964609
13.035512,7.785591335115074,0.1231793810926059
13.037892,7.8064075302279,0.1227185108719317
13.040288,7.822939984594171,0.1223213433824463
13.042676,7.842685244520355,0.1218756390847529
13.045056,7.853490935901097,0.1215378887282995
13.04746,7.86499547541614,0.1211673862860705
13.049844,7.869842086385871,0.1208657388636483
13.052224,7.876690798102023,0.1205399013312534
13.054628,7.87939553869848,0.1202711237144975
13.057016,7.879818639294799,0.1200408198167437
13.059396,7.8794503439582,0.1198137450095427
13.061799999999998,7.875729473434825,0.1196391612163169
13.064187999999998,7.865722761418479,0.1195486630267134
13.066572,7.857718150148551,0.1194342491183105
13.068972,7.849573769251761,0.119326175323097
13.07136,7.842081014661029,0.1192223712934792
13.07374,7.83351732488366,0.1191331904799322
13.076135999999998,7.827375044733286,0.1190010751404014
13.078523999999998,7.819510203090218,0.1188792166729535
13.080908,7.810062569581312,0.1187608749123531
13.083303999999998,7.796750504206434,0.118682316752716
13.085691999999998,7.784090065137614,0.1186077414119802
13.088072,7.773431726815211,0.1185099623426635
13.090467999999998,7.763564784425726,0.118410002975952
13.092856,7.761706245021908,0.118217462455505
13.095236,7.759568166364369,0.1180379616693947
13.097632,7.765950347371696,0.1177775490063254
13.100024,7.769399262072827,0.1175484134501454
13.1024,7.777923313453432,0.1172606267673567
13.104807999999998,7.786307595207174,0.1169793845042521
13.107192,7.789476970654586,0.1167636931507998
13.109572,7.795579612408191,0.1165177213094726
13.111976,7.801961793415518,0.1162575878426179
13.114363999999998,7.807924665542264,0.1160171154633592
13.116744,7.8126768328555105,0.1157981620824395
13.119139999999998,7.8203622664749535,0.115550849470284
13.121524,7.834054002333646,0.1152383931076951
13.123908,7.847605968565478,0.1149331087775946
13.126312,7.865022366663284,0.114592209384589
13.128695999999998,7.890539715545375,0.1141951620339181
13.131076,7.91857102185308,0.1137893845397737
13.13348,7.949256055213261,0.1133716298529864
13.135868,7.98101202376008,0.112941791571432
13.138248,8.013699157866677,0.1125081341488814
13.140656,8.043592795293938,0.112100925995187
13.14304,8.073206893467479,0.1117066238941592
13.145419999999998,8.103240300521602,0.1113018043263023
13.147824,8.137789765747755,0.1108690256582688
13.150212,8.166053389480936,0.1105113835216467
13.152592,8.196598653214256,0.1101237826283833
13.154996,8.234081384746604,0.1096685397782678
13.157384,8.271564116278952,0.1092180050177731
13.159764,8.314633841169973,0.10872919542906
13.162164,8.356632630874353,0.1082519770326412
13.164548,8.40091306057887,0.1077460738444679
13.166928,8.439047418417276,0.1073074159937666
13.169328,8.47182710032249,0.1069352848924934
13.171716,8.508331444466815,0.1065404968279017
13.174096,8.54069181749145,0.106191925275587
13.176496,8.566813570851355,0.1058797222540533
13.17888,8.590933223464845,0.105587545942277
13.181264,8.606532616413467,0.1053590059692074
13.18366,8.619990138988813,0.1051552045029435
13.186044,8.629443460071323,0.1049888965409462
13.188424,8.639408637833036,0.1048340431110592
13.190828,8.650584520408245,0.1046617498950083
13.193216,8.6562659574234,0.1045564552969144
13.195595999999998,8.659153897759223,0.1044704074939789
13.198,8.663532082162263,0.104354952882912
13.200388,8.666047935445748,0.1042524578947749
13.202768,8.665630522423037,0.1041744661944999
13.20756,8.647615407421023,0.1041450092281147
13.20994,8.639236813240888,0.1041046077223749
13.212336,8.627645413500836,0.1040989583476962
13.214724,8.621548459320838,0.1040294136681647
13.217108,8.617872914767837,0.1039254612464466
13.219504,8.60567711054997,0.1038804870141591
13.221888,8.592969449652907,0.1038244686019888
13.224272,8.584126220621815,0.1037387665492136
13.226668,8.577844170844584,0.1036131952823864
13.229052,8.577428653679743,0.1034405700516061
13.231431999999998,8.582507582074953,0.1032059876733363
13.233836,8.589728380843441,0.1029480975760328
13.23622,8.59629755330587,0.1026853375200602
13.238604,8.600864625021885,0.1024399944505189
13.241008,8.60478007043184,0.1021883783477703
13.243396,8.609626681401572,0.1019313926521633
13.245776,8.61712701942378,0.1016633998662917
13.248172,8.622345717445851,0.1014232853691353
13.25056,8.629054659535141,0.1011559109581596
13.25294,8.63748616311713,0.1008806895576405
13.255336,8.64885093300531,0.1005825037474837
13.257728,8.658073832520214,0.1003084182919794
13.260108,8.66757627128884,0.1000226303484919
13.262512,8.668650998191218,0.0998213368040811
13.2649,8.666512919533677,0.0996538471364096
13.26728,8.671963934981228,0.0994348369976717
13.269676,8.67899774229461,0.099215408946906
13.272064,8.687102484794634,0.0989867954005036
13.274444,8.691994421734742,0.0987923628776961
13.27684,8.696094962741931,0.0985984269628226
13.279228,8.692978496696371,0.0984706772912359
13.281612,8.692935066583866,0.0983162687331841
13.284008,8.692100240538442,0.0981616548254878
13.286396,8.692615888933378,0.0979852220476998
13.288776,8.696344342888231,0.0977764643087702
13.291176,8.698909313857826,0.0975512191828054
13.29356,8.698960327401808,0.0973311817476772
13.295944,8.700641354639869,0.0970781109636793
13.29834,8.698178410758235,0.0968618616756602
13.300728,8.700418516503738,0.0965871312015388
13.303107999999998,8.700284434450484,0.0963113834928904
13.305504,8.699498726091173,0.0960297600474685
13.307892,8.699132326612444,0.095731490787255
13.310272,8.705610847134128,0.0953528072552752
13.312676,8.716652647656085,0.0949220071077392
13.315064,8.722386994073092,0.0945109121393667
13.317443999999998,8.730542750117095,0.0940698937572502
13.31984,8.732320116869511,0.0936579717449503
13.322232,8.732235152502371,0.0932542713667492
13.324611999999998,8.732429727388952,0.0928402560414029
13.327008,8.734114546342752,0.0923978541086505
13.329396,8.728350040818325,0.0919933962483951
13.331779999999998,8.722725304920758,0.0915828989106226
13.334176,8.71831127383669,0.0911576187242744
13.336564,8.716039113125898,0.0907145808667843
13.338943999999998,8.713347643534528,0.0902872341796119
13.34134,8.711587339502934,0.0898553658457528
13.343728,8.711409827337178,0.0894257663957473
13.346108,8.713234415917835,0.0889804038114317
13.348503999999998,8.712637594871499,0.0885669045906429
13.350896,8.71269240013122,0.0881589232134344
13.353276,8.7116762702043,0.087759766356922
13.355671999999998,8.712522471396937,0.0873526586039977
13.358059999999998,8.70987632777594,0.0869849904196602
13.360444,8.703225982662108,0.0866449501172355
13.362835999999998,8.699229364600752,0.0862969304812337
13.365223999999998,8.690437149113643,0.0859745512022711
13.367608,8.681877251052011,0.0856725989812077
13.370003999999998,8.678392489669852,0.0853339617356568
13.372391999999998,8.673557253847335,0.085015226253922
13.374772,8.67109620582357,0.0847002634551047
13.377168,8.67222005041206,0.0843728630385885
13.379559999999998,8.674135290933469,0.0840468839906982
13.38194,8.671487251454602,0.083768460524742
13.384344,8.65789754268387,0.0835590688881538
13.386732,8.646170165032697,0.0833415501764682
13.389108,8.63136975144847,0.0831456720553423
13.391507999999998,8.614707006744686,0.0829571482460863
13.393892,8.599906593160457,0.0827605450273926
13.396272,8.584966409949368,0.0825689740602266
13.398672,8.571888557857836,0.0823695336278943
13.401056,8.562395598378558,0.0821602866931974
13.403436,8.55048122927228,0.0819794653574346
13.405836,8.544293623151535,0.0817716231753367
13.40822,8.538617873709986,0.0815754095487225
13.410616,8.534804455387995,0.0813724029036139
13.413011999999998,8.535367325611174,0.0811620443958872
13.415399999999998,8.543286972513963,0.0808961065121783
13.417784,8.549995914603253,0.0806457119349456
13.420188,8.560709058185378,0.0803724510899968
13.422572,8.57221359770042,0.0801023316801686
13.424952,8.588234195387495,0.0798224054440842
13.427352,8.6082589945674,0.0795218577747992
13.42974,8.634290095986557,0.0791871749949707
13.43212,8.671634953749914,0.0788073269414334
13.434516,8.71084214263283,0.0784249057599952
13.436903999999998,8.755636324874413,0.0780246294815579
13.439284,8.804946565288029,0.0776171327941025
13.441679999999998,8.854256805701645,0.077212893796713
13.444067999999998,8.902356341301763,0.0768219432577612
13.446448,8.951107503207936,0.0764410767592707
13.448844,8.998136103621414,0.0760639484205471
13.451232,9.049029135900868,0.075672029879356
13.453616,9.09312447000815,0.075312533753676
13.456012,9.13908213523499,0.0749478097709892
13.4584,9.183829095648331,0.0745986816016537
13.460795999999998,9.227505120875032,0.0742597164031613
13.463192,9.269551132407654,0.0739532949650539
13.46558,9.30931550394014,0.073667800526483
13.467959999999998,9.343864969166294,0.0734167125481475
13.47036,9.373758606593556,0.0731791633980509
13.472748,9.400998516968343,0.0729472790925799
13.475127999999998,9.419950485103742,0.0727659101446753
13.477524,9.435969186932947,0.0725983583646243
13.479912,9.450265327269454,0.0724328537786761
13.482295999999998,9.457763769433791,0.072294455323226
13.4847,9.461258010105295,0.0721758339137107
13.487088,9.459025487791273,0.0720769247193263
13.489468,9.458655296596806,0.0719736308699466
13.491864,9.461497910962253,0.0718492964829982
13.494252,9.459544927901948,0.0717413984338209
13.496631999999998,9.45931450633434,0.0716337482026685
13.499028,9.456150818460536,0.0715380312931429
13.501416,9.46085576394554,0.0714103769753479
13.503796,9.467842349430684,0.07126515710085
13.5062,9.474177308609766,0.0711133069510202
13.508588,9.478649936669292,0.0709659578242874
13.510967999999998,9.47753557137015,0.0708318167048028
13.513368,9.476700745324726,0.0706882300935609
13.515756,9.47800778965258,0.0705308006606713
13.518135999999998,9.484250201033046,0.0703532484489469
13.520532,9.489281907600017,0.0701874667398172
13.52292,9.500459686033093,0.0699900988852926
13.525299999999998,9.513499795585728,0.0697892524671965
13.527696,9.524537804391947,0.0695980749348006
13.530084,9.541302576183696,0.0693896226922347
13.532467999999998,9.56128015353536,0.0691617928971859
13.534864,9.585541471633578,0.0689082659209555
13.537252,9.60766091935852,0.068669650253569
13.539635999999998,9.628849201523678,0.0684346602494781
13.54204,9.656183555554954,0.0681703947748754
13.544428,9.680864182533751,0.0679085369132189
13.546812,9.70703505357977,0.0676279975637901
13.549208,9.726408226453618,0.0673713289506579
13.551596,9.742056737088353,0.0671234622542984
13.553976,9.758636413282863,0.0668747210385326
13.556372,9.7767063335446,0.0666068570148042
13.55876,9.799711620858943,0.0663215852237323
13.561139999999998,9.828071584106484,0.0660079611044438
13.56354,9.85764225216752,0.065685225250152
13.565924,9.88735268985542,0.065360759759569
13.568307999999998,9.91548033567748,0.0650307604092986
13.570704,9.943747751126402,0.0646990143937227
13.573096,9.96857004358993,0.0643657817683878
13.575475999999998,9.991669774560762,0.0640313339057598
13.577872,10.0101136777327,0.0637046997314635
13.58026,10.024041522732608,0.0633816898209274
13.582639999999998,10.033825396612825,0.0630782344562164
13.58504,10.040164147507648,0.0627715884266078
13.587424,10.044920106536631,0.0624596518389987
13.589807999999998,10.045020237766725,0.0621553400780879
13.592199999999998,10.045911764929738,0.0618539297704718
13.594587999999998,10.045732356906113,0.0615588169300488
13.596968,10.047415280002042,0.0612607348895897
13.599367999999998,10.047887498284474,0.0609719889197966
13.601755999999998,10.044635054327792,0.0606879570535841
13.604156,10.042034236677168,0.0604117679069312
13.606552,10.03491736085451,0.0601371544216232
13.60894,10.020303938725387,0.0599008428892289
13.611324,10.002757250290069,0.0596717617246061
13.61372,9.980694503682717,0.0594432634237864
13.616108,9.96170479300842,0.0592023901437513
13.618488,9.938990420095008,0.0589652246421744
13.620888,9.917067443114515,0.0587302749247786
13.623276,9.897146566880442,0.0584883018503154
13.625656,9.883371762512482,0.058223289239096
13.628052,9.872250685196992,0.0579589098751102
13.63044,9.86341124788164,0.0576794450033541
13.63282,9.856573911312706,0.0573929662479787
13.635216,9.85066774030355,0.0571054995666043
13.637604,9.84462179966753,0.0568213333434156
13.639988,9.837132836792538,0.0565255422222734
13.642392,9.824708506864932,0.0562408159427005
13.64478,9.810701385071493,0.0559484323449221
13.647164,9.79897590327819,0.0556411316988164
13.64956,9.788041817417804,0.055335955953142
13.651948,9.773522838945166,0.0550286036107773
13.654332,9.760586652338365,0.0547272755803345
13.656728,9.751934206478111,0.0544055662034876
13.659116,9.746075257297198,0.054081739606407
13.6615,9.74137979110154,0.0537771062957902
13.663896,9.733471519345969,0.0534869812676949
13.666284,9.726354643523312,0.05319983523392
13.668668,9.719097998073796,0.0529165009621613
13.671064,9.709699482251006,0.0526423128465259
13.673452,9.69508606012188,0.0523879020066744
13.675836,9.677539371686562,0.05213829028702
13.678231999999998,9.656640108064463,0.0519062360124186
13.68062,9.63453013962887,0.0516822041927184
13.683004,9.610929927126056,0.0514751822708417
13.685403999999998,9.5891920457428,0.051266611095448
13.687791999999998,9.570899287344933,0.0510648114493315
13.690172,9.555260255999544,0.0508648964538612
13.692567999999998,9.540412620587071,0.0506681599102695
13.694956,9.527147777040438,0.0504796039860176
13.69734,9.518958070173277,0.050276982409577
13.699739999999998,9.512211385545088,0.0500860514714397
13.702127999999998,9.504533535357124,0.0498947473419538
13.704512,9.492711714049465,0.0497166746006224
13.706908,9.477165230502692,0.0495386699302427
13.709295999999998,9.458965019903449,0.0493558384289899
