Time,Force,Position
12.320564,5.959560479083944,0.1610402052316397
12.322964,6.08756825361436,0.1604950803256331
12.325348,6.201474462694849,0.1598167227250075
12.327732,6.296389065243171,0.1592588109661435
12.330128,6.3748713446553165,0.1588483520947667
12.332516,6.4447899342900925,0.1584105308686986
12.334896,6.504376946684428,0.1578719354217622
12.337296,6.548836784412571,0.1573308123868661
12.339684,6.572535232287612,0.156920317726243
12.342064,6.5774724951980925,0.1567090325373533
12.34446,6.57882486549632,0.1565488977094214
12.346848,6.59028028732525,0.1562352647610936
12.349227999999998,6.611838760684878,0.1557577055600844
12.351624,6.625016744006505,0.1554096537696137
12.354012,6.636611935462295,0.155081299201397
12.356392,6.651232941022896,0.1547404965784973
12.358788,6.671114178860205,0.1543761429908874
12.361176,6.695464253041303,0.153984113609104
12.363556,6.721769206140575,0.1535874370004377
12.365951999999998,6.747562302560647,0.1531796079428707
12.368339999999998,6.775637038980859,0.1527204529492953
12.370736,6.79784524278868,0.152377002982639
12.373132,6.8153503969693645,0.1521492450959484
12.37552,6.825313678873208,0.1520023014353766
12.3779,6.83336930368712,0.1518062994185043
12.389843999999998,6.819126072752464,0.1517969669808333
12.392224,6.819452833834428,0.1517377383468074
12.394624,6.819732373088151,0.1517216294308474
12.397008,6.823457035327266,0.1516665617408518
12.399408,6.842918964283994,0.1513441336809901
12.401804,6.855071338389358,0.1511230459886842
12.404192,6.859262531337294,0.1510021809341035
12.406572,6.859356974993782,0.1509185836282713
12.408968,6.866156569023818,0.150693227871383
12.411356,6.879801083054268,0.1503183091433778
12.413735999999998,6.896146545965437,0.1498727806505771
12.416136,6.90946619477179,0.149444394858171
12.418524,6.921575138764647,0.149044788768829
12.420903999999998,6.94141294648945,0.1485264260383164
12.4233,6.968420539438759,0.147914232020569
12.425688,6.996079758694126,0.1473057214699263
12.428071999999998,7.024018517203214,0.146681634914172
12.430468,7.057684038697833,0.1459777653463524
12.432856,7.096517244670541,0.1452208473496675
12.435236000000002,7.136421385829888,0.1444467178822372
12.437632,7.169667598443927,0.1437695559220539
12.44002,7.205055681431244,0.1430626515096512
12.4424,7.236998641433166,0.1423967800942732
12.4448,7.265589026248311,0.1418033285098749
12.447188,7.283377511398455,0.1413815287209869
12.449584,7.306520672481791,0.1408598586308985
12.45198,7.330874538378625,0.1403054411184775
12.454368,7.356531656887576,0.1397595506719962
12.456748,7.374133150582618,0.1393849124231747
12.459155999999998,7.3891734650238,0.1390757788950186
12.46154,7.39750862909143,0.1388963879123791
12.46392,7.4050051753979025,0.138761396594685
12.46632,7.415434988010566,0.1385841031560315
12.468704,7.421720829503539,0.1384772997309236
12.471088,7.427587362115931,0.1383929414469527
12.473484,7.435316225847877,0.1382862233838902
12.502152,7.46794855469476,0.1381818107851613
12.506924,7.47516366588964,0.1381771014563129
12.50932,7.483544155927645,0.1380756824733518
12.511708,7.490761162980394,0.1379603021157884
12.514088,7.498677018167445,0.1378110462845907
12.516484,7.510085218168132,0.1375944648135454
12.518876,7.525265302236173,0.1372990480211848
12.521256,7.537372350371161,0.137051016408679
12.523652,7.547477297759731,0.1368325373621833
12.52604,7.559724115521579,0.1365795900083548
12.528424,7.574904199589623,0.1362910205103883
12.53082,7.589013348471028,0.1360198889300377
12.533208,7.608337403658765,0.1356701355940779
12.535592,7.632224738846776,0.1352399916395087
12.537988,7.664959094781616,0.1346601924555364
12.540376,7.6945278669847825,0.1341029938652834
12.54276,7.720791285829417,0.1335676766034164
12.545156,7.747474013554634,0.1330163815802351
12.547544,7.779790956466762,0.13237351676224
12.549924,7.814529309005889,0.1316841034120948
12.552324,7.850618135985371,0.1309707613089442
12.554712,7.889919768524772,0.1302053001901493
12.557092,7.927870926623813,0.129476866519884
12.559488,7.969546746961969,0.1287115552200269
12.561876,8.005216265060874,0.1280261754152855
12.564272,8.037021351293806,0.1273906563681851
12.566667999999998,8.060678264914207,0.1268656205712025
12.569052,8.083823321855414,0.1263284732475473
12.571436,8.105245817303922,0.1258021082257898
12.573832,8.125225290513454,0.1252778800157411
12.57622,8.137895208871619,0.1248227487407717
12.5786,8.150053270550588,0.1243561440068766
12.626396000000002,7.760155830915446,0.1240213248837573
12.628776,7.74768048744386,0.1240155663764525
12.631172,7.73734701434555,0.1239790987768573
12.633556,7.72673400199352,0.1239554059264672
12.63594,7.718495177440245,0.123924777591741
12.638336,7.709045648073471,0.1239156431804169
12.640724,7.708535687252143,0.1238006136851233
12.64312,7.712309467177369,0.123624182687056
12.645516,7.715803707848872,0.1234600008898124
12.647904,7.721300049266794,0.1232718512830235
12.650284,7.728938261057994,0.1230534975582685
12.652684,7.740720443968887,0.122778611797696
12.655072,7.756367058745754,0.1224625542021957
12.657452,7.772805069455538,0.1221453757951994
12.659847999999998,7.794178447217933,0.1217713991103808
12.662235999999998,7.816622760166969,0.1213835642908271
12.664616,7.832548914197557,0.1210581882775755
12.667012,7.851408334534339,0.1207020113659746
12.6694,7.866123783751428,0.1203978263709325
12.67178,7.8849832040882095,0.1200417089953554
12.674179999999998,7.9023996021860174,0.1196851135383343
12.676568,7.918233208417986,0.1193345457525712
12.678948,7.934486123530537,0.1189656193213651
12.681347999999998,7.95022718196389,0.1185861393063558
12.683732,7.965735922971765,0.1181828063243383
12.686116,7.978730706554026,0.117791792136158
12.688512,7.986278266404477,0.1174459743485836
12.6909,7.988471150321735,0.1171732744539121
12.693284,7.996018710172186,0.1168284320525474
12.69568,7.999562068529805,0.1165286206305756
12.698068,8.002686118006842,0.1162490889325206
12.700463999999998,8.007812268230296,0.1159482808583334
12.70286,8.007863281774277,0.1157063865179476
12.705248,8.004329402706006,0.1154897500314733
12.707631999999998,7.996931091771761,0.1153113641342352
12.710028,7.985808118598404,0.1151644661420635
12.712416,7.976687246171463,0.1149946406450622
12.7148,7.964633107438327,0.1148548620212415
12.717196,7.958864810198161,0.1146352970196553
12.719584,7.946019275532104,0.1144964473571251
12.721968,7.931171640119633,0.1143793464531745
12.724364,7.912319803214327,0.114306538687854
12.726752,7.892117491868664,0.1142602615503815
12.729131999999998,7.874289368321754,0.1142085577375261
12.731532,7.85804403664068,0.1141531246587876
12.73392,7.841519165705888,0.1141103660059619
12.736304,7.824574985890512,0.114086940487028
12.738704,7.815918748314526,0.1139616918429754
12.741092,7.803398078872564,0.1138733473305892
12.743476,7.795812776483216,0.1137334933991716
12.745872,7.785433977414533,0.1136165672380348
12.74826,7.775194947972709,0.1134930511393745
12.75064,7.772033155956775,0.1132916282448496
12.75304,7.773666961366593,0.1130463334066732
12.755428,7.778885659388664,0.1127776277787011
12.757808,7.789831120396265,0.1124585434254816
12.760204,7.801288438083064,0.1121507991846593
12.762588,7.814747856516281,0.1118227594449359
12.764968,7.829138440509275,0.1114913150726979
12.767364,7.847393456368241,0.1111225662814975
12.769752,7.867371033719905,0.1107448772484306
12.772132,7.895077474803516,0.1102973521657959
12.774536,7.9238548510737665,0.109836408829994
12.776924,7.948907565104902,0.1094051332460517
12.779303999999998,7.972889343949399,0.1089888423773661
12.781708,7.999804389100092,0.1085447799993741
12.784092,8.03007200943756,0.1080545984722609
12.786476,8.052191457162502,0.1076556397741909
12.788876,8.07454322231292,0.1072806297312632
12.791264,8.095963821903561,0.1069159402200894
12.793644,8.121528392613893,0.1065061160856464
12.79604,8.142017826644755,0.106150023041234
12.798428,8.155569792876587,0.1058620066879561
12.800807999999998,8.165117557615586,0.1056141037887769
12.803212,8.174944861608306,0.1053559836565424
12.8056,8.183841000041248,0.1051070437625551
12.80798,8.191154346608352,0.1048587669780766
12.810376,8.19632582280218,0.1046360674332759
12.81276,8.199355428622729,0.1044398860672367
12.81514,8.205597840003197,0.1042077487448379
12.817544,8.209838150637246,0.1039938350282851
12.819928,8.2111451949651,0.1038064080842929
12.822308,8.212032930412374,0.1036367321373284
12.824716,8.215714162538982,0.1034480810025716
12.8271,8.221537265038869,0.1032359260235034
12.829484,8.226289432352116,0.1030363439882619
12.83188,8.231413686717701,0.1028550501281995
12.834264,8.24040237294926,0.1026429375086279
12.836644,8.254605965487151,0.1023789917489979
12.83904,8.267179544330963,0.1021506455124956
12.841428,8.279333814294194,0.101941587562161
12.843824,8.294002041683036,0.1017251832214784
12.846227999999998,8.312255161684135,0.1014899858538317
12.848612,8.335164109484126,0.1012255813112891
12.850996,8.355791417283978,0.1009918872299314
12.853392,8.374137085083692,0.1007885627206038
12.855776,8.39606764549566,0.1005680008267091
12.85816,8.420931472213823,0.1003251588167256
12.860556,8.441511558185436,0.1001278535844793
12.862944,8.459670234530046,0.0999670513194684
12.865324,8.481972881994354,0.0997665811752318
12.86772,8.500271327965823,0.0996002108598511
12.870108,8.5180579172581,0.0994222952770974
12.872488,8.536124045804094,0.0992342194074056
12.874888,8.550046203230393,0.0990864239813101
12.877276,8.564759756589613,0.0989390153811505
12.879656,8.577099122150077,0.0987921313692976
12.882052,8.586784760658066,0.098656521503883
12.88444,8.58874153543411,0.0985774984563726
12.886819999999998,8.590326223157815,0.0984813455146145
12.889224,8.586975543828908,0.0984243339320982
12.891612,8.585115108567221,0.0983391844293353
12.893992,8.583673982186115,0.0982373176242862
12.896388,8.577577028006115,0.0981630136226494
12.898776,8.572690778639618,0.0980720191294186
12.90116,8.567152902967061,0.097975162925736
12.903556,8.558821530615166,0.0978946404417815
12.905944,8.545694560837521,0.0978466903536848
12.908324,8.534989000686878,0.0977654003386747
12.91072,8.520838317550835,0.0976946067563726
12.913108,8.50361459848174,0.0976510553757943
12.915504,8.493468116838535,0.0975467483756004
12.9179,8.484392570381967,0.0974311555074112
12.920288,8.472383757619205,0.097336962379004
12.922672,8.461725419296801,0.0972202588966858
12.925068,8.452557325041615,0.0970758536510182
12.927456,8.445903188212046,0.0969267620717373
12.929836,8.441902778434951,0.0967672984026407
12.932232,8.441906570150689,0.096575345278518
12.934624,8.440839426679789,0.0963937263753302
12.937004,8.444987189515222,0.0961632022214951
12.9394,8.448203786790874,0.0959385617490893
12.941784,8.451420384066529,0.0957147974431931
12.944164,8.457570247648379,0.0954699523841628
12.946564,8.461997549737532,0.0952301674158047
12.948948,8.466424851826684,0.0949900782514392
12.951344,8.475275664289253,0.094703225192943
12.953739999999998,8.487059743058014,0.0943948880620536
12.956128,8.501916857759833,0.0940616435736643
12.958508,8.520498634700763,0.0937081028346944
12.960904,8.540291116455192,0.0933387069560503
12.963292,8.554077295970371,0.0930174130461611
12.965672,8.565861374739132,0.0927113106960761
12.968075999999998,8.583372216493427,0.0923719969170408
12.970463999999998,8.604607720486833,0.0920154132794542
12.972844,8.622909958174043,0.0916803746152862
12.97524,8.637767072875862,0.0913539667401985
12.977628,8.650901626084982,0.091031934828476
12.980008,8.663244783361186,0.0907104702382137
12.982404,8.679871681383942,0.0903497327178964
12.984792,8.694636248287143,0.089999991717019
12.987172,8.710471750376982,0.0896418774200921
12.989568,8.725236317280181,0.0892948023832313
12.991956,8.739628797131045,0.0889323633121235
12.994352,8.75402127698191,0.088569883358538
12.996747999999998,8.772697497579326,0.0881710419331395
12.999135999999998,8.788021142989967,0.0878089317327576
13.00152,8.805486658773885,0.0874297828314127
13.003915999999998,8.818808203438111,0.0870837232202284
13.006303999999998,8.831478121796279,0.0867325007460735
13.008684,8.849223176833918,0.086349068221188
13.011080000000002,8.872183138177888,0.0859266479111602
13.013468,8.901149401761112,0.0854678398160978
13.015848,8.923457736799024,0.0850429846574058
13.018244,8.940830704784325,0.0846487919000827
13.020632,8.954059701649932,0.0842830131312084
13.023012,8.969011260008235,0.0839145300816942
13.025408,8.986104688739818,0.0835290215906058
13.027796,9.000776707844402,0.0831713953720115
13.03018,9.016240122881904,0.0828186071619977
13.032576,9.032914242732904,0.0824535624373701
13.03496,9.048377657770406,0.0821036187748446
13.03736,9.061978741688348,0.081760566037935
13.039756,9.072087480792655,0.0814533320348236
13.042144,9.085129486203163,0.0811315702545805
13.044524,9.092677046053614,0.0808586281986373
13.046919999999998,9.099293440344288,0.0805891675784312
13.049307999999998,9.103628194634824,0.0803426299008156
13.051692,9.110104819298636,0.0800789183271759
13.054092,9.118304005455148,0.0798146560109031
13.05648,9.118355018999129,0.0796029179219337
13.058863999999998,9.114401831050277,0.0794147442046969
13.06126,9.107096067914648,0.0792567339421044
13.063652,9.101652635898576,0.0790917830419979
13.066031999999998,9.096348973509365,0.0789212515740222
13.068436,9.103057915598656,0.0786837179643299
13.070824,9.114841994367415,0.0784179273428185
13.073208,9.129559339442377,0.0781407412545888
13.075604,9.147629259704107,0.077835275357392
13.077992,9.161694978473008,0.0775528345286849
13.080372,9.175481157988187,0.0772816332981254
13.082772,9.189686646383947,0.0769967575394801
13.085156,9.205102839593206,0.0766991103001224
13.087535999999998,9.228667205414991,0.0763566886653912
13.089932,9.249018765676864,0.0760382036573205
13.092324,9.270441261125372,0.0757111563460695
13.094703999999998,9.2926551525068,0.0753862513751353
13.0971,9.314217417582167,0.0750547310563369
13.099488,9.338852718590594,0.0747080455365422
13.101868,9.357341947732907,0.074396159601175
13.104272,9.380766543927832,0.0740615499002295
13.106656,9.400838564935984,0.0737525797786816
13.109036,9.4176052325856,0.0734398481886402
13.111432,9.43344073467544,0.0731292259638106
13.11382,9.451418107138558,0.0728037289469225
13.1162,9.455380774376756,0.0725492069750542
13.118604,9.452545743442784,0.0723233477708289
13.120992,9.443564640642702,0.0721321273204171
13.123371999999998,9.436306099335315,0.0719413051110703
13.125768,9.427185226908376,0.0717546499236587
13.128151999999998,9.413920383361742,0.0715916447310374
13.130536,9.399025526121028,0.0714545061572151
13.13294,9.385713460746148,0.0713217638271526
13.135324,9.3661155538783,0.0712266789447983
13.137704,9.346517647010453,0.0711313324818627
13.1401,9.330412084956238,0.0710049998206298
13.142487999999998,9.313515126969104,0.0708759601246567
13.144872,9.298340730474669,0.0707467883414046
13.147268,9.279813758793455,0.0706429233529052
13.149655999999998,9.26892310304558,0.070485792103868
13.152036,9.254168015431723,0.0703418259769467
13.154431999999998,9.24448806449734,0.0701725749901508
13.156820000000002,9.237042531734854,0.0700150832424294
13.159216,9.234392596398118,0.0698423023518935
13.161612,9.233045913673498,0.0696843566057109
13.164,9.239707633934543,0.0694897371185861
13.166379999999998,9.244739340501509,0.0693198671874441
13.16878,9.24856034225498,0.0691607356376736
13.171164,9.247445976955838,0.0690221019676587
13.173544,9.249916504268947,0.0688794558004229
13.175948,9.255599837141972,0.0687158241700875
13.178336,9.262354105201634,0.0685451843667792
13.180716,9.26882883400758,0.0683845227369405
13.183112,9.275955189119582,0.0682310613728028
13.1855,9.286154580164638,0.0680622641468022
13.187879999999998,9.295515353448533,0.0679229399082615
13.190276,9.30981149378504,0.0677651177376176
13.192664,9.322245303001992,0.0676116452381716
13.195044,9.332816781099384,0.0674619466675412
13.19744,9.34147870624898,0.0673481062011596
13.199824,9.353865293637687,0.0672268792993117
13.20222,9.367602355466756,0.0670909129873449
13.204616,9.38255012210932,0.0669442052510998
13.207004,9.396706492818968,0.0667962377150287
13.209388,9.411561711662916,0.0666266276110944
13.211784,9.43121252793262,0.0664459741189005
13.214172,9.458359890508785,0.0662224850801209
13.216551999999998,9.49086192901815,0.0659682213201957
13.218948,9.527368169020349,0.0656990052557026
13.221336,9.562151847529844,0.0654292390986055
13.223719999999998,9.59865808753204,0.0651623412890281
13.226116,9.637306197907517,0.0648847437628673
13.2285,9.674651055670871,0.0645933286345881
13.230884,9.712554991941673,0.0642844757145604
13.23328,9.746594496346496,0.0639874206582263
13.235668,9.777188877765926,0.0636880483648672
13.238064,9.798983460266774,0.0634163310455656
13.24046,9.819707107580983,0.0631501196532267
13.242848,9.842293086014749,0.0628805729552283
13.245232,9.862644646276618,0.0625985455995296
13.247628,9.879271544299376,0.06232294479465
13.250016,9.893337263068275,0.0620735556033908
13.2524,9.906332046650538,0.0618305758302094
13.254796,9.915974255046022,0.061610090692093
13.257184,9.920401557135175,0.0614143578926815
13.259564,9.920173031425437,0.0612269552971918
13.26196,9.913798433849584,0.0610652032641246
13.264348,9.903279865154042,0.060921528086685
13.266728,9.88782592940589,0.0607925677120693
13.269128,9.876376195150566,0.0606499751314269
13.271516,9.862132964215906,0.0605109823387348
13.273896,9.844165071042136,0.0603764286942408
13.2763,9.827779969734202,0.060247838123212
13.278684,9.812745342866627,0.0601048872089028
13.281068,9.800643982305248,0.0599540340764953
13.283464,9.790544722490289,0.0597963283653913
13.285852,9.788314096034131,0.0596168941924415
13.288232,9.794231642190503,0.0594086981975455
13.290628,9.801779202040954,0.0591788022321861
13.293016,9.808907453010828,0.0589615640173716
13.2954,9.819108739913752,0.058733100969893
13.297796,9.83000887495098,0.0584837591654056
13.300184,9.842539023682289,0.0582131271675402
13.302564,9.854836854988116,0.0579218212263682
13.30496,9.872209822973415,0.0576135896287871
13.307348,9.886649524652524,0.0573126636723763
13.309732,9.903650405585488,0.056989028425351
13.312128,9.922141530585671,0.0566473600526888
13.314516,9.943985230772627,0.0562860779393164
13.3169,9.960241937600918,0.0559304782884351
13.319296,9.977849118869567,0.0555619332182137
13.321684,10.000391667190826,0.0551828414344529
13.32408,10.020420258086473,0.0547978481803239
13.326476,10.03695650416848,0.0544364678779502
13.328864,10.052701354317572,0.0540726897958482
13.331248,10.065652707787326,0.0537103354013119
13.333644,10.073017067898416,0.0533521530595555
13.336032,10.07065046353114,0.0530130243640557
13.338412,10.064000118417306,0.0526921768714596
13.340808,10.056837916624277,0.0523584343153512
