Time,Force,Position
11.438264,6.424593281059666,0.1557941284868735
11.44066,6.428597482552501,0.1557210993031716
11.443048,6.435302632926049,0.155569633123358
11.445428,6.441775465874123,0.155387357736864
11.447824,6.446153650277164,0.1552076033354673
11.450216,6.460123029531708,0.154866073867974
11.452596,6.480051489197259,0.1544546506149456
11.454999999999998,6.506498107781257,0.1539401920879627
11.457384,6.541744525283842,0.1532704087010446
11.459768,6.578294195398542,0.1526173550279918
11.462167999999998,6.618661075550975,0.1519508916011984
11.464552,6.655767928315246,0.1513898441723832
11.466936,6.69152430663916,0.1508661528409757
11.469332,6.726629058657018,0.1503357734151836
11.47172,6.763224054742093,0.1497536823770668
11.4741,6.80037812933461,0.1491457640515972
11.4765,6.843678275793237,0.1484180732112572
11.478888,6.885814939266609,0.1476798460248391
11.481272,6.9193387952765,0.1470562230021577
11.483668000000002,6.944529383076627,0.1465178096780298
11.486056,6.964924373451002,0.1460626705769802
11.488436,6.975029320839572,0.1458041148283965
11.490832,6.985785894534202,0.1455489025742333
11.49322,6.998684338602108,0.1452466209483335
11.495615999999998,7.010791386737096,0.1449490448412322
11.498012,7.018614694125532,0.1447415471255881
11.5004,7.028440102260382,0.144502898625813
11.502783999999998,7.036263409648815,0.1443001078146236
11.50518,7.036777162185883,0.1441935797559472
11.509948,7.020346734907579,0.1441321797492963
11.512344,7.016718412182823,0.1439841595788903
11.514736,7.015511499085061,0.1437797938668149
11.517116,7.014863664494742,0.1435436599680055
11.519512,7.014355599531285,0.1432998355538363
11.5219,7.008120771582294,0.1431396986811056
11.524284000000002,6.99895267732711,0.1430250220200497
11.526675999999998,6.9904362093779815,0.142912769898775
11.529063999999998,6.983502533294688,0.142790420385909
11.531448,6.981596772062627,0.1426237462921168
11.533843999999998,6.982204968256181,0.1424356892050728
11.536231999999998,6.988260388181546,0.1421806512857178
11.538612,6.993384642547131,0.1419382637658717
11.541016,7.002233559151827,0.1416461297474505
11.543404,7.012153410943167,0.1413335093891137
11.545784,7.019838844562607,0.1410276321975281
11.54818,7.023799615942935,0.1407733485626813
11.550567999999998,7.029902257696541,0.1404813650471239
11.552948,7.0367962953830645,0.1401830100356069
11.555344000000002,7.046064520868341,0.1398709427200704
11.557732,7.0613390485928695,0.1394653786948204
11.560116,7.076334037063676,0.1390824493035625
11.562512000000002,7.092492508519738,0.1387160751733042
11.564900000000002,7.110745628520835,0.1383525306152155
11.567296,7.128998748521931,0.1379895048524332
11.5697,7.151116300389004,0.1375706086104842
11.572084,7.173094082629218,0.137159479752756
11.574464,7.195351404123151,0.136735322720876
11.576868,7.215327085616947,0.1363558395561993
11.579256,7.236932780804821,0.1359329008353328
11.581636,7.257514762634299,0.1354926436045945
11.584036,7.277073031105382,0.135035638360254
11.586424,7.29863340032288,0.134551277173939
11.588804,7.31870352547316,0.1341084102694262
11.591208000000002,7.341427377675915,0.1336429306768281
11.593596000000002,7.366944726558006,0.13314644292753
11.595972,7.391391140253457,0.132668022191359
11.598368,7.412484978762133,0.1322534208302437
11.600756,7.437023940256203,0.131810813591663
11.603136,7.460631736190493,0.1313798185576007
11.605532,7.480375100258811,0.131003070706627
11.607916,7.496393802088016,0.1306718121055474
11.610296000000002,7.511900647238023,0.1303323693215534
11.612704,7.525545161268472,0.1300134342320856
11.615088,7.538118740112283,0.1297113642011776
11.617468,7.554184663769728,0.1293479395460893
11.619872,7.572532227427311,0.1289457300769258
11.622256,7.590320712577454,0.1285720648192516
11.624636,7.611042464033791,0.1281610505195042
11.627032,7.626409539556937,0.1278357035220071
11.62942,7.641217536572642,0.1275397530138534
11.631799999999998,7.655186915827187,0.127286576670646
11.634204,7.669528382134068,0.1270530208852924
11.636588,7.685220322881309,0.1267901906398312
11.638972,7.698538075829795,0.1265377647401784
11.641368,7.709993497658725,0.1263054632776159
11.643756,7.72345102023407,0.1260480781782119
11.64614,7.739841809115611,0.1257568996566249
11.648536,7.755720741317956,0.12545725578686
11.650924,7.772810378333799,0.1251360469789658
11.653304,7.791482807215476,0.1248113039370699
11.6557,7.809084300910517,0.124502372344425
11.658088,7.820539722739447,0.124273424138604
11.660468000000002,7.836790741994129,0.1239935201477179
11.662864,7.857045962741645,0.1236655054602108
11.665252,7.870875572369328,0.1234330411516752
11.667648,7.881492376437097,0.1232479443121377
11.670044,7.890386619012168,0.123073678473013
11.672432,7.897418530467683,0.1229175321113081
11.674812,7.904729981176919,0.122747135315626
11.677208,7.910179100766598,0.1225948161357706
11.679596,7.91432496774416,0.1224343380279869
11.681976,7.913954776549692,0.1223122373590583
11.684372,7.911722254235667,0.1222081913445944
11.68676,7.908279027108144,0.1221261849016135
11.689144,7.906186274420979,0.1220155758123959
11.69154,7.9019516513605375,0.1219358567879679
11.693928,7.8938525964341215,0.1218980563636314
11.696307999999998,7.885613771880846,0.1218663807728929
11.701096,7.861966337549788,0.1218591508132447
11.703475999999998,7.849490994078201,0.121850979013011
11.70588,7.843161722472725,0.1217643245238803
11.710648,7.815092673626124,0.1217184975400487
11.713044,7.80308386086336,0.1216529423303605
11.715428,7.793636227354455,0.1215374173863788
11.717812,7.789263730525024,0.1213597555034662
11.720216,7.787172873695729,0.1211458193128634
11.7226,7.789086218359268,0.120885400115672
11.72498,7.791698411157107,0.1205924142857468
11.72738,7.794031064701226,0.1203118796599324
11.729764,7.798226049364903,0.120013079730678
11.732148,7.804283365148135,0.1196977295114796
11.734552,7.80833858018495,0.1194042751709947
11.736936,7.809972385594767,0.1191541359750308
11.739316,7.814027600631583,0.118861370552562
11.74172,7.8210160819745935,0.1185366524261819
11.744108,7.825071297011409,0.1182436180970911
11.746488,7.830057677608002,0.1179421200796431
11.748884,7.83783755488393,0.1176153887103453
11.751272,7.846408828092777,0.1172876250053929
11.753652,7.855911266861402,0.1169538286682714
11.756048,7.8662051015629455,0.116617431123292
11.758436,7.880503137757323,0.1162358173234396
11.760832,7.891448598764924,0.1159057745078767
11.763228000000002,7.899972650145527,0.1156185005936904
11.765616,7.907285996712631,0.115354735094237
11.767996,7.913248868839377,0.1151187780436839
11.770396000000002,7.917069870592845,0.1149121023746726
11.77278,7.92219412495843,0.1147154763903325
11.77516,7.93053118488393,0.1144775538978627
11.777564000000002,7.941941280742486,0.1142049225536358
11.779952000000002,7.952559980668123,0.1139347566562519
11.782332,7.968393586900093,0.113601800066113
11.784728,7.983575566826006,0.1132626877856746
11.787116,7.994613575632225,0.1129726528143174
11.789496,8.004720418878664,0.1126911673558841
11.791899999999998,8.016829362871523,0.1123878204150205
11.794288000000002,8.030800637983935,0.1120709951739077
11.796668,8.044632143469487,0.1117618700831875
11.799064,8.05380782115615,0.1114889699813106
11.801448,8.058839527723116,0.1112648746316132
11.803832,8.064662630223001,0.1110395018396981
11.806228,8.066341761603194,0.1108626653403779
11.808616,8.069511137050604,0.1106535151653545
11.811,8.075613778804211,0.1104165757193666
11.813392,8.075989657572286,0.1102295785609654
11.81578,8.075434370780584,0.1100497830884673
11.818164,8.073156522496184,0.1098781491002103
11.82056,8.072089379025286,0.1096874343388602
11.822944,8.067809429994469,0.1095372310006981
11.82534,8.061527380217235,0.1094076929735415
11.827736000000002,8.056036726372922,0.1092771713599392
11.830124,8.050126763648027,0.1091652246132561
11.832504,8.049943563908663,0.1090058285062759
11.8349,8.056558062341466,0.1087866215203977
11.837288,8.062101625587632,0.1085802663528063
11.839672,8.066574253647158,0.1083867483938751
11.842068,8.065459888348014,0.1082340114303227
11.844456,8.061040169690338,0.1080901606429504
11.846836,8.063557918831693,0.1078803411735471
11.849232,8.071430343906238,0.1076070943559836
11.85162,8.083586509727338,0.1072853959016958
11.854016,8.10123712110849,0.1068961817733087
11.856412,8.121541459542119,0.1064965101286016
11.8588,8.14012323648305,0.106106072470153
11.86118,8.161498510103316,0.105693617859047
11.863575999999998,8.185807050029778,0.1052571532154922
11.865963999999998,8.21477141775513,0.1047902605278637
11.868344,8.239591814360788,0.1043675896521307
11.87074,8.267485246899502,0.1039157171438328
11.873128,8.294587283505297,0.1034649255234462
11.875512,8.319826988991537,0.1030278049773358
11.877908,8.342412967425304,0.1026050091700637
11.880296,8.360203348433314,0.1022219724679822
11.882676,8.374269067202212,0.1018665293849636
11.885072,8.389545490784611,0.1014935735879922
11.887456,8.407894950300065,0.1010922355461451
11.889855999999998,8.430900237614411,0.1006598403489606
11.892252,8.456279712727511,0.1002260302208817
11.89464,8.477654986347776,0.0998304438362766
11.89702,8.495817454408128,0.0994729417536242
11.899416,8.509044555415866,0.0991586477557917
11.901803999999998,8.518639541983108,0.0988975713429307
11.904184,8.523299161497738,0.0986766945436624
11.906580000000002,8.528750176945286,0.0984565042712028
11.908968000000002,8.539136559445446,0.0981986584979979
11.911348,8.545658510079633,0.0979687022753742
11.913744,8.548735337728427,0.0977503065668513
11.916132,8.555164740563995,0.0974933241017025
11.918527999999998,8.555448071533455,0.0972907185855673
11.920924,8.556383028808973,0.09709383053501
11.923312,8.559459856457767,0.096875298760504
11.925696,8.564538784852976,0.0966408332808261
11.928092,8.570409109181105,0.0964065638144428
11.93048,8.574789189442015,0.0961997889416881
11.932864,8.577818795262566,0.0960149936133928
11.93526,8.5788463003367,0.0958469223254318
11.937644,8.578802870224195,0.0956898942395777
11.940028000000002,8.580621771231247,0.0955229177480796
11.942424,8.58830720485069,0.0953154327309393
11.944812,8.595992638470133,0.095108276910936
11.947196000000002,8.602979223955275,0.094928153594534
11.949592,8.609453952761218,0.094736585897064
11.95198,8.618861947873356,0.0945243164314657
11.954363999999998,8.627199007798856,0.0943231293236772
11.95676,8.629529765485106,0.094169033704328
11.959143999999998,8.634933559104411,0.0939890814602688
11.961528,8.642571770895609,0.0938166350587258
11.963924,8.651513235298925,0.0936573614921074
11.966312,8.667531937128128,0.0934422851436988
11.968692,8.686344135636666,0.0932139602281591
11.971092,8.706459586757322,0.0929995947996696
11.97348,8.727645973064616,0.0927772993719093
11.97586,8.752045164931824,0.0925270313901923
11.978264,8.782078571985945,0.0922189654379735
11.980648,8.813322683853567,0.0918957120816215
11.983028,8.845358191654107,0.0915744036979642
11.985432,8.879535569827924,0.0912355060630947
11.98782,8.913061321695682,0.0908931654237794
11.990200000000002,8.937367965764274,0.090623053171278
11.992604,8.961534840206005,0.090358713754167
11.994992,8.987331728341816,0.0900636246091672
11.997372,9.013640473156826,0.0897799798452353
11.999768,9.03673641241192,0.0895249991895269
12.002156,9.06076351722679,0.0892663707595793
12.00454,9.089865758721135,0.0889712726218407
12.006936,9.118828230588615,0.0886833296603777
12.009324,9.146347680217122,0.0883898996446158
12.011708,9.16977038055418,0.0880982335570249
12.014104,9.187466317905706,0.0878378101124324
12.016492,9.20050642745834,0.0875988866172442
12.018876,9.208099313279169,0.0873799180353145
12.021272,9.209266587980162,0.0872164538268185
12.023656,9.204148021188184,0.0871036611221727
12.026039999999998,9.191532908089735,0.0870555411447134
12.028436,9.179988730177929,0.0869979117201451
12.03082,9.166721990773423,0.0869431062063231
12.033204,9.15331548174206,0.0868930411076332
12.0356,9.136044540844722,0.0868636460568169
12.037988,9.1231971103208,0.0867928048915381
12.040368,9.10662501755776,0.0867378732772157
12.042768,9.089913155167864,0.0866876326074386
12.045156,9.074691536845185,0.0866126412480411
12.047552,9.062822493709282,0.0865051862576155
12.049948,9.049230889080684,0.0864003595289343
12.052336,9.028981355906776,0.0863277220860295
12.05472,9.009942527546366,0.0862404246724204
12.057116,8.992766030305516,0.0861449706354345
12.059504,8.977172324930502,0.0860515087628911
12.061884,8.968236548100794,0.0859263908308082
12.06428,8.961722180898084,0.0857732651672668
12.066668,8.956138979255153,0.0856156998864038
12.069048,8.95805232391869,0.0853962027578813
12.071444,8.963597783022724,0.0851344221760057
12.073832,8.971424882126897,0.0848486579061522
12.076216,8.979112211604207,0.0845690731462568
12.078612,8.98679954108152,0.0842891943386596
12.080996,8.990762208319717,0.0840244973066135
12.083379999999998,9.001522573730083,0.0837246575955374
12.085776,9.012282939140452,0.0834254564256501
12.088164,9.031843103469404,0.0830795571923621
12.090547999999998,9.053405368544771,0.0827231639216304
12.092944,9.073896698433506,0.0823769656945745
12.095332,9.097600833882153,0.0820091663332883
12.097728,9.124657544517577,0.0816133071152799
12.100124,9.155438917392113,0.0812026684258692
12.102512,9.18235585840067,0.0808120385398131
12.104892,9.20554813717012,0.0804359245307156
12.107288,9.226878084820012,0.080066229193051
12.109676,9.242621039111237,0.0797180148505211
12.11206,9.25994678526829,0.0793751288932448
12.114456,9.280625106612128,0.0790035383003096
12.116844,9.300232492769322,0.0786436093764649
12.119224,9.319420570045937,0.0782993512195391
12.12162,9.33981935213605,0.0779428542309935
12.124008,9.357704176800548,0.0775862150123128
12.126388,9.376939475905408,0.0772126750026187
12.128788,9.396314544637123,0.076833311435686
12.131176,9.410894015943091,0.076475796834032
12.133556,9.426544422435695,0.0761118978651015
12.135952,9.436328296315912,0.0757769166951319
12.13834,9.440385407210597,0.0754632802794737
12.140736,9.441369482172227,0.0751669046493722
12.143132,9.435276319707969,0.0749095211609489
12.14552,9.425039186124012,0.0746772696249663
12.1479,9.417083692540196,0.074425768125651
12.150303999999998,9.407777724516018,0.0741900814916222
12.152691999999998,9.40019431798454,0.0739534097794407
12.155072,9.394473242572618,0.0737110344479489
12.157468,9.389543563093614,0.0734701798814499
12.159856,9.37781618544244,0.0732565785689141
12.162236,9.365669498910687,0.0730574672472512
12.164636000000002,9.350449776445878,0.0728754435122773
12.16702,9.335230053981068,0.0726932184671491
12.169404,9.3186598570759,0.0725273533731828
12.1718,9.306745487969623,0.0723489137509861
12.174184,9.296274141102325,0.072179884454538
12.176568,9.291529557220551,0.0719921084942182
12.178968,9.285714038152143,0.071810882204077
12.181352,9.280689915016657,0.0716325183456696
12.183736,9.275945331134883,0.0714444707694203
12.186132,9.28014031579856,0.0712178544069707
12.18852,9.289410437141708,0.0709661908296896
12.1909,9.300682659231272,0.0707047558398987
12.1933,9.311535572440258,0.0704565448282017
12.195688,9.318104744902689,0.0702363614304052
12.198068,9.33002859329831,0.0699820325259099
12.200464,9.34316314650743,0.0697170912739683
12.202852,9.35736863490319,0.0694461996888274
12.205236,9.376649259978423,0.0691527616199609
12.207632,9.40580061915888,0.0688212490746399
12.210016,9.434300352033278,0.0684840432478938
12.212416,9.46079798416126,0.0681544870852877
12.214811999999998,9.4874353859161,0.0678211970523355
12.217199999999998,9.519427463604137,0.0674575721791074
12.21958,9.549417440545753,0.0671054448106116
12.22198,9.575962294501974,0.0667528151950431
12.224364,9.599713651778869,0.0664089862634853
12.226748,9.627329440921727,0.0660543056784503
12.229144000000002,9.65122056782548,0.0657077388683661
12.231532,9.678836356968343,0.0653563709213146
12.233916,9.696301872752263,0.0650498290315573
12.236312000000002,9.71483832372282,0.0647399510240115
12.2387,9.73616827137271,0.0644263980048137
12.24108,9.76005939827646,0.0640875075451124
12.243476,9.785952625926624,0.0637407662068588
12.245864,9.811706083949932,0.0634014413419981
12.248248,9.834386506040184,0.0630760705417987
12.250644,9.857346467384156,0.0627437799033902
12.253032,9.874439896115735,0.062430616916186
12.255416,9.886597957794706,0.062135502440006
12.257812,9.898476480219951,0.0618496345392126
12.2602,9.917292470444233,0.0615423521369227
12.262584,9.93531706473559,0.0612325968111651
12.26498,9.945053716787562,0.060959530095181
12.267368,9.95064639771984,0.0607041079289163
12.269752,9.957542331264232,0.0604632615748751
12.272148,9.959223358502292,0.0602453913734822
12.274539999999998,9.95797111943416,0.0600358258285037
12.27692,9.957370506672085,0.0598332385298091
12.279316,9.951554987603677,0.0596540435957201
12.281707999999998,9.951606001147656,0.0594585403511318
12.284088,9.947513043571943,0.0592810754151826
12.286484000000002,9.939415884503395,0.0591167140963972
12.288875999999998,9.928757546180991,0.0589757586470845
12.291256,9.920380847858729,0.058819846321788
12.293652000000002,9.91079344472296,0.0586738459091073
12.29604,9.903068372706754,0.0585254709608769
12.298424,9.894923991809964,0.0583900630342055
12.300820000000002,9.890504273152288,0.0582507141596436
12.303208,9.882871748934695,0.0581266468599059
12.305592,9.877381095090382,0.0579923540886304
12.307988000000002,9.866163678260538,0.0578678660947318
12.310376000000002,9.85652905329653,0.0577499120891137
12.31276,9.854111435385272,0.0576046555648934
12.315155999999998,9.855977558220566,0.0574389037352032
12.317544000000002,9.861336025869498,0.0572502778084137
12.319924,9.872700795757678,0.0570439416287083
12.322323999999998,9.8851365008325,0.0568327830267311
12.324712000000002,9.900924781094096,0.0566032085082272
12.327096,9.916340974303356,0.0563567803214442
12.329491999999998,9.934178577139612,0.0560938891825085
12.331884,9.94908291366967,0.0558364034490989
12.334264,9.967200055759648,0.0555644413511754
12.336659999999998,9.99067187378282,0.0552689193565066
12.339044,10.01186205180585,0.0549888078348035
12.34144,10.029467337216628,0.0547071266643691
12.343836,10.048423097067769,0.0544133876035587
12.346224,10.065516525799346,0.0541213001383807
12.348604000000002,10.074601551545255,0.0538496659431034
12.350996,10.088110087664589,0.0535547408816437
12.353383999999998,10.097893961544802,0.0532627156104757
12.355764,10.106467130611518,0.0529785185858136
12.358164,10.111315637439125,0.0526960900946224
12.360548,10.113091108333668,0.0524246716667876
