Time,Force,Position
11.076287999999998,6.179025085698534,0.1622208089331737
11.078668,6.197461405438998,0.1619563986703103
11.081076,6.219762157045434,0.1616169090698816
11.08346,6.245927340517844,0.161211951691296
11.085839999999996,6.284197676267375,0.1606179816707831
11.088235999999998,6.332198976495269,0.1598484423531752
11.090623999999998,6.379548650417102,0.1590602526810343
11.093004,6.427876711726958,0.1581958976480698
11.095399999999998,6.475041290051561,0.1573156377277361
11.097787999999998,6.51647910539063,0.1565531215105094
11.100172,6.550140835169511,0.155996723920533
11.102563999999996,6.584686508679925,0.1554712762988118
11.104952,6.63203618260176,0.1547043835016568
11.107336,6.685020071710507,0.1538104572444003
11.109731999999996,6.739214665632752,0.1529001192622056
11.112119999999996,6.7914997066072,0.1520746805064508
11.114504,6.8410837987009305,0.1513375572224058
11.116899999999998,6.893368839675378,0.1505248080626346
11.119287999999996,6.944490397664569,0.1497062884197711
11.121683999999998,6.9877905441231976,0.1489873798636852
11.12408,7.029555120544233,0.148251537739817
11.126468,7.064429450994482,0.1476109818963038
11.128847999999998,7.100002629579032,0.1469366649054606
11.131248,7.126963000700099,0.146360090117092
11.133636,7.139444031745293,0.1459781704632455
11.136015999999998,7.144056429431679,0.1457250247455911
11.138412,7.157049317156073,0.1453569689090296
11.140804,7.17418617600016,0.1449153534101141
11.143183999999998,7.191742343724826,0.1444497136458175
11.145588,7.21158015144963,0.1439377759455691
11.147976,7.231977037681874,0.1433973292388411
11.150356,7.252373923914121,0.1428575309998318
11.152752,7.265041946414417,0.142438367323107
11.15514,7.266535982197373,0.1421674670844737
11.157519999999998,7.263141872755962,0.1419336732978342
11.159916,7.259096137008492,0.1416973356935132
11.162304,7.253327839768326,0.1414775738490343
11.164683999999998,7.245277902528021,0.1413046471422643
11.167088,7.235133316742685,0.1411302007701996
11.169476,7.227270370957485,0.1409081940458282
11.17664,7.176301853600239,0.1408066773128717
11.179023999999998,7.159684434866827,0.1407900865044029
11.18142,7.14600028243961,0.1407294027865138
11.183808,7.132455899639257,0.1406618005722827
11.186191999999998,7.117980351279122,0.1406046214688184
11.188588,7.105227364411684,0.1405287288346601
11.190976,7.092614147171107,0.1404447071057185
11.193355999999998,7.076416037318275,0.1404002412579974
11.195752,7.057284661159248,0.1403987481130369
11.19814,7.041366090560137,0.1403376568451013
11.200523999999998,7.026518455147664,0.1402570725159767
11.202928,7.021401784213554,0.1400353434481034
11.205316,7.019310927384259,0.139803991908378
11.207696,7.0197340279805776,0.1395533455531408
11.210092,7.026023661189288,0.1392193309214319
11.212484,7.03538633033105,0.1388374151688543
11.214864,7.043118985778733,0.1385021805838305
11.21726,7.052154893838535,0.138173920294725
11.219648,7.065055233764308,0.1377919385745199
11.222032,7.087174681489248,0.1372609789527335
11.224428,7.110644603654546,0.1366967501392295
11.226816,7.133834986566123,0.136149502237922
11.229195999999998,7.158608161343539,0.1355948815705514
11.231592,7.189247868733342,0.1349600621229519
11.233984,7.215743605003454,0.1343964625227817
11.236363999999998,7.234882564593955,0.1339562069347391
11.23876,7.252391510490376,0.1335623961603117
11.241148,7.269061838625638,0.1332100026997399
11.243527999999998,7.293041721612267,0.1327778515470403
11.245932,7.312877633479202,0.1324159192109874
11.24832,7.330571674972859,0.1320891808044541
11.250704,7.341700335719826,0.1318818218307509
11.2531,7.3520376005338735,0.1316796810659492
11.255488,7.3590695119893885,0.1315006327102113
11.257872,7.363307926765569,0.1313562522137824
11.260268,7.363262600795195,0.1312839741575245
11.262656,7.367873102623713,0.1311578901930095
11.26504,7.371971747773034,0.1310212009488588
11.267435999999996,7.377560636989572,0.130846850989444
11.26982,7.375932519153362,0.1307819514843941
11.272199999999998,7.37374532280971,0.1307454691896063
11.274596,7.371930213518397,0.1307269899360193
11.279359999999995,7.366717203069934,0.1306960440557051
11.281755999999998,7.364390237099422,0.1306665906746312
11.284143999999998,7.3668588685546625,0.1305789470791284
11.286523999999996,7.375333802249154,0.1304095551985222
11.288936,7.390234347063476,0.1301380674256498
11.291324,7.399036041839931,0.129918836602362
11.293703999999998,7.410910772549441,0.1296569344530982
11.296107999999997,7.426510165498065,0.1293546254912459
11.298495999999997,7.447184695126161,0.1289807669610167
11.300876,7.4659968936347,0.1286273675528984
11.303279999999996,7.489604689568991,0.128221071798415
11.305667999999995,7.511862011062924,0.1278469007012522
11.308048,7.534770958862913,0.1274738715730335
11.310451999999998,7.557400367409183,0.1271176261885433
11.312839999999998,7.580541632634651,0.1267732208199565
11.315219999999997,7.6023324234197585,0.1264637212160258
11.317611999999995,7.632131617190533,0.126052697064115
11.319999999999997,7.665143616521224,0.1255967056039752
11.32238,7.697783528799578,0.1251241443487818
11.324779999999995,7.727629944398596,0.1246814405411796
11.327164,7.756265655184117,0.1242613484652056
11.329544,7.785832531529414,0.1238358372927301
11.33194,7.815539177501573,0.1234057202620528
11.334328,7.8433834923541745,0.1230001680630843
11.336723999999997,7.867083836087082,0.1226540626260804
11.339119999999998,7.890364870939409,0.1223270516147031
11.341507999999996,7.912155661724517,0.1220374374843901
11.343888,7.936739949188961,0.1217250278841369
11.346291999999998,7.961324236653403,0.1214156601784365
11.348675999999998,7.986560150423903,0.1211099055314216
11.351056,8.003647891581876,0.1209056275098997
11.353459999999998,8.017942136060515,0.1207261060609711
11.355843999999998,8.036008264606508,0.1204763630177043
11.358224,8.05197974460747,0.120221281006502
11.360627999999998,8.068650072742733,0.1199356201735315
11.363015999999998,8.081735508265742,0.1196780806830753
11.365395999999995,8.088023245616581,0.1194939090966556
11.3678,8.08909607666109,0.1193773104823586
11.370183999999998,8.08923774214582,0.1192690108989374
11.372567999999998,8.089519177257408,0.1191541583585341
11.374964,8.091942482742276,0.1190099922980535
11.377347999999998,8.088639025241614,0.1189219591556331
11.379727999999997,8.082821610315337,0.1188460445778318
11.382123999999996,8.072208597963305,0.1188179365713005
11.384511999999996,8.061875124864995,0.1187769424295909
11.386892,8.054894226953461,0.118685487108394
11.389295999999998,8.044607975683395,0.1186079199668893
11.391683999999998,8.030085205495018,0.1185518407332458
11.394063999999997,8.014259182694524,0.118485956766075
11.396459999999998,7.9971299072819155,0.1184109833737235
11.398847999999996,7.986705782242858,0.1182365771128206
11.401228,7.98349866425655,0.11797428752208
11.403631999999998,7.976007805523689,0.1177691820526509
11.406015999999996,7.969308342723745,0.1175620857682901
11.408399999999997,7.958464908804108,0.1174051447219767
11.410795999999998,7.945479604511193,0.1172763579347895
11.413179999999995,7.934496400964695,0.1171248673011724
11.41556,7.926865772604973,0.1169236865518718
11.417955999999997,7.919095374618391,0.1167284669348573
11.420343999999996,7.912395911818447,0.1165185779749446
11.422739999999996,7.905836218645363,0.1163026391904683
11.42514,7.905934454017587,0.1160245666273338
11.427528,7.910828286815565,0.1157015417053552
11.429907999999998,7.918655385919736,0.1153475077149587
11.432312,7.923549218717713,0.1150224912473596
11.4347,7.923228145209357,0.11476232338572
11.437079999999998,7.925048942074278,0.1144726256829015
11.439476,7.928452530805036,0.11418027563188
11.441864,7.929434709908797,0.1139287739451524
11.444243999999998,7.93428132087853,0.1136401174691402
11.446648,7.935495817407768,0.1134134570149694
11.449032,7.928562141324477,0.1132799843915618
11.451411999999998,7.923630565987604,0.1131245499027348
11.453816,7.91841945139701,0.1129816813801335
11.4562,7.916141603112611,0.1128090466181852
11.458579999999998,7.920149596321184,0.1125584042286314
11.460976,7.925088755089534,0.1123007783286554
11.463364,7.927234417178549,0.1120660738976823
11.465743999999995,7.931661719267701,0.1117976757505518
11.468139999999998,7.937671813222691,0.1115279182442685
11.470527999999998,7.941679806431263,0.1112797613290063
11.472907999999997,7.943173842214221,0.1110425650396603
11.475312,7.942246468370181,0.1108459031412873
11.477695999999998,7.941319094526142,0.1106493496825187
11.480075999999997,7.942393821428518,0.110431335269386
11.482475999999998,7.950545785756784,0.1101387528082213
11.484863999999998,7.962003103443583,0.1098375750511505
11.487243999999995,7.96852505407777,0.1095834050424326
11.489648,7.975978170271735,0.1093211840133564
11.492036,7.981289416092422,0.109086843684841
11.494415999999998,7.987951136353469,0.1088268381513165
11.49682,7.998756827734209,0.1085185715222135
11.499204,8.01156461986137,0.1081916185822376
11.501587999999998,8.024651951242246,0.1078529628035758
11.503984,8.038810217809761,0.1075024999738617
11.506367999999998,8.05147824031006,0.1071859221003161
11.508751999999998,8.063354866877438,0.1068712918964147
11.511148,8.07909592531079,0.1065245750100116
11.513535999999998,8.093626278930644,0.1061982515471543
11.515915999999995,8.105922214378607,0.1058691601995835
11.518311999999998,8.121151416132761,0.105515554267161
11.520699999999998,8.135030143446556,0.1051868692328227
11.523079999999997,8.149467949267795,0.1048358423092786
11.525488,8.163254128782976,0.1044797846023093
11.527872,8.183046610537405,0.1040710181414239
11.530251999999996,8.198183264492943,0.10369698706875
11.532656,8.210805961022865,0.1033319965373044
11.535044,8.2295747294189,0.102906122940421
11.537423999999998,8.249414433001572,0.1024682067595116
11.53982,8.271535776584383,0.1020033506382039
11.542208,8.29323781128661,0.1015567323940963
11.544587999999996,8.315731241921759,0.1011117275301875
11.546983999999998,8.33622257181049,0.1006868903826793
11.549371999999998,8.352430160952665,0.1003072015469743
11.551751999999995,8.367566814908203,0.0999406689629075
11.554151999999998,8.378839036997768,0.0996028299125365
11.556539999999998,8.388248927967776,0.0992767148867746
11.558919999999995,8.39444601337787,0.0989866274386188
11.561315999999998,8.400782868414822,0.0986912064764531
11.563703999999998,8.406420875317474,0.0984244980813023
11.5661,8.409125615913933,0.0981815996772491
11.568496,8.413041061323886,0.0979213483672057
11.570884,8.413092074867867,0.0976895857310876
11.573268,8.413515175464187,0.0974751518275564
11.575664,8.410073844194534,0.0972904389153568
11.578052,8.405002499230799,0.0971394419941614
11.580431999999998,8.399791384640205,0.0969941235900279
11.582828,8.393369565236112,0.0968659535122293
11.585216,8.38708751545888,0.0967319890009455
11.587599999999998,8.377313120868012,0.0966424598250546
11.590003999999997,8.370099905531001,0.0965139242004315
11.592391999999997,8.365028560567268,0.0963639745525063
11.594772,8.359957215603535,0.0962139898257714
11.597175999999996,8.363965208812106,0.0959897740051577
11.599563999999996,8.371046237953733,0.0957403771620083
11.601944,8.388277540454306,0.0954095707893237
11.604339999999995,8.408022800380493,0.0950750034233828
11.606727999999997,8.426976664373761,0.0947390218413513
11.609108,8.444580053926671,0.0944247018997528
11.611503999999996,8.46218344347958,0.0941094888527397
11.613895999999995,8.47843635859213,0.0938148417404076
11.616276,8.49333879926432,0.0935419779491425
11.618671999999997,8.510475658108406,0.0932754122007574
11.62106,8.528823221765991,0.0929933734063638
11.623444,8.539814008743967,0.0927786771550746
11.625839999999997,8.551084334975661,0.0925514993073717
11.66406,8.401510503654137,0.0924012589813092
11.666435999999996,8.396390041004292,0.0923793335837522
11.66884,8.391129808727586,0.092362752620001
11.671228,8.397742411302522,0.0922635460878583
11.673603999999996,8.411012942422763,0.0921275262423729
11.675995999999998,8.42907907096876,0.0919636280854006
11.678383999999998,8.45515360250042,0.0917431166703193
11.680764,8.486443040338415,0.0914802036516019
11.683176,8.51680131261663,0.0912213468597807
11.68556,8.549021916014405,0.0909525819529161
11.687956,8.58617788646479,0.0906498918158849
11.690359999999998,8.627198288781148,0.0903228074690732
11.692743999999998,8.665145655164451,0.0900202647251935
11.695124,8.704443495988114,0.0896938267562167
11.697515999999997,8.740016674572662,0.0893837065162567
11.699903999999997,8.77107379498518,0.0890925317275164
11.702284,8.800036266852663,0.0887885911928582
11.704676,8.825134306854173,0.0885099245758311
11.707064,8.849813037975103,0.0882501735045861
11.709456,8.873979912416832,0.0879809154448595
11.711851999999997,8.894422124619453,0.0877306884573498
11.714236,8.91458479756835,0.0874925071688026
11.71662,8.933956074584332,0.0872541319570853
11.719012,8.944667322308586,0.0870660512083959
11.7214,8.951002281487668,0.0868900015827954
11.723792,8.953892117681358,0.0867205881335952
11.726195999999998,8.952637982755354,0.0865841305552156
11.728583999999998,8.949661286336655,0.0864513004817185
11.73096,8.949105999544953,0.0862901829317929
11.733355999999995,8.948038856074053,0.0861174772469684
11.735743999999997,8.944457755177538,0.0859463748811402
11.738124,8.944368999094662,0.0857394132022735
11.740527999999998,8.944559782265504,0.0855214741278158
11.742911999999995,8.951688033235374,0.0852629341222748
11.745292,8.964962356071355,0.0849613448508413
11.747687999999997,8.980099010026892,0.0846520261482438
11.750072,8.997237764728848,0.0843311579308366
11.752467999999997,9.014795828311383,0.083994988596679
11.754863999999998,9.027837833721888,0.0836721722425151
11.757247999999995,9.041019608759251,0.0833461762927498
11.759628,9.05233905267706,0.0830263548827487
11.762027999999995,9.065288510288948,0.0826796897111832
11.764415999999995,9.076515406408138,0.0823348759184804
11.766796,9.089884172900604,0.0819717159760262
11.769195999999996,9.102182004206432,0.0816176155321038
11.771583999999995,9.1167614755124,0.081242576632178
11.773964,9.127895823832974,0.0808709370406546
11.776359999999997,9.134234574727794,0.0805218356727653
11.778744,9.13964216006284,0.0801771920982203
11.781135999999996,9.148122781330938,0.0798136477714982
11.783531999999996,9.159676438532095,0.0794315683094498
11.785915999999997,9.164013088680498,0.0790981169183925
11.7883,9.172493709948595,0.078737619259659
11.790703999999998,9.175806646738607,0.0783835751600236
11.793087999999996,9.17604654759556,0.0780492737145082
11.795468,9.176705757333096,0.0777006563896603
11.797863999999995,9.17750473669749,0.0773483834061456
11.800248,9.18095744311436,0.0769930117006926
11.802643999999995,9.186412250277646,0.0766258482291948
11.805048,9.189585417440794,0.0762795787342468
11.807432,9.197833721283416,0.0759047012658291
11.809811999999996,9.198725248446433,0.0755781057339661
11.812216,9.202689811542497,0.075233564942665
11.8146,9.20879624501184,0.0748744452358135
11.816979999999996,9.214762908854324,0.0745198418640626
11.819384,9.217376997510032,0.0741929578031204
11.821768,9.218920150979104,0.0738715765519272
11.824147999999996,9.221114930754233,0.073555837900983
11.826543999999998,9.225032272022055,0.0732407346825454
11.828927999999998,9.225876577356829,0.0729440316111758
11.831311999999995,9.224579012318316,0.0726630885521386
11.833703999999996,9.231569389519198,0.072334147427744
11.836091999999995,9.234415795600384,0.0720300615095122
11.838472,9.236423583920407,0.0717546027893412
11.840875999999998,9.237639976307516,0.0714761707684303
11.843263999999998,9.236574728694483,0.0712167035044719
11.84564,9.2312257403349,0.070985613416395
11.848048,9.224014420855758,0.0707596598314458
11.850431999999998,9.22080730286945,0.0705154675253674
11.852811999999997,9.21867112006978,0.0702641209149162
11.855216,9.215184462829754,0.0700301199332501
11.857603999999998,9.216633172642338,0.0697743967968433
11.859983999999995,9.21887327838784,0.0695224358382906
11.862384,9.221765010439398,0.0692789384670624
11.864772,9.225867447304456,0.0690240109999935
11.867151999999995,9.23276338084885,0.0687628461283599
11.869556,9.244594681445855,0.0684816060706967
11.871944,9.260709722789416,0.0681740631140583
11.874323999999998,9.273239871520722,0.0678706959781786
11.87672,9.287632351371586,0.0675640537066976
11.879103999999998,9.298951795289392,0.0672721198975691
11.881487999999996,9.300772592154315,0.0670357638074052
11.883879999999998,9.307668525698707,0.0667765938928473
11.886267999999998,9.31563539442974,0.0665108416127176
11.888648,9.325324824653467,0.0662458902563479
11.891051999999998,9.340089391556669,0.0659588089060754
11.893435999999998,9.361651656632038,0.0656506475980669
11.895815999999996,9.381351590587848,0.0653462614657991
11.898215999999998,9.393974287117771,0.065073182796449
11.900599999999995,9.406596983647695,0.0648007247211813
11.902995999999998,9.417497118684926,0.0645275369767107
11.905392,9.42974772816251,0.0642398195769873
11.90778,9.437714596893542,0.0639774579046934
11.910155999999995,9.44274819931838,0.0637251584534537
11.912551999999998,9.448573197676131,0.0634765629091195
11.914935999999996,9.453606800100973,0.0632255204143649
11.917331999999998,9.458360863272087,0.0629844525510187
11.919724,9.45883118569665,0.062767790494318
11.922111999999998,9.460884299987049,0.0625570854971523
11.924487999999997,9.463077183904309,0.062342564248908
11.926883999999998,9.468343103754618,0.0621142955715024
11.929267999999997,9.474959498045296,0.0618693394359345
11.931663999999998,9.476500755656495,0.0616456740171825
11.93406,9.478181782894556,0.0614176701930187
11.936448,9.48414655087917,0.0611676101796366
11.938827999999996,9.485827578117233,0.0609415428972435
11.941223999999998,9.481921611996624,0.0607236325726095
11.943607999999998,9.481740308115128,0.0605009388115996
11.946004,9.4883567024058,0.0602607954044654
11.948407999999995,9.494041931136696,0.060021986065213
11.950792,9.498376685427232,0.0597972395790877
11.953172,9.50042979971763,0.0595885451409842
11.955575999999995,9.507837589941222,0.0593524032005246
11.95796,9.514453984231894,0.0591125264011693
11.96034,9.521070378522566,0.0588735292631913
11.962736,9.523682571320409,0.0586469805469728
11.96512,9.527645238558604,0.0584070933438514
11.967499999999998,9.535751876916498,0.0581501880883293
11.969904,9.544789680834167,0.0578928606189374
11.972292,9.549403974378423,0.0576612581916306
11.974671999999998,9.555740829415376,0.0574329136768335
11.977075999999997,9.56808398669158,0.0571863154976369
11.97946,9.5812185399007,0.0569427432955652
11.981839999999998,9.598217524975794,0.0566929594554391
11.984236,9.610001603744555,0.0564664546567792
11.986619999999998,9.624998488073237,0.0562251310984922
11.988999999999995,9.643859804267889,0.0559770610188248
11.991391999999998,9.659787854156344,0.0557364490940518
11.993779999999996,9.671991241805683,0.0554998629197619
11.99616,9.685777421320864,0.0552708317599372
11.998555999999995,9.705989211955874,0.0550129440577234
12.000943999999995,9.73020520408372,0.0547451281082372
12.003324,9.750277225091867,0.0544941621588855
12.005736,9.773934138712272,0.0542456428749512
12.008124,9.792515915653205,0.0540125702151566
12.010503999999996,9.817895390766306,0.0537671176023413
12.012908,9.840853456252407,0.0535411468370265
12.015296,9.861390112111511,0.053334173690206
12.017675999999998,9.880855832783974,0.0531325098965773
12.020072,9.904605294202996,0.0529116650503683
12.02246,9.923698927823128,0.0526936355542051
12.024839999999998,9.939579755883338,0.052491080070492
12.027244,9.957322915063108,0.0522878002567222
12.029628,9.964915800883931,0.0521141245265017
12.032007999999998,9.9711582122644,0.0519531250227947
12.034412,9.970043846965256,0.0518202419352398
