Time,Force,Position
13.921143999999998,6.343558358491316,0.1577629226579152
13.923587999999995,6.350403278491728,0.1575913950776175
13.92603600000001,6.359854703716371,0.1574313750387675
13.928483999999996,6.376149153083556,0.1572356344257939
13.930932000000013,6.407155259952091,0.156863593493401
13.933368000000002,6.445750460925716,0.1563685314687707
13.935812,6.47875866854067,0.1559586045504974
13.938252000000006,6.509904545036066,0.1555798094274698
13.94070000000002,6.539747168919346,0.1551941725551085
13.943148000000008,6.571778885004147,0.154721145537389
13.945592000000005,6.60492875810383,0.1541791114809945
13.948036000000002,6.646274025644281,0.1534153573159024
13.950476000000007,6.684313939826204,0.1526870746567023
13.952920000000006,6.716207782142012,0.1520890748149291
13.955372000000011,6.7512672081894936,0.1514730914420886
13.957812000000018,6.785115929423476,0.1508912322072906
13.960263999999995,6.825902118456489,0.150175862327436
13.96271200000001,6.867339933795559,0.1494655515697195
13.965159999999996,6.910220771373604,0.1487668504591266
13.967604000000025,6.955615566377266,0.1480501451840647
13.970060000000018,7.001569439888369,0.1473127828770542
13.972504000000017,7.03225257739068,0.146781103478067
13.97495600000002,7.0540433681757895,0.1463657017050694
13.97738800000002,7.065731107430197,0.1460961629971722
13.979832000000016,7.070808139967538,0.1458919922518191
13.982271999999996,7.069646552840152,0.1457633739486306
13.98471600000002,7.0703945186605655,0.1455666486179127
13.987160000000015,7.069979001495724,0.1453570164452114
13.989596000000006,7.080365383995884,0.1449797052435072
13.992052,7.090192687988604,0.1446353183760324
13.994492000000008,7.102254410153216,0.1442850353042108
13.996932000000015,7.111195874556531,0.1440262221473937
13.999376000000012,7.120649195639043,0.1437765138114769
14.001824,7.1336874093338105,0.1434840191846213
14.004267999999996,7.1456546878419385,0.143215228463675
14.006716000000011,7.156551031163429,0.1429657755721444
14.009152,7.164653877805581,0.1427545004281871
14.011600000000016,7.175178134074732,0.1424907919658463
14.014040000000024,7.183188432918268,0.1422519717604443
14.01648800000001,7.188824543963051,0.1420286281601693
14.018928000000017,7.18831458314172,0.1419060463424581
14.021364000000004,7.197116277918176,0.1416623786709687
14.023808000000002,7.213227527545995,0.1413305565081526
14.02624800000001,7.236416014599706,0.1408875601494548
14.028692000000008,7.254761682399423,0.1405526690561652
14.031144000000012,7.279625509117586,0.1401380897674572
14.033588000000009,7.306304445127062,0.1397398760627481
14.036040000000014,7.335869425614491,0.1393400227711699
14.03848000000002,7.353561571250281,0.1391224111920082
14.040924000000018,7.370741860206872,0.1388961014577819
14.043368000000015,7.385920048417046,0.1387007054500979
14.045816000000002,7.405801286254356,0.1384078759857676
14.04826,7.42931463853216,0.1380392146914295
14.050700000000006,7.4532945215187905,0.137615420191345
14.053135999999997,7.471827180773609,0.1372507251267264
14.05558000000002,7.495015667827319,0.1368321801567756
14.05802,7.522720213053062,0.136368467209463
14.060463999999996,7.545209851972471,0.1359901958760069
14.06292400000001,7.564766224585686,0.1356528266145645
14.065359999999998,7.580178626079205,0.1353790237161707
14.067816000000022,7.599967316117895,0.1350625470489322
14.070256,7.617334596529591,0.1347978534441764
14.072696000000008,7.629673962090058,0.1345724819665745
14.075144000000025,7.634703772799158,0.134427851754184
14.07759200000001,7.640572201269417,0.134239996755092
14.080036000000009,7.639642931567509,0.1341423016238238
14.082484000000022,7.639272740373043,0.1340167698038729
14.084920000000013,7.636156274327483,0.1338851620932517
14.087364000000008,7.634018195669943,0.1337038661602239
14.089808000000003,7.630529642572044,0.1335542213295049
14.09226000000001,7.625550845406926,0.1334431806541897
14.094700000000016,7.624948336786983,0.1332936969965586
14.097136000000006,7.6215523314877025,0.1331761197310515
14.09958400000002,7.6153156076808415,0.1331275475111227
14.102024,7.615736812419291,0.1329998920507719
14.104467999999995,7.611362419731988,0.1329304880495063
14.106920000000002,7.602611738499516,0.1328980966949471
14.109364,7.5968415454014835,0.1327906680575008
14.111816000000005,7.592561596370666,0.1326456290985097
14.114256000000012,7.594148179952243,0.1324259880352183
14.11669600000002,7.597225007601037,0.1321700641810531
14.119140000000016,7.601931848943908,0.1318705976896755
14.121588000000004,7.603565654353725,0.1316131290818705
14.124032,7.608784352375794,0.1313218269857055
14.126472000000009,7.617448173383257,0.1310046985480439
14.128907999999996,7.628486182189472,0.1306765247206426
14.13135200000002,7.63845325580905,0.1303662561410758
14.133792,7.6522847612946014,0.1300115215478829
14.136240000000017,7.66727974976541,0.1296707576011846
14.1387,7.683345673422856,0.1293132314113513
14.141136000000015,7.702112545961023,0.1288938959137758
14.143592000000012,7.711847302155122,0.1285619930098776
14.14603600000001,7.721721827976085,0.1282240301176909
14.148483999999996,7.734017763424045,0.1278412443797532
14.150928000000022,7.7415181014462515,0.1275148955372804
14.153376000000009,7.749297978722182,0.1271735504019702
14.155820000000006,7.75628646006519,0.1268342440961459
14.15827200000001,7.758851431034785,0.1265673382124579
14.160716000000008,7.760997093123801,0.1263211327810458
14.163160000000005,7.761000884839538,0.1261084587764677
14.16560800000002,7.757140244689303,0.125940760648373
14.168052000000015,7.753279604539069,0.1257733528234937
14.170491999999996,7.755704805881804,0.1255156381650907
14.17293600000002,7.758409546478259,0.1252456508272835
14.175380000000018,7.758320790395381,0.1250040281130606
14.177831999999997,7.75506645058083,0.124771790780744
14.18027600000002,7.751160484460221,0.1245352727733069
14.182724000000007,7.741108446473501,0.1243810224801792
14.185159999999996,7.732546652554001,0.1241907586443462
14.18761600000002,7.725986959380917,0.1239757294778044
14.190055999999998,7.719147726954113,0.1237738326199761
14.192496000000006,7.715893387139562,0.1235415030132311
14.194940000000004,7.711428342511512,0.123331339202405
14.197388000000018,7.70174839157713,0.1231927779973247
14.199836000000005,7.69579310288186,0.1230179568688066
14.20228400000002,7.695145268291541,0.122802992609628
14.204720000000007,7.696080225567058,0.1225830249372958
14.207164000000006,7.701438693215989,0.1222939035161363
14.209608000000005,7.7060057649320015,0.122006965943517
14.212052,7.709641671088236,0.1217287390599836
14.214492000000009,7.713277577244471,0.1214493239498532
14.216927999999996,7.713980217094511,0.121203435262765
14.21938400000002,7.712540986571273,0.120989444787631
14.221832000000006,7.70774918086126,0.1208282076158762
14.224276000000003,7.702026209591469,0.120675332581096
14.226728000000008,7.7026816276132655,0.1204672315349854
14.229175999999995,7.706270311941257,0.1202269259448713
14.23162400000001,7.714142737015802,0.1199248706118022
14.234068000000008,7.72080445727685,0.1196458432485777
14.236508000000017,7.722530810485284,0.1194231723593976
14.238952000000012,7.725328098880357,0.1191859311858667
14.2414,7.727985617648572,0.1189554559562073
14.243843999999996,7.732133380484003,0.118690317611283
14.24628800000002,7.740704653692849,0.1183580443741432
14.248728,7.746622199849222,0.1180456621883543
14.251176000000015,7.748303227087282,0.1177571817163773
14.253616000000022,7.751334728765701,0.1174416855481027
14.25606000000002,7.755949022309958,0.1171251300821009
14.258508000000006,7.766569618093465,0.1167439825418208
14.260943999999997,7.780682558690607,0.1163089962002484
14.26340000000002,7.800801801527001,0.1158108331599195
14.265844000000016,7.8246457066025075,0.1152825402195912
14.268292000000002,7.849281007610932,0.1147550879850181
14.270736,7.875918409365774,0.1142043749494823
14.273188000000005,7.907211638919506,0.1136172361597862
14.275632000000002,7.938644638100101,0.1130314739630293
14.278080000000015,7.967656227653697,0.1124889007895673
14.280524000000014,7.99853014832685,0.1119377044938584
14.282968000000013,8.031266400119558,0.1113750581616476
14.285415999999998,8.06879824933802,0.1107698710800165
14.287859999999997,8.108192429676036,0.1101567151874133
14.290300000000002,8.147726379640915,0.1095386587993051
14.29273600000002,8.188563582217908,0.1089352017808669
14.295184000000006,8.226560066287325,0.1083895323862493
14.297624000000011,8.266279111849435,0.1078377543427291
14.30006800000001,8.306370244463887,0.1073037733396159
14.302520000000015,8.342969032264698,0.1068212299052446
14.304964000000012,8.375563618572677,0.1063814924295976
14.307423999999996,8.400941197827908,0.1060231973796137
14.309864000000005,8.425480159321976,0.1057044307771143
14.312304000000012,8.44652677600241,0.1054387075973862
14.314748000000009,8.465711061563287,0.1051876827403479
14.317200000000014,8.484755577497303,0.1049438808575361
14.319644000000013,8.50380009343132,0.1047004252172369
14.322091999999998,8.518188781566444,0.1044900190834307
14.324523999999997,8.52536046264882,0.104353258694086
14.326972000000012,8.532532143731196,0.1042164983047414
14.32941200000002,8.53327821369374,0.1041530223395888
14.341632000000004,8.508280304922323,0.104121360857023
14.34408000000002,8.506372647832393,0.1040716198389038
14.346531999999996,8.503254285928964,0.1040393113123844
14.348976000000022,8.501486398465893,0.1039839599368559
14.351428,8.504933417309154,0.103876136364867
14.353868000000006,8.510242767271976,0.1037564665882327
14.356308000000013,8.516483282794573,0.1036302919953684
14.35875200000001,8.517136804958499,0.1035399237159004
14.361199999999997,8.516998931189509,0.1034500032990595
14.363648000000012,8.517512683726574,0.1033655681789697
14.36608800000002,8.51909737145028,0.1032699063249641
14.368524000000008,8.525617426226598,0.1031345675001086
14.370971999999997,8.53372027286875,0.1029985173560856
14.373412000000002,8.548248730630734,0.1027933348290717
14.375856,8.564267432459939,0.1025607213989618
14.378316000000012,8.585640810222335,0.1022706537284076
14.380752,8.606222792051813,0.1019817946469023
14.383207999999996,8.632950845747406,0.1016376925158008
14.385648000000003,8.659678899442994,0.1012929499643276
14.38808800000001,8.68268229089947,0.1009730645437709
14.390535999999996,8.701821250489974,0.1006808718168413
14.392988000000004,8.718678570080339,0.1004191954082481
14.395432,8.735815428924425,0.1001467299409988
14.397884000000005,8.750810417395233,0.0998971357943427
14.400320000000022,8.762872139559846,0.0996713680019386
14.40276400000002,8.774282235418402,0.0994408597216405
14.405208000000016,8.787182575344177,0.0991830340655329
14.407652000000011,8.80823108788248,0.0988548826433651
14.41009200000002,8.827696808554945,0.0985264028350223
14.412528000000009,8.845859276615295,0.0981875034131818
14.414975999999996,8.86015731280967,0.0978761410910557
14.417416000000005,8.864864154152544,0.0976298196188655
14.419864000000018,8.871061239562636,0.0973569276473239
14.422315999999997,8.87246272754698,0.0971161155054789
14.42476000000002,8.870791179598264,0.0969019492097564
14.427208000000007,8.866465904597074,0.0966983002129873
14.429652000000004,8.859347132916549,0.0965096800450357
14.432092000000011,8.844359727877215,0.0963785536646135
14.434536000000008,8.829512092464746,0.0962416693762338
14.436983999999995,8.815735392238913,0.0960937991618636
14.43942800000002,8.807173598319414,0.0958982431840539
14.441868,8.79530645104138,0.0957063840902585
14.444304000000017,8.783718843017066,0.0955034054413629
14.446752000000004,8.771479608686695,0.0952940109341251
14.44919200000001,8.75751781286363,0.0950887793435222
14.451639999999998,8.740762520361226,0.0948979773756563
14.454088000000011,8.724938393418602,0.094701696528659
14.456524000000002,8.703107964236729,0.0945509849646563
14.458979999999997,8.682208700614632,0.0943945731669967
14.461420000000004,8.664242703298733,0.0942173242541472
14.463860000000013,8.650700216356245,0.0939933495938461
14.466304000000008,8.64344357090673,0.093712585862587
14.468756000000011,8.633393428777879,0.0934458364553941
14.471204,8.628138884074781,0.0931497210804438
14.473644000000007,8.623163878625403,0.0928417373168627
14.476079999999996,8.616047002802748,0.092552940907794
14.478528000000011,8.614005263659564,0.0922241943283426
14.480968000000018,8.619320301195991,0.0918304159797177
14.483412000000015,8.623052546866582,0.0914338780276048
14.485856000000013,8.623060130298061,0.0910546924244039
14.488292,8.617480720370866,0.0907028841785525
14.490747999999996,8.614694807123007,0.0903364187955576
14.493192000000022,8.609906793128733,0.0899840592293405
14.49563600000002,8.607120879880878,0.0896166510005555
14.498087999999996,8.607408002566073,0.089224826095732
14.500536000000013,8.61263049230388,0.0887999411525196
14.502983999999998,8.61105528386952,0.088415398567298
14.505424000000003,8.610690780248662,0.0880145630856274
14.507864000000012,8.607393010321607,0.0876307465843354
14.510312,8.599159873341936,0.0872799184804752
14.512760000000014,8.588924635615854,0.0869439195617639
14.515204000000011,8.575476592329853,0.0866366393244811
14.517648000000008,8.564822045723188,0.0863161191880261
14.520083999999995,8.552444937623825,0.0859989629867833
14.522528000000024,8.545003196577076,0.0856506871539041
14.52497200000002,8.545709628142854,0.0852443914179028
14.527420000000006,8.54255162784266,0.0848598668887941
14.529872000000012,8.532968016422632,0.0845309647832836
14.532308,8.529111167988136,0.0841736714491324
14.534763999999996,8.528047816232975,0.0838031987382633
14.53720800000002,8.532431688209622,0.0834146990066135
14.539648,8.533742524253213,0.0830475146661014
14.542096000000017,8.538917792162781,0.0826604222806306
14.54454800000002,8.545024225632126,0.0822708190637603
14.546996000000007,8.547917853541554,0.0819083738233345
14.549436000000014,8.549600776637485,0.0815618638700486
14.55187600000002,8.56087489458492,0.0811686829896893
14.554324000000008,8.571869473278634,0.0807858931082106
14.556764000000015,8.590732685331155,0.0803600556883613
14.559208000000012,8.611458228503231,0.0799261320428304
14.56164800000002,8.628691426861675,0.0795284923040031
14.564092000000016,8.649789057086087,0.0791129031939017
14.566536000000012,8.666602946563948,0.078731971740643
14.568984,8.682857757534368,0.0783730986412351
14.571427999999996,8.692686957384955,0.078066938282786
14.573876000000013,8.695950776488854,0.0778192884963101
14.57632000000001,8.70000599152567,0.0775731732135343
14.578776000000005,8.709136343241957,0.0772951973158982
14.581220000000002,8.713051788651912,0.0770549926691843
14.583660000000007,8.72283376667426,0.0767872654087424
14.586104000000006,8.732615744696606,0.0765214190468234
14.58855200000002,8.748124485704478,0.0762327009324936
14.590996000000018,8.761491356339077,0.0759617185002519
14.593440000000015,8.772436817346678,0.0757175482739838
14.595872000000014,8.78817787578003,0.0754544334819268
14.598316000000011,8.79884379753391,0.0752206847157087
14.600760000000008,8.805505517794959,0.0750102621845388
14.603204000000003,8.816171439548839,0.074779372657833
14.605644000000012,8.822553620556164,0.0745812656803999
14.60808,8.831589528615966,0.0743805221448476
14.610535999999996,8.843838242235684,0.0741560852946087
14.612980000000022,8.854876251041901,0.0739457330466243
14.61542400000002,8.87220010134109,0.0736950324532956
14.617872000000006,8.892876526827056,0.0734184351243836
14.620336000000009,8.917696923432715,0.0731162970351224
14.622783999999996,8.9398635929859,0.0728153140222456
14.62522800000002,8.964544219964699,0.0725175267332497
14.62766400000001,8.989085077316636,0.0722274798227964
14.630120000000003,9.018561301721189,0.0719160584887184
14.63256800000002,9.042962389446265,0.0716350625794971
14.635012000000016,9.067363477171344,0.0713565234751257
14.637451999999996,9.090833399336642,0.0710830941019327
14.639888000000012,9.11537425668858,0.0708037023806518
14.64233200000001,9.144338624413932,0.0704927499602878
14.644776000000007,9.17050949545995,0.0701908489420611
14.647220000000004,9.200684567998804,0.0698692679209413
14.649676,9.232582202030349,0.0695494282931295
14.652112000000017,9.259404699382426,0.0692563050430024
14.654568000000012,9.285715340055305,0.0689516236277997
14.65700800000002,9.310023879981769,0.0686572533036359
14.659447999999998,9.334984046214284,0.0683712611622944
14.661892000000025,9.356079780580831,0.0680982665250387
14.664344,9.375825040507015,0.0678440692587148
14.666787999999997,9.390355394126871,0.0676198130021057
14.669240000000002,9.406608309239422,0.0673978221350233
14.67167600000002,9.429007296218083,0.067145641153381
14.674120000000016,9.449963260957766,0.0668846963153691
14.676564000000011,9.46677525457776,0.0666457273120279
14.67900800000001,9.479862585958635,0.0664154689849111
14.681452000000007,9.490947816593096,0.066193339928256
14.683892000000014,9.496166514615169,0.0659913934627572
14.68634,9.497520780771266,0.0658016112370808
14.688780000000008,9.495150384688252,0.0656188232083434
14.691227999999995,9.486633916739123,0.0654651636534341
14.69367600000001,9.47718628323022,0.0653129880029105
14.696120000000008,9.47188262084101,0.0651406735507051
14.69858000000002,9.464344540279903,0.0649551958427736
14.70102,9.461881596398271,0.0647480139133844
14.703460000000009,9.462072379569111,0.0645409252588778
14.705908000000022,9.463613637180313,0.0643190207567013
14.70835200000002,9.463432333298815,0.0640958140815954
14.710800000000006,9.468186396469935,0.0638557547929848
14.713240000000011,9.46828463184216,0.0636233064869109
14.71568000000002,9.468522636841245,0.0633855026472733
14.718124000000016,9.466386454041572,0.0631395240532698
14.720568000000014,9.460897696055127,0.0629163150888422
14.723012000000011,9.45512939881496,0.0627021485736253
14.725452000000018,9.449640640828516,0.0624781516682565
14.727888000000007,9.44736468840199,0.0622367963202156
14.730344000000002,9.45151434709529,0.0619611932135523
14.73278400000001,9.462741243214484,0.0616585439495795
14.735224000000017,9.47597024008009,0.0613486720775668
14.737668000000014,9.493855064744588,0.0610327261506696
14.74012000000002,9.514952694969,0.0606991686807109
14.742568000000006,9.536841721126333,0.0603692366126239
14.745008000000013,9.550862113924865,0.0600635034359963
14.74744800000002,9.562461097096392,0.0597774898656162
14.749892000000017,9.569264482842168,0.0595026918811912
14.752336000000014,9.573134602281748,0.0592363729392871
14.754784,9.576073556161552,0.0589718625203572
14.757227999999998,9.580362984481711,0.0586930819257226
14.759664000000017,9.581067520189622,0.058414405277141
14.762112000000002,9.585916027017223,0.0581182028356055
14.764552000000007,9.596770836084078,0.0578039970083598
14.766996000000006,9.605064465897073,0.0575136152045334
14.769448000000011,9.613497865336928,0.0572184736534703
14.771904000000006,9.622210804030503,0.0569150003636216
14.77436,9.633065613097356,0.0566008157712675
14.776800000000009,9.640288307723717,0.0563165186430526
14.779240000000016,9.643227261603515,0.0560548110182372
14.781688000000004,9.641230848430707,0.0558063361630612
14.784143999999998,9.640445140071398,0.0555488987900789
14.786587999999997,9.637936870219391,0.0552892704741541
14.78903600000001,9.63729093148694,0.055029014995561
14.791468000000007,9.636924532008212,0.0547603714135513
14.793912000000006,9.644426765888287,0.0544742106029271
14.796356000000005,9.65700413644784,0.0541722890301529
14.7988,9.666368701447473,0.0538833014827442
14.801240000000009,9.67401070495441,0.0535904201093671
14.803675999999996,9.67937106846121,0.0533114370390466
14.80613200000002,9.685383058274068,0.0530413461679772
14.808571999999998,9.693117609579623,0.0527745175065972
14.811015999999997,9.698710290511904,0.0525177940496987
14.81346000000002,9.696154798831651,0.0522863314279837
14.815911999999996,9.694298155285702,0.0520325614003298
14.818356000000025,9.69565431729967,0.0517652002612573
14.82080400000001,9.69486860894036,0.0515069017758521
