Time,Force,Position
10.947664,4.515600172525764,0.1847683254785276
10.95006,4.780513755877405,0.1796927080784378
10.952448,5.022712966315636,0.1756436465727331
10.954832,5.242569890892795,0.1723671064840535
10.957228,5.439570777071816,0.1698432331051396
10.959616,5.622281210487936,0.1676581296292326
10.961996,5.792843061514433,0.165616697866354
10.964396,5.941060730821989,0.1639510896652942
10.966784,6.066097496507312,0.1625053483952071
10.969164,6.161760064876047,0.1615200677013083
10.971568,6.255749189438199,0.1604238772723447
10.973956,6.353094680902865,0.1589912978800568
10.976336,6.435127902104104,0.1575222234935662
10.978732,6.486763212630364,0.1563775765070373
10.98112,6.5055300851685285,0.1557705581099404
10.9835,6.506512264272288,0.1554537948958889
10.985896,6.499346270763521,0.1553094671455909
10.988284,6.501444711024293,0.1550545812897716
10.99068,6.499911036844568,0.1548954486075724
10.993076,6.493908526321057,0.1547616985943551
10.995464,6.481759943931435,0.1547544110205105
11.002628,6.471194153407649,0.1547327432492663
11.005008,6.474779046019902,0.1546807671470395
11.007408,6.484230471244545,0.1545238300663549
11.009792,6.497266789081441,0.154317585419469
11.012175999999998,6.518311509904004,0.153960423441373
11.014576,6.543500201846261,0.1535172387599865
11.016964,6.57166938192296,0.1529694461638697
11.019343999999998,6.590434358603256,0.1525454722915775
11.021748,6.59783835711111,0.1523542687807126
11.024136,6.604915594536999,0.1522232302504091
11.026516,6.619302386814253,0.1519860814447049
11.028912,6.641977121330897,0.151581095795289
11.0313,6.66916791401957,0.1511138864285504
11.03368,6.700595225626556,0.1506032436495478
11.036076,6.723175516486714,0.1502929446521918
11.038464,6.7602823692509855,0.1497419674614077
11.040844,6.794455955709067,0.1492404357594378
11.04324,6.830818634368663,0.1486552920038803
11.045632,6.862153398177031,0.1481322586756711
11.048012,6.903266348292007,0.1474206178304724
11.050415999999998,6.948011412847478,0.1466217815069632
11.0528,6.983864130685749,0.1459336534840486
11.055184,7.010824501806816,0.1453606054328921
11.05758,7.036341850688908,0.1447972715723318
11.059968,7.057435689197583,0.1443289100891112
11.062348,7.079041384385456,0.1438742048035708
11.064748,7.103161036998944,0.1433986966660091
11.067136,7.124487192933098,0.1429580663747765
11.069516,7.145673579240392,0.1425229172805578
11.071912,7.1693739229733,0.1420673073787661
11.0743,7.192654957825626,0.14163846025097
11.122108,7.152346674648667,0.1414452866939603
11.124492,7.155839019462301,0.1413730895231
11.126876,7.1657097535675245,0.1412251303542053
11.129271999999998,7.175580487672751,0.1410776138298139
11.13166,7.185311452151115,0.140937803159266
11.13404,7.197696143681953,0.1407709665536982
11.136444,7.207938964839514,0.1406421435703283
11.138832,7.219252721183716,0.1404916092023735
11.141212,7.236852319020889,0.140232703872402
11.143608,7.253800290552005,0.1399709836326256
11.145995999999998,7.27009663577706,0.1397089710281192
11.14838,7.2795952828299475,0.1395442334757919
11.150776,7.288582073203638,0.1393685639419473
11.153164,7.305205179510655,0.1390544599828815
11.155544,7.320245493951837,0.1387522767535825
11.157944,7.341851189139712,0.138333274670468
11.160332,7.36625038100692,0.1378778894609329
11.162712,7.3852948969409375,0.1375172291817991
11.165108,7.404199643248095,0.1371655727227002
11.167496,7.41937972731614,0.1368612811308114
11.169876,7.43591028582454,0.136525920327747
11.172272,7.45402363619878,0.1361882482698351
11.17466,7.474418626573157,0.1358127852031252
11.17704,7.499097357694088,0.1353722184572842
11.179436,7.526616807322597,0.1348667355356317
11.181824,7.55176206915235,0.134374313107807
11.184204,7.581191071728655,0.1338150300016922
11.186604,7.617185455051656,0.1331494515922882
11.188992,7.650805650575899,0.132502260013857
11.191372,7.684053759047805,0.1318383429062733
11.193768,7.713157896400019,0.1312339278487551
11.196155999999998,7.744124364871786,0.1306031552073659
11.19854,7.776953164463113,0.1299528060153828
11.200936,7.799771460322355,0.1294411375883544
11.203324,7.818445785061902,0.1289893453966677
11.205704,7.830834268308479,0.1286345104243714
11.208104,7.844293686741696,0.1282641197704912
11.210488,7.862036845921466,0.1278270479940995
11.212884,7.879128378795178,0.1273875122791422
11.21528,7.895288746109111,0.1269565276505
11.217668,7.910238408609546,0.1265509037432572
11.220052,7.916388272191394,0.1262532774842803
11.222456,7.916811372787712,0.1260219288508375
11.224844,7.911787249652221,0.1258424971876306
11.227224,7.9056921913300915,0.1256796648480429
11.22962,7.897175723380963,0.1255615524571461
11.232008,7.887169011364614,0.1254788787256316
11.239171999999998,7.844110661620808,0.1254580703653064
11.241552,7.834196497403077,0.1254040858868069
11.243956,7.8290779306111,0.1252985678196065
11.246339999999998,7.824238903072842,0.1251801405252836
11.24872,7.822612681094499,0.1250148055518359
11.251115999999998,7.828343235795766,0.1247484937832385
11.253503999999998,7.83635543049717,0.1244445923095264
11.255884,7.844507394825436,0.1241357039739811
11.258288,7.850005632101225,0.1238476478350003
11.260671999999998,7.855643639003874,0.1235536258619243
11.263052,7.865006308145637,0.1232253402725368
11.265456,7.875160373220318,0.1228957370844628
11.267839999999998,7.89132074053425,0.1224927445486919
11.27022,7.90906389971402,0.1220843398368161
11.272615999999998,7.923314714080154,0.1217321305416593
11.275004,7.931419456580175,0.1214583186596622
11.277399999999998,7.943668170199891,0.1211292188328673
11.279796,7.952052451953635,0.1208411244932251
11.282184,7.9595055681476,0.1205618989846868
11.284563999999998,7.96416518766223,0.1203087737956615
11.286968,7.967753871990222,0.120070783588049
11.289352,7.971994182624272,0.1198384927281619
11.291731999999998,7.973301226952126,0.1196397897156509
11.29414,7.97460827127998,0.119441857248125
11.296524,7.980850682660446,0.1191899670905951
11.298904,7.977454677361164,0.1190714768568445
11.301308,7.97550169430086,0.1189556267032325
11.303692,7.972338006427058,0.118860914510423
11.306072,7.970896880045951,0.1187560363130684
11.308476,7.969315984037984,0.1186575320955806
11.310864,7.968014627283738,0.1185468655800819
11.313244,7.964850939409936,0.1184523119329728
11.31564,7.961966790789853,0.1183453511161622
11.318024,7.959362181423492,0.1182258780569789
11.320403999999998,7.961041312803683,0.1180488326566886
11.322808,7.96565371049007,0.1178401372219975
11.325196,7.969334942616678,0.1176401813567569
11.327576,7.977160145862979,0.1173888281585485
11.329972,7.982843478736005,0.1171650568726662
11.33236,7.989085890116471,0.1169148587712296
11.334735999999998,7.998680876683713,0.1166157567478982
11.337132,8.003480265825203,0.116363277236516
11.339519999999998,8.008838733474136,0.1160859264549953
11.3419,8.01112416519001,0.1158452224556837
11.344295999999998,8.006472129106857,0.1156795686631497
11.346683999999998,8.010108035263093,0.1154118796015513
11.34908,8.01188161029977,0.1151608622109917
11.351476,8.011932623843752,0.1149189093371425
11.353864,8.012402946268315,0.1146589378562663
11.356243999999998,8.014875369439293,0.1143780729353194
11.35864,8.011481259997883,0.1141558120651179
11.361028,8.008646229063913,0.1139080753005199
11.363407999999998,8.001667227010248,0.1137095610410856
11.365804,7.995898929770084,0.113490943997358
11.368192,7.990922028462835,0.1132711622436283
11.370572,7.985945127155588,0.1130509619700481
11.372976,7.979757521034842,0.1128506248216746
11.37536,7.971428044540818,0.1126777924558044
11.377739999999998,7.971246740659324,0.1124142830732319
11.380144,7.970646127897247,0.1121684917837484
11.382532,7.968974579948531,0.1119373796249879
11.384911999999998,7.972517938306148,0.111644685196791
11.387316,7.975641987783186,0.111371074657378
11.3897,7.979976742073721,0.1110770170863703
11.392079999999998,7.986453366737535,0.110754646115203
11.394476,7.989205329162234,0.1104627986592112
11.396864,7.989163794907598,0.1101918550614312
11.399243999999998,7.9929866925189375,0.1098859738037286
11.401648,7.991175374943362,0.1096590430688344
11.404032,7.985499625501813,0.1094673364834553
11.406411999999998,7.984200164605435,0.1092512714636846
11.408816,7.982201855574758,0.1090660435559822
11.411204,7.98620984878333,0.1088189841040057
11.413583999999998,7.986865266805125,0.1086183703431714
11.415984,7.985518584080506,0.1084384215855663
11.418368,7.988455642102441,0.1082059250299122
11.420747999999998,7.993534570497651,0.1079472261894825
11.423144,8.000755369266138,0.1076624886470329
11.425532,8.001690326541654,0.1074519301735651
11.427928,8.004487614936728,0.1072271120347043
11.430324,8.005143032958525,0.1070285733527019
11.432712,8.003377041353323,0.1068687574646699
11.435092,8.00240244568104,0.1067084771989703
11.437492,8.002079476314815,0.1065535277168113
11.439876,8.003199529187567,0.106403446541762
11.442256,8.00804424429943,0.1062273569593798
11.44466,8.019035031277404,0.1059879062319914
11.447048,8.026952782322326,0.1057810222552232
11.449428,8.040085439673579,0.1055160305694685
11.451824,8.056663220010224,0.1052370594112875
11.454212,8.074591474787226,0.1049353885083342
11.456596,8.097594866243702,0.1045854582231522
11.458996,8.11817684807318,0.1042752937032533
11.461384,8.144113505835852,0.1039053745722254
11.463764,8.172192033971799,0.1035120031558838
11.46616,8.195707282107472,0.1031813837685581
11.468548,8.219874156549205,0.1028588826763542
11.470932,8.242690556550578,0.1025612878767423
11.473328,8.268859531738727,0.1022234383986246
11.475716,8.296099442113512,0.101875003627842
11.478096,8.3233393524883,0.1015258899247463
11.480499999999996,8.351370658796005,0.1011774078277072
11.482884,8.376608468424376,0.1008469496248077
11.485268,8.404639774732082,0.1005006675638354
11.487664,8.434952721039924,0.1001283348469739
11.490052,8.461401235481793,0.0997877325089102
11.492432,8.482495073990469,0.0995064545561471
11.494835999999998,8.5066619484322,0.0991977351326666
11.49722,8.531899758060572,0.0988802353731228
11.499604,8.554903149517049,0.098558355526702
11.502,8.575904440227108,0.0982552918799343
11.504388,8.590108032764999,0.0980033526891347
11.506768,8.605522330116386,0.0977361081235315
11.509164,8.615442181907722,0.0975304747020686
11.511552,8.625082494445339,0.0973369317438083
11.513932,8.639146317356369,0.0970951617719267
11.516328,8.651627348401563,0.0968541130747677
11.518716,8.662385817954062,0.0966175635210875
11.521112,8.672864748252838,0.0963939284053921
11.523507999999998,8.685485548924893,0.0961509362931734
11.525895999999998,8.700108450343365,0.0958926278240451
11.528276,8.713148559896,0.0956338657765347
11.530672,8.72819077019505,0.0953591134289656
11.53306,8.737785756762293,0.0951097681568558
11.53544,8.74351631146356,0.0948870600619998
11.537836,8.751109197284386,0.09465465933848
11.540228,8.761914888665128,0.09439099270965
11.542608,8.768716378553036,0.0941584246833274
11.545004,8.774446933254303,0.0939373867007575
11.547388,8.785764481314242,0.0936891785709214
11.549772,8.79694225974732,0.0934466423495022
11.552175999999998,8.812264009300094,0.0931688604525989
11.554564,8.826002966987028,0.0928914136526313
11.556944,8.845096600607157,0.0925646702900708
11.55934,8.861676276801672,0.0922415311486109
11.561728,8.874531290757071,0.0919388470205723
11.564108,8.887106765458752,0.0916472309292603
11.566511999999998,8.903965980906987,0.091317075973271
11.568899999999998,8.915098433369693,0.0910190284171117
11.57128,8.921155749152925,0.0907601792422371
11.573679999999998,8.925490503443461,0.0905053706453068
11.576067999999998,8.928894092174216,0.0902544196363008
11.578448,8.932577220158693,0.0899933048075258
11.580844,8.943058046315343,0.0896917066305787
11.583228,8.95260770691221,0.0893938282447089
11.585612,8.961505741203018,0.0890907815711156
11.588008,8.96933284030719,0.0887981176980209
11.590392,8.97916204015778,0.0884912115728618
11.592788,8.985126808142393,0.088206314691727
11.595187999999998,8.979078971648509,0.0880039810768637
11.597575999999998,8.97438160959498,0.0877818521686103
11.599959999999998,8.968333773101094,0.0875798457734251
11.602356,8.961215001420571,0.087387026244362
11.604743999999998,8.951023193806993,0.0872173693447521
11.607124,8.946418379552082,0.0870233885009475
11.609524,8.940323321229952,0.086853655039292
11.611916,8.931574535855349,0.0866904780301764
11.614295999999998,8.92054411048061,0.0865509157073211
11.616692,8.914309282531619,0.086385650968259
11.61908,8.911147490515683,0.0861978209679197
11.621463999999998,8.909848029619308,0.0860021143672239
11.62386,8.911621604655986,0.0857841807551002
11.626243999999998,8.9149779715585,0.0855694830040601
11.628624,8.913398971408402,0.0853852120504631
11.631016,8.913682302377861,0.0851930013853621
11.633404,8.916479590772935,0.0850004679840949
11.635796,8.920347814354647,0.0847995586124304
11.6382,8.926357908309635,0.0845819218834839
11.640584,8.93558080782454,0.0843376282731501
11.642964,8.954022815138611,0.0840280801144895
11.645368,8.97218528319896,0.0837303913840318
11.647752,8.991698225699668,0.0834149956830315
11.650131999999996,9.01107139857352,0.0831046546230361
11.652536,9.028861779581533,0.0827915046790711
11.654915999999998,9.040134001671095,0.082504474404859
11.657296,9.055829734134075,0.0821786682659335
11.659691999999998,9.076321064022808,0.0818305956279997
11.662076,9.09709193316526,0.081473453416155
11.664467999999998,9.116280010441873,0.0811141495425819
11.666864,9.13360575659893,0.0807626170512453
11.669247999999998,9.148929402009571,0.0804235847410497
11.671628,9.162111177046937,0.0801020410061921
11.674023999999998,9.171708059472047,0.0797893267659495
11.676408,9.183586581897297,0.0794558460860474
11.678803999999998,9.195604873949405,0.0791179718459286
11.681204,9.200965237456204,0.0788076025977297
11.683592,9.204463269843448,0.0785040679665556
11.685971999999998,9.201023834431664,0.0782370390124298
11.688368,9.196233924579518,0.0779879223449692
11.690751999999998,9.192514949914012,0.0777321022350623
11.693128,9.185211082636254,0.0774831661897902
11.695524,9.179909316104911,0.0772242748473109
11.697912,9.17553871513335,0.0769622172832652
11.700304,9.169677870094567,0.0767216075165071
11.702708,9.16647075210826,0.0764763761097057
11.705096,9.156838023002122,0.0762780624793407
11.707472,9.145482732403286,0.076080836125281
11.709876,9.135710233670288,0.0758878189393774
11.71226,9.127800066056842,0.0756889883800105
11.714639999999996,9.121752229562958,0.0754845183096713
11.717044,9.119708594561908,0.0752597502615301
11.719428,9.12045845624019,0.0750271446625685
11.721807999999998,9.122791109784306,0.0747984929141468
11.724212,9.123633519261206,0.0745923497184802
11.726596,9.125407094297886,0.0743839960228615
11.728975999999998,9.13039347489448,0.0741523577828146
11.731376,9.133237985117796,0.0739349402669964
11.733764,9.145673690192616,0.0736818598762592
11.736143999999998,9.160111496013853,0.0734190407317907
11.738548,9.167192525155482,0.0732035282174025
11.740932,9.178929382096,0.0729754043632103
11.743311999999998,9.18410085828983,0.0727966472100387
11.745716,9.190203500043436,0.0726157882090123
11.7481,9.200310343289877,0.0724149310901731
11.750479999999998,9.214281618402287,0.072200724870577
11.752884,9.234259195753951,0.0719568069443105
11.755268,9.253677694598176,0.071732678568834
11.757647999999998,9.271233862322845,0.071514499614041
11.760044,9.288370721166928,0.0713117823709762
11.762427999999998,9.305228040757292,0.071119543199718
11.764824,9.316870454041329,0.0709586415489403
11.767216,9.325579601019164,0.0708098472677027
11.769604,9.336290848743417,0.0706522987274151
11.771983999999998,9.34686232684081,0.0704995457197944
11.77438,9.358085431244264,0.0703547736573678
11.776763999999998,9.373405284939167,0.0702184494295563
11.779147999999998,9.396314232739156,0.0700605307272188
11.781543999999998,9.413356647926754,0.0699262155150005
11.783931999999998,9.43254093348763,0.0697797475341747
11.786324,9.457731521287757,0.0696064542537933
11.78872,9.478638368341333,0.0694603628956979
11.791108,9.504899891328098,0.0692805555676279
11.793487999999998,9.53316351506128,0.0690937081604519
11.795892,9.56342923954088,0.0689000044450811
11.798276,9.58689726584831,0.068730414955288
11.800655999999998,9.612786701782738,0.0685411911210819
11.803052,9.640026612157529,0.068337173092908
11.805435999999998,9.668197688092093,0.0681321201680568
11.807832,9.69464620253396,0.067926837290867
11.810228,9.719372155483132,0.067721275180918
11.812616,9.746239978805578,0.0675027475027578
11.814996,9.775389442128168,0.0672677931246537
11.8174,9.803607739890976,0.0670361812911007
11.819784,9.831453950601446,0.0667888509212097
11.822164,9.856786203886305,0.0665389051258498
11.82456,9.878813103812629,0.066284270474713
11.826948,9.895532549634002,0.0660330648176782
11.829328,9.915464801015291,0.0657643668972661
11.831732,9.933394951650165,0.0655053895273677
11.83412,9.951604641538758,0.0652394788769503
11.8365,9.975308776987404,0.0649402405888634
11.838903999999998,9.996079646129855,0.0646511050204083
11.841288,10.010332356353858,0.0643732868128212
11.843668,10.01885830359233,0.0641094354448909
11.846064,10.032459387510276,0.0638251994582639
11.848452,10.03991439956211,0.0635683328164573
11.850832,10.047648950867664,0.0633039300403623
11.853236,10.052869544747606,0.0630353231936568
11.85562,10.05715897306777,0.0627675755176188
11.858004,10.065592372507629,0.0624824666607169
11.8604,10.073513915268284,0.0621861274668406
11.862788,10.080644062096022,0.0618877808448874
11.865168,10.085400021125006,0.0615806873439181
11.867564,10.091878541646688,0.0612758045481743
11.869952,10.101290328474564,0.060963844153156
11.872331999999998,10.109119323436609,0.060645842759587
11.874728,10.11573761358515,0.0603370269531766
11.877112,10.11863124149458,0.060033281137714
11.879508,10.116729271978256,0.0597387344615206
11.881911999999998,10.11110264022282,0.0594487504907699
11.884296,10.10161157660141,0.0591677746311876
11.886676,10.093470987420355,0.0588729393771192
11.889079999999998,10.089055060478422,0.0585731262779351
11.891464,10.08864333502932,0.0582605982452598
11.893844,10.084506947341104,0.0579521618928671
11.896247999999998,10.081441494839522,0.0576378765385196
11.898632,10.072229970471833,0.057344914941549
11.901012,10.060736806104009,0.0570648609182854
11.903415999999998,10.05138551210946,0.0567740317021654
11.905803999999998,10.037890246995216,0.0564997523197372
11.908184,10.02490683856017,0.0562369311696169
11.910576,10.010433186057906,0.0559914053413916
11.912964,10.000475591727673,0.0557462915352604
11.91534,9.990937306278022,0.0554890144324918
11.917747999999998,9.976603423402617,0.0552390911074327
11.920132,9.964643728325964,0.0549993018763301
11.922512,9.956688234742144,0.0547485342175886
11.924915999999998,9.94952413709125,0.0545006485765029
11.9273,9.947435176119823,0.054236643320288
11.92968,9.945206445521537,0.0539760346809526
11.932076,9.94390888048303,0.0537148621535115
11.93446,9.94247154581766,0.0534581325417908
11.936856,9.938892340779017,0.0532103569028827
11.939251999999998,9.933171265367092,0.0529719478942903
11.941636,9.929172751447863,0.0527364472924145
11.944016,9.92610540308842,0.0525004099681302
11.946419999999998,9.932629249580476,0.0522521167585876
11.948807999999998,9.947021729431338,0.0519885876700991
11.951184,9.96206583558826,0.0517337942707302
11.953587999999998,9.973245509879206,0.0514834205397101
11.955975999999998,9.982283313796875,0.051241755472385
11.958356,9.991460887341413,0.0509956810507278
11.96076,9.993700993086913,0.0507644504177087
11.963148,9.991238049205275,0.0505633330504321
11.965524,9.99049766681634,0.0503651701581338
