Time,Force,Position
11.690536000000002,5.883882866335243,0.1624934524300695
11.692924,6.010124649260458,0.1616364221091553
11.695308,6.1110436581901615,0.1609564030625655
11.697704000000002,6.204704125812481,0.1601228666266838
11.700092,6.292454630709906,0.1592319591747143
11.702472,6.384724985495101,0.158016239680186
11.704868,6.457399329270314,0.15684713419743
11.707256,6.506985317221911,0.1558299788989209
11.709636,6.526915672745333,0.1552506900116955
11.712036,6.528362486700048,0.1549942212562922
11.71442,6.520450423228736,0.1549360813861413
11.716816,6.525527455766077,0.1547123687278915
11.719212,6.534841007221728,0.1544379209096463
11.7216,6.534703133452736,0.1543223635119399
11.72398,6.5328426981910495,0.1542293832082717
11.726376000000002,6.536894121512125,0.1541116403052431
11.728764000000002,6.550070208975882,0.1538982844970416
11.731148,6.567063506477369,0.1536548104841766
11.733544000000002,6.586570761404471,0.1533833238218037
11.735932000000002,6.609523139316965,0.1530675783638491
11.738312,6.632847604281797,0.1527758408045077
11.740708,6.660688127418662,0.1524204789988703
11.743096,6.700121946153445,0.1518615519323295
11.74548,6.729452713357529,0.1514650758676073
11.747876000000002,6.752824400150603,0.1511437591328573
11.75026,6.760179280972345,0.1511170651951803
11.752644,6.772701846272174,0.151031457078709
11.75504,6.788157677878198,0.1508953372334562
11.757428,6.807245623924721,0.1506648724545806
11.759808,6.829266836277436,0.1503814611617419
11.762208,6.853941775682628,0.1500714461446212
11.764596,6.879919967699936,0.1497761669191022
11.766992000000002,6.904827224530605,0.1495032813080331
11.769388,6.935648235801907,0.149089333401876
11.771776,6.958880152968124,0.1487916912541414
11.774160000000002,6.976013220096472,0.1485656441189849
11.776556,6.994636531292038,0.1482989053026902
11.778944,7.020476849540353,0.1479013712714774
11.781328000000002,7.045293454430276,0.1474861248978728
11.783724,7.074301252268133,0.1469641060568181
11.786112,7.101074631934096,0.1464542333931671
11.788492000000002,7.123983579734086,0.1460054918339801
11.790888,7.137161563055711,0.1457074427700817
11.793276,7.151922338243175,0.1453971484753853
11.795656,7.163749847124441,0.1451315478958472
11.798056,7.185867398991513,0.144684637601678
11.800444,7.207937729030343,0.1442828205437613
11.802824,7.231171542054428,0.1438953063800508
11.805220000000002,7.25505698138457,0.1435107627419338
11.807604,7.27698754179654,0.1431187050802732
11.809984,7.292679482543782,0.1428028070440619
11.812384000000002,7.303436056238412,0.1425665901847797
11.814772,7.311910989932903,0.1423756688080081
11.817168,7.318383822880977,0.1422181439973353
11.819564,7.328908079150128,0.1419557590166193
11.821952,7.341853745046277,0.1416377038588652
11.824332000000002,7.351307066128792,0.1413959430820124
11.83628,7.329663628402022,0.1413075622674008
11.83866,7.333622503924484,0.141174031342049
11.841068,7.338280227581245,0.1410036384311871
11.843452,7.342705633812529,0.1408067575396404
11.845836000000002,7.340101024446169,0.1406833000958386
11.848232,7.336100614669074,0.1405220121540591
11.85062,7.328655081906586,0.140392348653074
11.853000000000002,7.319766526905121,0.1402636498277825
11.855396,7.309295180037822,0.140143144479914
11.857788,7.2956110276106045,0.1400806122105427
11.860168000000002,7.280716170369888,0.1400452630786347
11.862564,7.269034118689089,0.1399519949252998
11.867332,7.238033699394159,0.1399086340048482
11.869736,7.222579763646003,0.1399022983608157
11.87212,7.210059094204041,0.139852400525722
11.8745,7.201682395881776,0.1397326332546778
11.876904,7.197170129425484,0.1395581465524334
11.879288,7.192657862969189,0.1393824183513618
11.881668,7.191078862819092,0.1391635626105137
11.884072,7.188988005989795,0.1389355604379795
11.88646,7.180890846921247,0.1388001083309016
11.888840000000002,7.172374378972119,0.1386861635264207
11.891244,7.1695846740085205,0.1384962097675008
11.893628,7.168749847963096,0.1383158127648832
11.896008000000002,7.170661296768762,0.1381423481645723
11.898412,7.181093005239296,0.1378629869050176
11.9008,7.192036570389026,0.1375934498924894
11.90318,7.209218755203484,0.1372626230978979
11.905576,7.235480278190249,0.1367976805355832
11.90796,7.267096477110208,0.1362454709145069
11.91034,7.301925481590082,0.135645806031028
11.912744,7.341177996443369,0.1349707395227431
11.915132,7.384434712789491,0.13423749228454
11.917512,7.425829098016055,0.1335298367193207
11.919908,7.46284719469745,0.132863758046146
11.922292,7.49693202507265,0.1322400809935311
11.924672,7.525290092462317,0.1316862705742985
11.92708,7.560306088397295,0.131051796407669
11.929464,7.592388818026077,0.1304575671657982
11.931844000000002,7.622469446908442,0.1298955089574335
11.934248,7.650547975044391,0.1293601668807437
11.936636,7.682490935046312,0.1287806083095459
11.939016,7.710941550234599,0.1282709529997877
11.941412,7.73701797762413,0.1277696547345746
11.9438,7.758997655722211,0.1272947125037414
11.946184,7.771665678222508,0.1269228644240112
11.948588,7.785404635909444,0.1265341215089556
11.950972,7.794347996170628,0.1262039559318236
11.953352,7.794631327140086,0.1259763800017233
11.955752,7.789187895124015,0.1258143321834103
11.96052,7.763819795158131,0.125729162582444
11.962916,7.750041199074429,0.125720309212656
11.965304,7.736262602990727,0.1257112207070467
11.967684000000002,7.725137733959499,0.1256805043909971
11.970088,7.715083800114909,0.125633393982101
11.972472,7.71061685962899,0.1255299848916854
11.974856,7.701214552090457,0.1254865284793035
11.977252,7.695025050111842,0.125395010189937
11.97964,7.688695778506367,0.1253100425514665
11.98202,7.683297672460669,0.1252156396008825
11.98442,7.672684660108639,0.1251940899027254
11.986808,7.663561891823829,0.125136442867484
11.989188,7.658443325031851,0.1250286105089108
11.991584,7.652905449359294,0.1249405417138073
11.993972,7.648391287045133,0.1248739254381063
11.996368,7.6445287510370274,0.1248114229269201
11.998772,7.642388776521621,0.1247370924866765
12.001156000000002,7.646906730551521,0.1245912520520607
12.003536,7.65221608051434,0.1244423531248069
12.005944,7.6615296319699935,0.1242437891097457
12.008328,7.673776449731841,0.124009392325597
12.010708,7.682019066000855,0.1238265406877709
12.013112,7.691332617456506,0.1236284451486301
12.0155,7.702927808912295,0.1233942916388669
12.017880000000002,7.715034857047283,0.1231718505676102
12.020284,7.724068869249216,0.1229902074511459
12.022672,7.738038248503759,0.1227513011128033
12.025052,7.74679272145197,0.1225832964091111
12.027448,7.754476259213543,0.1224306332685267
12.029836,7.765093063281311,0.1222452792629382
12.032216000000002,7.776780802535718,0.122043184354925
12.03462,7.786186901789988,0.1218792027667622
12.037008,7.79438229623076,0.1217385462535974
12.039388,7.805790496231447,0.1215524205746068
12.041792,7.823764076978824,0.1212689319594946
12.04418,7.842948362539701,0.120965767383426
12.04656,7.861481021794519,0.1206592259550199
12.048956,7.8753578532504465,0.1203968810819948
12.051344,7.894030282132125,0.1200875811803898
12.053728,7.910840379894246,0.119798062900469
12.056124,7.926067685790533,0.1195118191532696
12.058508,7.939572430194121,0.1192342006671812
12.060887999999998,7.95293740497085,0.1189644166698235
12.063284,7.958014437508191,0.1187997645850561
12.065672,7.961368908552837,0.1186455149740619
12.068056,7.96700501959762,0.1184554607289799
12.070452,7.970778799522845,0.1182833253438886
12.07284,7.978696550567764,0.1180585116626116
12.075220000000002,7.985822905679766,0.1178346635404618
12.077624,7.990015994485572,0.1176426649461453
12.080012,7.997421888851294,0.1174073012186523
12.082388000000002,8.007249192844013,0.1171304440374377
12.084788,8.014143230530538,0.116884286997076
12.087172,8.019035167470646,0.1166619317552772
12.089556000000002,8.018851967731282,0.1164999161623368
12.09196,8.015083875379663,0.1163636108312264
12.094344,8.009453451908488,0.116242982365957
12.096724000000002,8.00526605067629,0.1161251458898427
12.099128,7.994420720898783,0.1160693690026872
12.101516,7.98171306000172,0.1160291319651675
12.1039,7.975663327649964,0.1159271731285237
12.106296,7.976551063097238,0.1157520550182384
12.10868,7.974924841118896,0.1155876170663142
12.111064,7.981726331006803,0.1153170043202686
12.11346,7.992811561641266,0.1149921173088875
12.115844,8.001754921902451,0.1146955310022379
12.118224,8.005762915111022,0.1144487647964987
12.120624,8.008979512386677,0.1142040829384554
12.123008,8.016200311155163,0.1139169208818437
12.125388,8.02435227548343,0.113621985874004
12.127792,8.029291434251782,0.1133690372909423
12.13018,8.03367151451269,0.113141797052654
12.132560000000002,8.041124630706657,0.1128796258142837
12.13496,8.04843797727376,0.1126239368366444
12.137344,8.056822259027504,0.112354569522468
12.139728000000002,8.065858167087304,0.1120894109007989
12.142132,8.080620838132637,0.1117751220739537
12.144516,8.099015623618463,0.1114042323054783
12.1469,8.119272740223849,0.1110166409660742
12.149296,8.14046102238901,0.1106219530035074
12.151684,8.153780671195365,0.1103059646706704
12.154064000000002,8.162025183322248,0.1100464271287399
12.156468,8.171852487314966,0.1097844350532002
12.158856,8.177396050561134,0.1095766494152698
12.161236,8.179447268993663,0.1094213523455927
12.16364,8.185642458545885,0.10922085085363
12.166024,8.199846051083776,0.1089413468735449
12.168408,8.214049643621667,0.1086627507529622
12.170804,8.22639090504,0.1083994912795218
12.173192,8.24101380645847,0.1081064129754467
12.175572,8.25712695194416,0.1077830029415536
12.177968,8.270865909631096,0.1074618403156428
12.180356,8.285024176198613,0.10712492179519
12.18274,8.297459881273435,0.1067947937324176
12.185136,8.311246060788612,0.1064418714179916
12.187524,8.329176211423487,0.1060471511324628
12.189904,8.341379599072829,0.105698899052447
12.1923,8.350509950789116,0.10538378318153
12.194688,8.362061712132402,0.1050336096290261
12.197068000000002,8.369749041609712,0.104712950233576
12.199472,8.382791047020218,0.1043319103695767
12.20186,8.395041656497805,0.1039502106363875
12.204244,8.406500870042473,0.1035688766274815
12.206636,8.418099853214,0.1031810917261845
12.209024,8.428395583773412,0.1027819604585174
12.211408,8.431614076906936,0.1024501664090217
12.213804,8.426963936681652,0.1021860683226059
12.216192,8.423244962016147,0.1019161447254169
12.218572000000002,8.419525987350642,0.1016463366980008
12.220972,8.413665142311858,0.1014008578288497
12.22336,8.408735462832857,0.1011496477751008
12.225740000000002,8.40366601372699,0.1009032898585386
12.22814,8.396175154994129,0.100691963124362
12.230528,8.390686397007684,0.1004625509232526
12.232908000000002,8.383707394954019,0.1002622921526994
12.235304,8.372584421780662,0.1001027579498118
12.237692,8.36332377972686,0.0999312203935109
12.240076000000002,8.35178149767292,0.0997882118091067
12.242472,8.34089084192504,0.0996507343004852
12.24486,8.33479578360291,0.0994785010764313
12.24724,8.330283517146619,0.099307230571591
12.249636,8.329775452183158,0.099102409556854
12.252024,8.333411358339394,0.0988594072910524
12.254408000000002,8.337838660428547,0.0986164776995032
12.256804,8.345711085503092,0.098363504028133
12.259188000000002,8.35865864725711,0.0980656360502202
12.261572,8.377752280877239,0.0977125206390061
12.263968000000002,8.397497540803425,0.0973675455886727
12.266356000000002,8.415892326289253,0.0970448794977657
12.26874,8.4333559462153,0.0967277935034303
12.271135999999998,8.44974863095471,0.0964232300581754
12.273524000000002,8.47279924423943,0.0960786246417889
12.27592,8.495849857524151,0.0957333979198303
12.278316,8.519691866741788,0.0953901081599059
12.2807,8.541671544839868,0.0950565972758838
12.283080000000002,8.563930762191669,0.094711706349166
12.285484,8.585398583610553,0.0943668984628818
12.287872,8.608216879469794,0.0939991675543846
12.290252,8.627962139395983,0.0936594221871271
12.292648,8.648778334508807,0.093311438827142
12.295036,8.661865665889684,0.0930156385825904
12.29742,8.673742292457064,0.0927378179856195
12.299816,8.685339379770722,0.0924740822882525
12.3022,8.699218107084517,0.0921857278813327
12.304584000000002,8.712305438465396,0.0918985075402355
12.30698,8.72245950354008,0.0916310581546373
12.309368,8.730192158987766,0.0913957346151421
12.311752000000002,8.73447969145006,0.0911684460726122
12.314148,8.739977928725851,0.0909256532584205
12.316536,8.74761803637492,0.0906634194788958
12.318916000000002,8.754978604770265,0.090412265020034
12.321312,8.755541474993446,0.0902044494510302
12.3237,8.75931715077654,0.0899677428277981
12.326084000000002,8.765234696932913,0.0897131562504737
12.32848,8.776367149395616,0.0894165984202874
12.330864000000002,8.788942624097295,0.089127550652854
12.33326,8.802961121037953,0.0888460562571449
12.33566,8.818841949098168,0.0885568081173413
12.338048,8.833791611598603,0.0882709707826259
12.340428,8.8476703389124,0.087996370222817
12.342824,8.864342562905529,0.0877074963056871
12.345212,8.875799880592329,0.0874599773724418
12.347596,8.87817786010682,0.0872767163385289
12.349992,8.879345134807817,0.087109094542552
12.35238,8.877299603948893,0.0869698389861955
12.354764,8.88084106644864,0.0868058892808782
12.35716,8.88438252894839,0.086642033551
12.359548,8.890437948873751,0.0864762531057918
12.361928,8.89942663510531,0.0862939071655774
12.364324,8.90706484689651,0.0861318771541695
12.366712,8.913771893127931,0.0859738257248071
12.369092000000002,8.92234127047891,0.0858074143639214
12.371492,8.928629007829748,0.0856654141384035
12.37388,8.929841608501116,0.0855592418862716
12.376264,8.930495130665044,0.0854744651011314
12.378668,8.930776565776632,0.0853731769974365
12.381056,8.932408475328582,0.0852531412088195
12.383436,8.93362107599995,0.0851487170376368
12.385832,8.940700209283708,0.0850120873975838
12.38822,8.948990047380965,0.0848625614023229
12.3906,8.95835082066486,0.0847043442902093
12.392996,8.975347909882085,0.0844802871901494
12.395384,8.99970177577892,0.0841987367394416
12.397768,9.02112237536956,0.0839334522571731
12.400164,9.044545075706615,0.0836551440501441
12.402548,9.063172178617922,0.083401798661756
12.404932,9.083801382275643,0.0831372767948711
12.407328,9.102708024440672,0.0828753696514245
12.409716,9.118681400299502,0.0826308572742014
12.412112,9.13479454578519,0.0823817083011161
12.414508,9.15183885683066,0.0821289745988105
12.416896,9.169302476756709,0.0818618793538282
12.419276,9.187976801496257,0.0815822104296654
12.421672,9.207442522168725,0.0813031455182515
12.42406,9.22118147985566,0.0810500857972433
12.426444,9.235432294221791,0.0808094569468705
12.42884,9.245958446348812,0.080583121653132
12.431228,9.257183446610131,0.0803329479730051
12.433608,9.263612849445703,0.080105639832275
12.436008,9.263896180415164,0.0799176738554571
12.438396,9.265390216198124,0.0797169591748505
12.440776,9.26432307272722,0.0795482239650548
12.443180000000002,9.264978490749016,0.0793788982672632
12.445568000000002,9.268706944703869,0.0791904369250796
12.447948,9.27378587309908,0.078984767595834
12.450344,9.280075506307789,0.078766327324904
12.452732,9.28571351321044,0.0785423526063039
12.455116,9.291351520113093,0.078318145325796
12.457512,9.296198131082823,0.0780921666669781
12.4599,9.302115677239197,0.0778589456163505
12.46228,9.310454633022568,0.0776015800841134
12.464676,9.318653819179078,0.0773495733166231
12.467064,9.32606160940267,0.077096456839956
12.469444,9.335890809253256,0.0768189223959688
12.47184,9.35107468503704,0.0765036863171857
12.474228,9.365746704141625,0.0761779219246437
12.476624,9.382281054365762,0.0758466562373756
12.479020000000002,9.394671433470208,0.0755407571356124
12.481408000000002,9.407201582201512,0.0752299583956797
12.483788,9.425877802798931,0.074883615569019
12.486184000000002,9.441341217836436,0.0745599624467292
12.488572,9.4552218410081,0.074232618874662
12.490952,9.467240133060209,0.0739126532757176
12.493352000000002,9.479537964366036,0.0735848230605952
12.49574,9.492906730858504,0.0732518569548822
12.498124,9.510279698843805,0.0729021695881834
12.500520000000002,9.523648465336274,0.0725715236407714
12.502908,9.53822793664224,0.072229506280515
12.505288,9.551736472761563,0.0718940265192976
12.507688000000002,9.56245151220156,0.0715659556254812
12.510072,9.571024681268277,0.0712532648133908
12.512456,9.579597850334991,0.0709410981765085
12.514852,9.58696031458821,0.0706406271705814
12.51724,9.594462548468288,0.0703368888996139
12.519624,9.597960580855531,0.0700516177216401
12.52202,9.602389778802552,0.0697649775280164
12.524408,9.606818976749576,0.0694787136024283
12.526788,9.614041671375931,0.0691855842194774
12.529188,9.622195531562069,0.0688905560130104
12.531576,9.628347291001788,0.0686052968986008
12.533956,9.632776488948808,0.0683179875917304
12.536356,9.63706591726897,0.0680349950039838
12.538744,9.638422079282936,0.067762577702658
12.541124,9.637356831669903,0.0675126352231407
12.54352,9.63093690812368,0.0672951387633359
12.545908,9.614506480845373,0.0671193054109129
12.548288,9.600078154313485,0.0669342461939687
12.550688,9.586301454087652,0.0667563456061561
12.553076,9.57746012091443,0.0665600001921125
12.555456,9.571272514793684,0.066362479761716
12.557852,9.56387420385944,0.0661756974641805
12.560244,9.557127519231251,0.0659963465837729
12.562640000000002,9.554385036095898,0.0658012004155029
12.565036,9.549221143333549,0.0656276812770829
12.567424,9.544848646504114,0.065456497362676
12.569808000000002,9.53526124336835,0.0653115306656718
12.572204,9.524463135419088,0.0651771023296892
12.574592,9.5158068978431,0.0650303606529655
12.576976000000002,9.505148559520697,0.0648910669089429
12.579372,9.494350451571432,0.0647561363050067
12.58176,9.493283308100532,0.0645919303183177
12.584144000000002,9.495428970189549,0.0644099308744693
12.58654,9.498645567465203,0.0642215522846155
12.588932,9.502141703994578,0.0640239836946875
12.591312,9.508850646083866,0.0638078980208318
12.593708,9.524499156718605,0.0635597512989249
12.5961,9.543080933659532,0.0633037017966146
12.59848,9.561942249854184,0.0630399876522786
12.60088,9.574005867876666,0.0627956554613014
12.603268,9.58620925552601,0.0625478279871865
12.605652,9.60083405280235,0.0622800073900244
12.608048,9.61615769821299,0.0619913029558435
12.610436,9.62668574619788,0.0617145794822454
12.612816,9.637353563809633,0.0614331313320347
12.615216,9.648161151048242,0.0611471300838593
12.617604,9.663252479033403,0.0608375089156615
12.619984,9.678763115899152,0.060514482569994
12.622384,9.693202817578255,0.0601989111627603
12.624772,9.711646720750196,0.05987044973406
12.627156,9.731301328735636,0.0595331511604587
12.629552,9.744158238548906,0.0592151771181358
12.631944,9.75394211242912,0.0589102620844074
12.63432,9.764657151869113,0.0586045277772156
12.636716,9.778305457615303,0.0582923617126383
12.6391,9.791022597801714,0.0579815045690051
12.64148,9.80001507574901,0.0576758650645479
12.643876,9.80607428739011,0.0573781581576688
12.646264,9.811062563844573,0.0570863966298555
12.648644,9.822848538471204,0.0567801247340133
12.651048,9.8318410164185,0.0564766397756147
12.653432,9.840833494365796,0.056174563574537
12.655812,9.848335728245877,0.0558911999957572
12.658212,9.854627257312451,0.0556160418584552
12.660596000000002,9.86198972156567,0.0553359556267611
12.66298,9.87200591287136,0.0550586308280795
12.665376000000002,9.88281350010997,0.0547857171602224
12.66776,9.895064109587558,0.0545246264604679
12.670156,9.905172848691864,0.0542736433922063
12.672556,9.914070882982674,0.0540328968657612
12.67494,9.91989588134043,0.0538025350673001
12.677324,9.926512275631104,0.0535758789820324
12.67972,9.932849130668057,0.0533574526811651
12.682108,9.940117151264788,0.0531390510721438
12.684488000000002,9.943241200741827,0.0529355753234195
12.686892,9.949298516525058,0.0527269627897852
12.68928,9.95386558824107,0.0525351980252432
12.691656000000002,9.96001545182292,0.0523510864028827
