Time,Force,Position
13.121368,4.391480800788781,0.1661728230412605
13.123756,4.554549897224547,0.1633944760740968
13.12614,4.714083218734172,0.1606192941809387
13.12854,4.868033338600865,0.1578263352157438
13.130928,5.002572543054813,0.1554357742713736
13.133308,5.118305236573831,0.1534235788528841
13.135704,5.227289349606791,0.1515156507826814
13.190652,5.315034166930609,0.1503257079070047
13.193048,5.32364697439409,0.150205674931362
13.195432,5.338126314469963,0.1499635744708424
13.197816,5.357401251971587,0.1496236416071048
13.200220000000002,5.3804008517123245,0.1492187904783912
13.202608,5.4028413729456215,0.1488525210748673
13.204988,5.43198704455247,0.1482936549862713
13.207384,5.461691794666759,0.147700448151602
13.209772,5.481386041048964,0.1473322507954036
13.212156,5.498147021124974,0.1470304127642694
13.214552,5.515327310081564,0.1466984718212243
13.21694,5.5372106486652894,0.1462257833259302
13.21932,5.548059770158535,0.1459499701455344
13.221716,5.556767021278503,0.1457286387430736
13.224104,5.564403337211832,0.1455333764692084
13.226488,5.571899883518302,0.1453474875921729
13.228884,5.584331796877384,0.1450599820458473
13.231272,5.6041204869160754,0.1445983500850701
13.233652,5.623117781021849,0.1441521200681524
13.236048,5.651194413299928,0.1435223857814773
13.238436,5.676617318525532,0.142934154345639
13.240832,5.691517863339855,0.142542245784815
13.243232,5.702042119609006,0.1422113098925796
13.24562,5.7144287069977135,0.1418545608284527
13.248,5.724952963266865,0.1415316805011911
13.250396,5.735244902110539,0.1411754910285991
13.252784000000002,5.742324035394297,0.1408920091731135
13.255168,5.743396866438805,0.1407253870976028
13.257564,5.751267395655481,0.1404332788667074
13.259951999999998,5.759510011924495,0.1401642806438998
13.262336,5.769987046365403,0.1398891333167161
13.264732,5.780184541552591,0.1396349484686468
13.267116,5.7969001956582265,0.1392765609708374
13.2695,5.8136158497638615,0.1389174603889768
13.271896000000002,5.833264770175694,0.1385058782226924
13.27428,5.857988827266997,0.1379989378249986
13.276664,5.876846351745911,0.1375990654884089
13.27906,5.889697573985574,0.1373165769520825
13.281448,5.895890867679928,0.1371434338489139
13.283828,5.895286463202113,0.1370902609466003
13.286228,5.895613224284076,0.137023039137234
13.288612,5.901946287605289,0.1368443216513525
13.290992,5.912935178725394,0.1365977999008157
13.293392,5.919687550927191,0.1363952668614792
13.29578,5.924577592009428,0.1362204059379971
13.298176000000002,5.933843921636838,0.1359966515781421
13.300576,5.947905848689999,0.1356972954784809
13.302964,5.971047113915467,0.1352335341210724
13.305344000000002,5.995678623208152,0.1347310987663672
13.307744,6.018075714328944,0.1342320036665495
13.310132,6.0396814095168185,0.1337414683030702
13.312512000000002,6.062358039891331,0.1332342676847497
13.314912,6.084103504706065,0.132746796309763
13.3173,6.107199443961158,0.132222707905429
13.319680000000002,6.124568620230721,0.1317811415413765
13.322076,6.132578919074258,0.1315127714375945
13.324468,6.142172009783629,0.1312333135509967
13.326848000000002,6.152416726799061,0.130955923886486
13.329248,6.170530077173298,0.1305487737211972
13.331636,6.1871531834803175,0.1301884528031865
13.33402,6.206290247212951,0.129810091165701
13.336416,6.223005901318586,0.1294943676411323
13.338804,6.233994792438692,0.1292651830802897
13.341188,6.248708345797911,0.1289878483978687
13.343588,6.266494935090186,0.1286580015819544
13.345976,6.27841499177007,0.1284201610931543
13.348356,6.286750155837701,0.1282247960070005
13.350756,6.288427391360023,0.1281244460338816
13.353144,6.2851692598297335,0.128100926303605
13.355528,6.286566956098334,0.1280181995541693
13.357924,6.286242090874241,0.1279508445852316
13.365092,6.272743034044257,0.1279247129465702
13.367476,6.273349334379941,0.1278462321051779
13.36986,6.284385447328291,0.1275875090232004
13.37226,6.297331113224439,0.1272600301798706
13.374648,6.311767023187808,0.1268875016974867
13.377032,6.322478270912062,0.1265646136049651
13.379428,6.334819532330397,0.1261892332433636
13.38182,6.3426447355767,0.1258632678648378
13.384196,6.351820413263361,0.1255025387045002
13.386603999999998,6.360996090950024,0.125139035703829
13.388988,6.365236401584074,0.1248494919929658
13.391368,6.366263906658207,0.1246188267000241
13.393771999999998,6.369945138784815,0.1243611315602392
13.396160000000002,6.3762800979639,0.1240784900826451
13.39854,6.384058079381958,0.1237967357607741
13.400944,6.390904895240239,0.1235250437609681
13.403327999999998,6.392024948112989,0.1233301026483064
13.405712,6.393796627291797,0.1231399856518981
13.408108,6.391564104977773,0.1230113529316986
13.410495999999998,6.392264848969943,0.1228395863253714
13.412876,6.393105362588974,0.1226602883335827
13.415272000000002,6.393294249901946,0.1224775702056513
13.417656,6.386405899789031,0.1224046233869318
13.42004,6.381751967848008,0.122330915924862
13.422436,6.375887331093487,0.122283837243244
13.424824,6.371605486204802,0.122231161435045
13.427204,6.368906433181953,0.1221730687064547
13.429604,6.3702115816519385,0.1220571100764013
13.431992,6.369514629375505,0.1219700750088293
13.434372,6.372682108965048,0.1218333977692731
13.436764,6.377060293368087,0.1216697551538536
13.439152,6.382509412957766,0.1214874340990544
13.441532,6.391450877361082,0.1212358697597252
13.443928,6.398669780271702,0.1209985497767588
13.446316,6.404166121689624,0.120773036245242
13.448696000000002,6.410314089413605,0.1205516567488061
13.451092,6.422049050496256,0.1202679078381192
13.45348,6.434854946765544,0.1199666650800133
13.45586,6.450174800460446,0.1196473658532436
13.458256,6.463352783782073,0.1193637521314175
13.498872,6.388547944780797,0.119226537221984
13.501268,6.380261898399278,0.119226424277908
13.50366,6.372814469778921,0.1191795001786428
13.50604,6.372723817838172,0.1190177944415709
13.508436,6.374402949218363,0.1188006746074267
13.510824,6.38050559097197,0.1185056346061946
13.513204000000002,6.388750103098853,0.1181761126132115
13.515604,6.404491161532206,0.1177248128011528
13.517988,6.417298953659363,0.1173137792727838
13.520368,6.437044213585549,0.1168110046520133
13.522772,6.458279717578956,0.1162653118331075
13.52516,6.483659192692055,0.115656544680158
13.527544,6.509830063738073,0.1150450099922402
13.52994,6.531345106985199,0.114482374674482
13.532324,6.553651546165244,0.1139223888577782
13.534707999999998,6.569300056799978,0.1134367851422091
13.537104,6.588673229673828,0.1129138030250521
13.539492,6.610467812174674,0.1123425244918553
13.541888,6.630539833182825,0.1117871073865047
13.544284,6.649261379750615,0.1112665579377362
13.546668,6.665049660012212,0.1107793468959473
13.549052,6.678696069900532,0.1103268917245025
13.551448,6.69206294053513,0.1098911648051678
13.553832,6.696630012251142,0.1095614089764882
13.556216,6.698635904713298,0.1092877735909158
13.55862,6.703295524227928,0.1089979204567972
13.561004,6.707023978182779,0.1087176255283847
13.563384,6.708331022510634,0.1084861045201975
13.56578,6.711640167584905,0.108231511972346
13.568168,6.714809543032316,0.1079861943978343
13.570548,6.718770314412645,0.1077400149880854
13.572948,6.720309676165977,0.107539373601712
13.575336,6.724270447546306,0.1072945209246819
13.577716,6.731816111538887,0.107024120280473
13.580112,6.7356371132923565,0.1067861995208059
13.5825,6.744253712471577,0.1064997452928352
13.584880000000002,6.750076814971463,0.1062382120173566
13.58728,6.750125932657576,0.1060741158955199
13.589668,6.749196662955667,0.1059609745770442
13.592064,6.748127623626897,0.1058551179709264
13.594460000000002,6.75157464247016,0.1057159880950153
13.596848,6.757023762059838,0.1055536779540357
13.599228,6.761122407209158,0.1054210763213544
13.601628000000002,6.7695973409036485,0.1052619946046373
13.604016,6.777141109038362,0.1051101164919355
13.6064,6.778678574933823,0.1050296204067275
13.608796000000002,6.782078371948842,0.1049334696332667
13.611184000000002,6.784407233777223,0.1048528067669197
13.613564,6.783523290045688,0.104817945008728
13.615964000000002,6.780637245567736,0.104806073901073
13.618352000000002,6.780265158515399,0.1047851442822113
13.620732,6.782966107396117,0.1047266763506957
13.623128,6.787389617769532,0.1046611312801868
13.625516,6.790742192956308,0.1046103547760222
13.6279,6.798890365568835,0.1045154772357012
13.630296,6.803825732621446,0.1044640439167099
13.632684,6.812765301166893,0.1043695222789238
13.635068,6.829341185645668,0.1041666441502794
13.637464,6.845824522325827,0.1039284892248645
13.639852,6.8667313693794,0.1036291897043327
13.642232,6.88405332382072,0.1033523930712464
13.64464,6.8983022423289855,0.1031113661339525
13.647024000000002,6.916834901583804,0.1028148713632308
13.649404,6.9365782656521215,0.1024996040361436
13.6518,6.959254896026634,0.1021555023332305
13.654188,6.983282000841505,0.1017814749661082
13.656568,7.003165134536682,0.1014575238625507
13.658968000000002,7.022256872298942,0.1011334466560162
13.661352,7.04241954524784,0.1007947870325231
13.663736,7.060859656704041,0.1004630895931036
13.666136000000002,7.0739923140552925,0.1001611658281165
13.668524,7.086613114727348,0.0998481019276824
13.670904,7.091505051667454,0.0996059463498957
13.6733,7.098818398234559,0.0993234584533872
13.675688,7.101475917002772,0.0990763992259418
13.678072,7.111490212450595,0.0987421517285146
13.680468,7.115637975286028,0.0984627430429688
13.682856,7.116712702188406,0.0982185700814098
13.685236,7.1182992857699805,0.0979879183622873
13.687636,7.114670963045222,0.0978180103033185
13.690024,7.115186611440158,0.0976021383333798
13.692404,7.11784413020837,0.0973593899794119
13.694804,7.116637217110609,0.0971499391721783
13.697192,7.112636807333516,0.096959865660911
13.699572,7.109986871996779,0.0967443152472778
13.701972,7.10947880703332,0.096503297490397
13.704356,7.111392151696859,0.0962228666453334
13.706752000000002,7.115587136360535,0.0959106705802836
13.709148,7.1209928258377095,0.09558003228874
13.711536,7.132265047927274,0.095201847296001
13.713920000000002,7.1492640330023685,0.0947821616407769
13.716316,7.163050212517548,0.0944004375365826
13.718704,7.180421284644979,0.093999093539391
13.721084,7.194579551212496,0.0936370634623377
13.723488,7.208598048153152,0.0932798781666395
13.725876,7.215539307667919,0.0929927085797885
13.728256000000002,7.229278265354856,0.0926528371546804
13.730652,7.244088158228431,0.0923022147219105
13.73304,7.264672035915778,0.0918764710921497
13.735424000000002,7.2872580143495425,0.0914339186104596
13.737824,7.311566554276004,0.0909931860201633
13.740208,7.336014863829324,0.0905475636158259
13.742588,7.359671777449728,0.0901002109294819
13.744988,7.382117986256632,0.0896694053735785
13.747372,7.40242232469026,0.0892650320387127
13.749756,7.418582692004193,0.0889008686471395
13.752152,7.43274095857171,0.0885535015463097
13.754536000000002,7.446479916258646,0.0882271556869399
13.75692,7.457285607639387,0.0879230137071199
13.759315999999998,7.461014061594239,0.0876809026083667
13.7617,7.4618092492428945,0.0874614863942933
13.764084,7.465677472824609,0.0872144619974015
13.76648,7.470104774913761,0.0869427161645747
13.768868,7.474532077002912,0.0866704043925574
13.771252,7.482311954278841,0.0863583927196294
13.773648,7.492093932301186,0.0860297215303134
13.776036,7.495869608084281,0.0857504730279371
13.778432,7.500576449427156,0.0854680647189458
13.780828,7.499649075583115,0.0852546593836323
13.78322,7.495928205059741,0.0850549897907315
13.7856,7.485409636364197,0.0848998545585494
13.787996,7.4755426939747105,0.0847523170507364
13.790384,7.471122975317035,0.0845840522158316
13.792764000000002,7.470847227779053,0.0843797698836713
13.795164,7.467358674681156,0.0842064744111102
13.797552,7.46838617975529,0.08401674064649
13.799932000000002,7.474209282255176,0.0837992713224516
13.802332,7.477238888075727,0.0835949226553565
13.804716,7.481991055388974,0.083387495790736
13.807099999999998,7.489816258635277,0.083153829040099
13.809496,7.49764146188158,0.0829205920082512
13.811884,7.505466665127883,0.082688663613165
13.814267999999998,7.511941393933826,0.0824794703392581
13.816664,7.523631029046102,0.0822264548056955
13.819052,7.533550880837438,0.0820147036224558
13.821436,7.544541667815412,0.0817937259698713
13.823832,7.558885029980163,0.0815365938481472
13.82622,7.570295125838719,0.0812988018347224
13.828604,7.5778407898313,0.0810820679381254
13.831004,7.584035979383524,0.0808861714120848
13.833392,7.592093500055303,0.0806810471028145
13.835772,7.597357524047749,0.0804882451008993
13.838172,7.598105489868162,0.0803109044854983
13.84056,7.596991124569019,0.0801422270984072
13.842944,7.601371204829929,0.0799174692343124
13.845348,7.605518967665361,0.0796679721226445
13.847732,7.606593694567739,0.0794431933182576
13.850112,7.610741457403171,0.0791949769431057
13.852516,7.61703109061188,0.0789283258459951
13.8549,7.625043285313286,0.0786611210555232
13.857284,7.631193148895134,0.0784010640256463
13.85968,7.634921602849987,0.0781722212910473
13.862064,7.6418628623647535,0.0779154101963516
13.864444,7.640516179640133,0.0777232149013983
13.866848,7.6414511369156495,0.0775067352088814
13.869232,7.642246324564305,0.0772968538483642
13.871616,7.6416910377726035,0.0771083861309925
13.874012,7.638993880607625,0.0769377714611452
13.876396,7.639090220121981,0.0767555351978512
13.878775999999998,7.644401465942669,0.0765318833038256
13.88118,7.650643877323135,0.076304558520494
13.883568,7.6659656268759075,0.0760191593313676
13.885948,7.680868067548098,0.0757509805132069
13.888344,7.696561904153208,0.0754864336166941
13.890732,7.709042935198403,0.0752508672268435
13.893112,7.71924232624346,0.0750401865812003
13.895508,7.730652422102015,0.0748154704728542
13.897892,7.74206251796057,0.0745921395679406
13.900288,7.749608181953152,0.074387732414743
13.902684,7.7558505933336175,0.0741677506619689
13.905072,7.766097206206918,0.0739247370787067
13.907452,7.778113602401158,0.0736446662824794
13.909844,7.786917193035482,0.0733916235080243
13.912232,7.804288265162914,0.0730704188540908
13.914612000000002,7.819145379864733,0.07274811945033
13.917016,7.834421803447131,0.0724109721008131
13.919404,7.851979867029667,0.0720532225820352
13.921784,7.876894707291813,0.0716444367209251
13.92418,7.905162122740733,0.0712067895813741
13.926568,7.9306360415103185,0.0707793941437252
13.928947999999998,7.955598103600707,0.0703386678406731
13.931344,7.968687330839455,0.0699592239959895
13.933732,7.985129133264976,0.0695513228694285
13.936128,8.002641870877138,0.0691379685297054
13.938524,8.023087874795495,0.0687133311000891
13.940912,8.04539620983341,0.0682847136121962
13.943292,8.066633609684684,0.0678655928138093
13.945688,8.084937743229764,0.0674594694000099
13.948076,8.101100006401566,0.0670662293186081
13.950456,8.11577202550615,0.0666977180232076
13.952852,8.128162404610597,0.0663518196549517
13.95524,8.142926971513797,0.0660177976859601
13.95762,8.158762473603636,0.0656762177473125
13.960016,8.169894926066341,0.0653835904858306
13.962404,8.181539235208243,0.0651052001685494
13.9648,8.188480494723011,0.0648723989712081
13.967196,8.192208948677864,0.0646624999142388
13.969584,8.19137412263244,0.0644937783900762
13.971968,8.190259757333296,0.0643365083382351
13.97436,8.192730284646407,0.0641773863804218
13.976748,8.19757499975827,0.0640288192247642
13.979132,8.209729269721503,0.0638703285106919
13.981528,8.221604000431013,0.0637237154489094
13.983916,8.232268026327024,0.0635902202813195
13.986296,8.2394397074094,0.0634881723003099
13.988696,8.24833394998447,0.0633885295555268
13.99108,8.257228192559543,0.0632891726342233
13.993464,8.26877616218709,0.0631899915209205
13.99586,8.290986261852778,0.0630578400295484
13.998248,8.314918923011163,0.0629276588720684
14.000632,8.33684948342313,0.0628057138773883
14.003028,8.353984446409347,0.0626977061003651
14.005416,8.370839870141843,0.0626001829460781
14.007796,8.385972732381642,0.0625006103486537
14.010192,8.40324746499472,0.0623883485072583
14.01258,8.425597334287268,0.0622524319190718
14.014964,8.446084872460261,0.0621192697846687
14.01736,8.465781014700335,0.0619825266507097
14.019748,8.481752494701295,0.0618526730399584
14.022144,8.496001413209562,0.0617220723133476
14.024540000000002,8.509458935784908,0.0615887294874786
14.026924,8.52068204018836,0.0614404982754213
14.029304,8.528180482352699,0.0612984215997831
14.031704,8.533164967091423,0.0611506309984587
14.034088,8.540059004777948,0.0609660812803376
14.036472,8.543787458732798,0.0607677648140716
14.038868,8.548866387128008,0.0605536979235668
14.041256,8.5543646244038,0.0603254687772782
14.043636,8.552553306828225,0.0601042028613991
14.046032,8.55036990220031,0.0598647565757748
14.04842,8.551678842386035,0.0595969808958717
14.050816,8.557131753691454,0.0593100516600526
14.053211999999998,8.56314374350431,0.0590037677338678
14.055599999999998,8.573439474063724,0.0586739191309768
14.05798,8.579870772757163,0.0583538599347138
14.060376000000002,8.585278358092207,0.0580080207649529
14.062764,8.593898748987165,0.0576437837988662
14.065144,8.602798679135844,0.0572693935170004
14.06754,8.612909314098022,0.0568836608677645
14.069928,8.61822435163445,0.0565068949945949
14.072308,8.62302753249168,0.0561174288648109
14.074704,8.62689954778913,0.0557291253332526
14.077092,8.629980167153661,0.0553350669626949
14.079488,8.633200556145054,0.054934943930576
14.081884,8.636141405882725,0.0545452846351399
14.084272,8.634938284500704,0.054171330514668
14.086656,8.632384688678323,0.0538135636644163
14.089052,8.62689782654975,0.0534625873063632
14.091436000000002,8.62141096442117,0.0531110602783883
14.09382,8.615924102292594,0.0527597426682055
14.096216000000002,8.606433038671184,0.0524197521349215
14.098604000000002,8.593077543183805,0.0520865974475709
14.100984,8.580792982883057,0.0517483196720295
14.103383999999998,8.561570954783285,0.0514262237756
14.105768,8.544630566683649,0.051087760987269
14.108148,8.5220559633971,0.0507829108340439
14.110544,8.497339489737273,0.0504872646191225
14.112932,8.473693951264085,0.0501855262971078
14.115312,8.444833506484565,0.0499019397889641
