Time,Force,Position
13.212367999999998,4.887354394033433,0.1599443918412407
13.214747999999997,4.902949995266318,0.1597462351573843
13.217152,4.927113077992311,0.1593033956163219
13.219535999999998,4.946620332919411,0.1589552332131574
13.221915999999997,4.967058753406292,0.1585870411748257
13.224315999999998,4.98842833945295,0.1582050630484036
13.226699999999996,5.017574011059799,0.1575934056916817
13.229083999999997,5.049932488226562,0.1568936153596673
13.231479999999998,5.085830532035206,0.1560196435379739
13.233863999999995,5.117492056925537,0.1552043872690464
13.236248,5.147151481069452,0.1544496898623428
13.238643999999995,5.185051625624512,0.1535208706654007
13.241027999999996,5.220809899806295,0.1526370988841139
13.243412,5.256196086935741,0.1517319371298156
13.245807999999997,5.290418791079932,0.1508220894596901
13.248195999999997,5.317564257798232,0.1500883037119751
13.250576,5.344709724516534,0.1493607947306892
13.252979999999996,5.3641263275028885,0.1488127427050059
13.255363999999997,5.385592253063901,0.1481660324966086
13.257748,5.403380738214045,0.1475511262717317
13.260143999999997,5.412648963699323,0.1471168052687531
13.262531999999997,5.4141883254526535,0.1468506824367881
13.264916,5.412282564220591,0.1466341811953899
13.267311999999997,5.414567995936468,0.1462634690802713
13.269699999999997,5.4206253117197,0.1457753427506697
13.27208,5.426542857876073,0.1453015527410906
13.274475999999996,5.431621786271284,0.1448945012407327
13.276864,5.436700714666496,0.1444906526831869
13.279248,5.439218463807848,0.1441669860127072
13.281643999999996,5.448394141494509,0.1437240039369055
13.284032,5.458640754367809,0.1432590110490608
13.286412,5.473171107987663,0.1427057668771406
13.288808,5.496268943100626,0.1419599782071111
13.291196,5.517783986347752,0.1412249341556086
13.29358,5.535434597728904,0.1405574950680571
13.295972,5.560302216162808,0.139734668131346
13.29836,5.589593344970123,0.1388222289684705
13.300739999999998,5.622888675270273,0.1378266813808477
13.303144,5.649106768144534,0.1369704173784011
13.305532,5.670761581018519,0.1362277042679976
13.307911999999998,5.69642059538534,0.1354065707046992
13.310308,5.727014976804773,0.1345017736664611
13.312696,5.756630970836183,0.1336579646886063
13.315091999999996,5.782195541546517,0.1329450083535856
13.317491999999998,5.800123796323521,0.1324125491577647
13.319879999999998,5.816329489607827,0.1319026189390218
13.322259999999996,5.828950290279882,0.1314439981631976
13.324664,5.8351454798321045,0.131124299960268
13.327051999999998,5.844273935690523,0.1307520082133063
13.358099999999997,5.814159355984998,0.1305214078607517
13.360495999999998,5.8222130849410405,0.1304756376386327
13.362883999999998,5.834271015389915,0.1303626405618103
13.365264,5.852614787331762,0.1301314188172879
13.367659999999995,5.870539250393027,0.1299259332640329
13.370047999999995,5.887764865319991,0.1297623553989519
13.372428,5.913650509538681,0.1294662905464532
13.374831999999998,5.939908240809707,0.1291955243693534
13.377219999999998,5.965234806520957,0.1289382271194145
13.379599999999996,5.9921441640980415,0.1286724047534638
13.381995999999996,6.02207933577994,0.1283941723997613
13.384383999999995,6.052014507461836,0.1281149271119478
13.386764,6.082648527278035,0.1277968350654425
13.389159999999997,6.107975092989283,0.1275379843379709
13.391547999999997,6.1245018597819465,0.1274182498327583
13.393928,6.141680252880667,0.1273011832088338
13.396331999999996,6.160488659673467,0.127128196995931
13.398715999999997,6.177854044227292,0.1269583740684044
13.4011,6.198060147288696,0.1267092727458567
13.403503999999998,6.2110492432973485,0.1265876671077843
13.405891999999998,6.226040440052419,0.1264331760745972
13.408271999999997,6.234513477889041,0.1263649161249551
13.410667999999998,6.242055350165884,0.126309210438533
13.413055999999996,6.246524186509673,0.1263058860266005
13.415436,6.25248326692068,0.1262579097560651
13.417831999999995,6.263797023264879,0.1261116133496598
13.420219999999995,6.271665656623687,0.12599637107503
13.422604,6.2785105766240985,0.1258556225396356
13.424999999999995,6.286426431811149,0.1256959939001842
13.427383999999996,6.295041135132501,0.1254967680414561
13.429768,6.305565391401652,0.125230121725564
13.43216,6.317579891738022,0.124921114101522
13.434551999999996,6.3262418168876176,0.124678346674852
13.436932,6.339839109089824,0.124365700676299
13.439331999999997,6.357580372411724,0.1239814299076016
13.441719999999997,6.377882814987482,0.123534852121413
13.4441,6.394972452003325,0.1231452348868539
13.446503999999996,6.408989053086112,0.1228063301656584
13.448891999999995,6.416719812675928,0.1225755543492754
13.451275999999996,6.431015953012436,0.1222235713383099
13.453671999999996,6.444800236669745,0.1218599169528117
13.456059999999995,6.458724289953916,0.1214874782270138
13.45844,6.4712053209991085,0.1211133573335106
13.460835999999995,6.482894956111386,0.1207415024564545
13.463223999999997,6.493793195290745,0.1203742299509359
13.465619999999998,6.497242109991876,0.1200928509787476
13.468016,6.499620089506368,0.1198298960720057
13.470403999999998,6.5034410912598375,0.1195710201728217
13.472783999999995,6.506330927453528,0.1193232081877439
13.475179999999998,6.507218662900802,0.1191044298923504
13.477567999999998,6.505964527974798,0.118922216389858
13.479951999999995,6.504430853795073,0.1187562424897699
13.482347999999998,6.5042476540557095,0.1185563535142442
13.484735999999998,6.501270957637008,0.1183876467014238
13.487115999999997,6.499504966031807,0.1181936434862677
13.489511999999998,6.497599204799744,0.118007957726955
13.491899999999998,6.501187889127738,0.1177275515835101
13.494283999999997,6.50491634308259,0.117438628302863
13.496688,6.512509228903415,0.1171028490852727
13.499071999999998,6.513024877298349,0.1168664655543474
13.501455999999996,6.51139865532001,0.1166646306764103
13.503851999999998,6.512426160394143,0.1164416835589941
13.506239999999998,6.513174126214556,0.1162337365124276
13.508619999999995,6.514853257594748,0.1160158666843984
13.511024,6.516113080094359,0.1158213262499263
13.513412,6.52282012632578,0.1155758786338402
13.515791999999998,6.529666942184061,0.1153221811596591
13.518188,6.5327890958032295,0.1151075274974864
13.520575999999998,6.534980083862619,0.1149023777213903
13.522955999999995,6.5388936334147045,0.114685866802816
13.563575999999998,6.385277858061454,0.1145039255005674
13.565972,6.3805767042921895,0.11446929406976
13.568368,6.380671147948675,0.1143806343547679
13.570756,6.381696757164939,0.1142832640853611
13.573135999999998,6.382582596754343,0.1141935306037948
13.575532,6.391197300075694,0.1140158787292298
13.57792,6.403024808956961,0.1137881783701733
13.580303999999998,6.41298998671867,0.1135784360951494
13.5827,6.425748661159715,0.1133423166026217
13.585088,6.438647105227621,0.1130977482294029
13.587467999999998,6.458110930042218,0.112743982769998
13.589864,6.477062898177617,0.112378703235192
13.592251999999998,6.504163038925544,0.1119018579785959
13.594635999999998,6.529400848553914,0.1114467838722274
13.59704,6.55813100299592,0.1109291254590733
13.599428,6.582996725571953,0.1104511223727419
13.601807999999998,6.608281757028568,0.1099535481399073
13.604204,6.63356678848518,0.1094596584836208
13.606588,6.66206462550171,0.1089199246185254
13.608971999999998,6.689631296958461,0.1083917688299807
13.611375999999996,6.710260500616182,0.1079462140087968
13.613764,6.723300610168817,0.1075762140725384
13.616143999999998,6.728751625616366,0.1072834496627936
13.618543999999996,6.731828453265158,0.1069949558441778
13.620932,6.738397625727588,0.1066459293865445
13.623312,6.741381905577764,0.1063255430098464
13.625708,6.741944775800944,0.1060512206739181
13.628096,6.7453011427034575,0.1057521757712239
13.63048,6.748145652926773,0.1054411490925037
13.632876,6.753132033523367,0.1050998706429933
13.635264,6.755045378186908,0.1047981908901673
13.637643999999998,6.755748018036948,0.1045189621872884
13.640047999999997,6.753098082700211,0.1042933041837679
13.642435999999996,6.753660952923391,0.1040242836709045
13.644816,6.751150787213514,0.1037928539109206
13.647219999999995,6.752644822996471,0.1035156016110662
13.649607999999995,6.753999089152568,0.1032466304584341
13.651991999999996,6.751349153815832,0.1030213779418741
13.654387999999996,6.747348744038737,0.1028257326097477
13.656775999999995,6.740275298328586,0.1026659563077913
13.659159999999996,6.741629564484684,0.1023971909720554
13.661555999999996,6.754856665492422,0.1020066185971348
13.663943999999995,6.7718084287392735,0.1015842934330086
13.666327999999996,6.787269947918906,0.1011966866258334
13.668723999999996,6.798307956725125,0.1008763149279891
13.671111999999995,6.808786887023903,0.1005846784317173
13.673492,6.826343054748569,0.1002177907183385
13.675887999999995,6.843200374338935,0.0998870935922265
13.678275999999997,6.85842768023522,0.0995997780059258
13.680656,6.874166842810705,0.0993286143687266
13.683059999999998,6.893351128371582,0.0990451177049847
13.685447999999996,6.917051472104489,0.0987367803268824
13.687828,6.94503555658395,0.0983778666191957
13.690223999999995,6.969107987369196,0.0980962831163588
13.692611999999995,6.998487872259391,0.0977917738466411
13.694992,7.031592419388699,0.0974654070313141
13.697387999999997,7.061623930584951,0.097171897360532
13.699779999999995,7.097382204766735,0.0968332618643974
13.702156,7.135142579694936,0.0964794472570373
13.704563999999998,7.179700652795304,0.0960694719617785
13.706947999999995,7.219276137014817,0.0957492340036635
13.709328,7.249632513435164,0.0955287056513358
13.711731999999998,7.280920055415289,0.0953032782275244
13.714115999999995,7.314721554821029,0.0950714406049115
13.716496,7.349454219786547,0.0948329005119852
13.718895999999996,7.385537359192423,0.0945695732693435
13.721283999999995,7.412820699679715,0.0943829323545504
13.723664,7.439731953114669,0.0941762104198849
13.726059999999997,7.466782976176484,0.093962708161148
13.728447999999997,7.492111437745601,0.0937559496273801
13.730828,7.510781970769411,0.0935969211760372
13.733231999999996,7.524517136740608,0.0934815764924238
13.735615999999997,7.532897626778613,0.093428837409311
13.737996,7.539835094577644,0.0933680865262139
13.740395999999995,7.542256504204641,0.0933308411928706
13.74278,7.539882316405886,0.0933290480816566
13.745159999999998,7.542443495659745,0.0932858561192731
13.752339999999997,7.537090715584421,0.0932359294231377
13.754739999999998,7.532761648867492,0.0932128887061409
13.757127999999998,7.530714222150701,0.0931600915584299
13.759507999999997,7.529737730620549,0.0930957753124381
13.761903999999998,7.530670792038196,0.092983107758423
13.764291999999998,7.534816659015759,0.0928365908050771
13.766672,7.538031360433544,0.0926957894640938
13.769075999999998,7.545529802597883,0.0925092341370898
13.771459999999998,7.555449654389221,0.0922890097645695
13.773839999999996,7.56485764950136,0.0920556782369367
13.776235999999995,7.573753787934299,0.0918094362282697
13.778623999999995,7.590006703046851,0.0914907497219439
13.781004,7.605607991853343,0.091163491065522
13.783407999999998,7.622839294353915,0.0908004653339082
13.785795999999998,7.643562941668123,0.0903918281274859
13.788175999999996,7.661772631556716,0.0899853967116676
13.790567999999997,7.681193026258809,0.0895618139970528
13.792955999999997,7.697959693908427,0.0891503664568476
13.795336,7.707509354505294,0.0888046461954587
13.797739999999996,7.722972769542796,0.0883804662408832
13.800127999999996,7.734991061594906,0.0879623470223012
13.802511999999997,7.74407608734082,0.0875654735720781
13.804916,7.748365515660981,0.0871973631166564
13.807299999999998,7.74920982099575,0.0868373216008387
13.809679999999997,7.74884342151702,0.0864961857330009
13.812079999999998,7.744752359799176,0.0861752158105358
13.814467999999998,7.740009671775276,0.0858466479253738
13.816847999999997,7.734987444497655,0.0855309915843867
13.819243999999998,7.726892181286979,0.0852414883454837
13.821631999999996,7.723732285128913,0.0849186000840033
13.824012,7.7201530800902685,0.0846130112528665
13.826415999999998,7.714571774305206,0.0843236195742054
13.828803999999998,7.709270007773865,0.0840211416253364
13.831183999999997,7.703688701988803,0.0837305801482783
13.833588,7.696756921763382,0.0834623118561623
13.835976,7.6924788685904355,0.0831864198720394
13.838355999999996,7.686058945044213,0.0829302210681438
13.84076,7.679499251871127,0.0826799115215358
13.843148,7.677223299444599,0.0823880315205075
13.845527999999998,7.669313131831156,0.0821587280157341
13.847924,7.667781353509302,0.0819063084253762
13.850312,7.670765633359479,0.0816398297877519
13.852691999999998,7.683201338434298,0.0813271490849406
13.855096,7.697080065748095,0.0810239408608219
13.857484,7.706675052315338,0.0807599554814722
13.859863999999998,7.713988398882441,0.0805207408789803
13.86226,7.720882436568965,0.0802991653214842
13.864648,7.723912042389516,0.0800992973121084
13.867027999999998,7.726522339329486,0.0799169406658329
13.869424,7.722986564403346,0.0797827513635533
13.871811999999998,7.719590559104065,0.079642333604829
13.874191999999995,7.712562439364289,0.0795491729268173
13.876587999999998,7.707117111490348,0.0794597408918921
13.878975999999998,7.69966968286999,0.0793838576307833
13.881355999999997,7.690080383876356,0.0793275470033475
13.883755999999998,7.682772724882859,0.0792453363274349
13.886143999999998,7.677327397008919,0.0791552135555413
13.888523999999997,7.672021838761838,0.0790590300092338
13.890928,7.665785114954979,0.0789663862118602
13.893311999999998,7.663832131894674,0.0788349821753168
13.895695999999996,7.660296356968534,0.0786998014652384
13.898091999999998,7.6545261638705,0.0785524513737834
13.900479999999998,7.645450617413933,0.0784024718883208
13.902863999999996,7.638796480584362,0.0782226968641912
13.905259999999998,7.637497019687984,0.0779969121113641
13.907647999999998,7.643274796217495,0.0777249794646983
13.910027999999995,7.645188140881035,0.0774704600775819
13.912432,7.652176622224045,0.0771816795296923
13.91482,7.65665114614144,0.0768898256976732
13.917199999999998,7.660054734872197,0.076605476751721
13.919596,7.661316453229677,0.0763384995212319
13.921983999999998,7.66341678934832,0.0760349141128521
13.924363999999995,7.668869700653738,0.0756992219137826
13.926768,7.675673086399514,0.0753417175034049
13.929156,7.687039752145565,0.0749363141755828
13.931535999999998,7.695985008264619,0.0745628960581868
13.93394,7.705349573264252,0.0741726819483909
13.936328,7.71257226789061,0.0738001482254755
13.938707999999998,7.722728228823161,0.0734136174502298
13.941104,7.725946721956685,0.0730658619393311
13.943492,7.724090078410735,0.0727504099930732
13.945871999999998,7.718880859678011,0.0724667779385947
13.948268,7.708596504265814,0.0722151701989855
13.950656,7.694028408107062,0.0719988183443958
13.953035999999996,7.675735649709199,0.0717937412869417
13.955431999999998,7.650505423512306,0.0716261639521049
13.957815999999998,7.636216866607275,0.0713973754667157
13.960196,7.620997144142466,0.0711715274446463
13.962599999999998,7.615648155782882,0.0708954823348744
13.964987999999998,7.612580807423434,0.0705955393776872
13.967367999999995,7.617661631676514,0.0702464369929262
13.969772,7.627258514101626,0.0698910089045132
13.97216,7.631640490220404,0.0695724412879386
13.974539999999998,7.633461287085326,0.0692861718447225
13.97694,7.633652070256168,0.0690322006204122
13.979328,7.634122392680731,0.0687671211254291
13.981707999999998,7.637386211784627,0.0684961912613748
13.984108,7.64372306682158,0.0682068413392436
13.986496,7.648569677791313,0.0679436371919754
13.988875999999998,7.6579323469330784,0.0676726710871272
13.99128,7.671950843873735,0.0673890304255433
13.993668,7.69276703898656,0.0670787515031946
13.996047999999998,7.719030457831194,0.0667598221594184
13.998444,7.748087373355165,0.0664339205912551
14.000832,7.77830777186439,0.0661314606655264
14.003211999999998,7.813323767799368,0.0658121504914101
14.005608,7.840191591121817,0.0655424196872973
14.007996,7.864358465563549,0.0653112502902391
14.010375999999995,7.8808890240719505,0.0651422689627557
14.012771999999998,7.901004475192606,0.064971573131441
14.015159999999998,7.918698516686262,0.0648298550467681
14.017539999999997,7.933319522246864,0.0647062043108904
14.019935999999998,7.950873794113662,0.0645713675083333
14.022323999999998,7.978438569712543,0.0643912774061994
14.024724,8.00227868307231,0.0642188435858619
14.027119999999996,8.023557617178222,0.0640771087670558
14.029507999999996,8.041483976097355,0.0639639907742309
14.031888,8.058199630202992,0.0638642416345358
14.034284,8.073192722815932,0.063762957882269
14.036668,8.092609325802284,0.0636288910742252
14.039047999999998,8.112165698415499,0.0634903449151841
14.041452,8.124924372856544,0.0633755085920292
14.043843999999996,8.135541176924313,0.0632750749053025
14.046224,8.14629775061894,0.0631698935120539
14.04862,8.156402698007511,0.0630557120681212
14.051008,8.164924853530245,0.062935160506904
14.053392,8.177451210545813,0.0627975944734162
14.055788,8.191747350882322,0.0626268145915016
14.058172,8.207813274539768,0.0624227998185403
14.060555999999998,8.220154535958102,0.0622263284106883
14.062952,8.23119254476432,0.0620137935284087
14.06534,8.242510092824258,0.0617912743737611
14.067723999999998,8.255038345697695,0.0615583807170963
14.07012,8.259977504466043,0.0613445430662251
14.072504,8.270643426219927,0.0611173312792368
14.074887999999998,8.283079131294746,0.0608572805708826
14.077291999999996,8.29421158375745,0.0605793051917338
14.07968,8.308836381033792,0.0602735334039004
14.082064,8.32509119200421,0.0599415404612772
14.084459999999996,8.334548304802462,0.059630142955993
14.086848,8.345495661667933,0.0592992795135553
14.089232,8.35779349297376,0.0589506895870678
14.091624,8.371209481294473,0.0585623664234768
14.094012,8.381040577002931,0.0581733081939941
14.096391999999998,8.394643556778744,0.0577472613776417
14.098792,8.407315370994782,0.0573229791012374
14.10118,8.417752767038923,0.0568832116593348
14.103559999999998,8.426327831963508,0.0564454029917156
14.105956,8.437044767261371,0.0559980861218965
14.108348,8.449112176999591,0.0555354309503566
14.110727999999998,8.454242118938783,0.0550918381368814
14.113128,8.454576463452225,0.0546551866955741
14.115516,8.451186145726554,0.054222050492645
14.117895999999998,8.445002331321545,0.0537889117860082
14.120292,8.43230035799809,0.0533601363306489
14.12268,8.420529550234411,0.052930229327228
14.125075999999996,8.40927059914993,0.0525133756742714
14.127471999999996,8.390654871385841,0.0521301427556466
14.129859999999995,8.368686568434978,0.0517669149334284
14.13224,8.349371992536586,0.0514056893340528
14.134635999999997,8.324562971078143,0.0510761954287849
14.137023999999997,8.302407676672175,0.0507494391850506
14.139404,8.279693303758764,0.0504419143620418
14.141807999999996,8.25870149233805,0.0501369470649902
