Time,Force,Position
13.926976,4.217002172598448,0.161874737670128
13.929371999999995,4.330203845971027,0.1618054315767575
13.931759999999995,4.440661140350382,0.1614894508510362
13.93414,4.5571285286847285,0.1605337587029189
13.936543999999998,4.660982699778497,0.1595669887240426
13.938931999999998,4.755062476281396,0.1586422469748042
13.941311999999996,4.847281817522608,0.1576447641419693
13.943715999999998,4.936057931636296,0.1565456376829135
13.946103999999998,5.014175707427581,0.155367449132232
13.948483999999995,5.075815834112316,0.1542543265983542
13.950879999999998,5.12167526396693,0.153305346178524
13.953267999999998,5.15589607225325,0.1525620363738018
13.955647999999997,5.18560082236754,0.1519221885266403
13.958043999999996,5.226711876624647,0.1510822896492327
13.960431999999996,5.273689463494143,0.1500922398705771
13.962812,5.311495164392716,0.1492895173955721
13.965215999999998,5.337055943387312,0.1487593768448429
13.967603999999998,5.3562836590606935,0.1484581129301283
13.969983999999997,5.372763204025112,0.1483123566026024
13.972379999999998,5.392408332721205,0.1481297712447578
13.974767999999996,5.420061864402966,0.1477590227203761
13.977148,5.449857266458001,0.147323368825555
13.979543999999995,5.482446165192374,0.146848188229946
13.991476,5.534394965795511,0.1466980306444024
13.993879999999995,5.542728234005272,0.1466042435034527
13.996267999999995,5.548407775162559,0.1465486048088539
13.998648,5.553156150760068,0.1465085283376842
14.001051999999998,5.556973360797799,0.1464850521459823
14.003439999999998,5.563444297888004,0.1464234957527297
14.008219999999998,5.5740573102400335,0.1464166786189786
14.010603999999995,5.583181974382713,0.1463187474186948
14.012987999999996,5.5932850259134135,0.1461510496099496
14.015383999999996,5.604226695205277,0.1459254467087727
14.063159999999996,5.485902663324983,0.1458991504285214
14.065555999999996,5.477803608398567,0.1458759246578972
14.067943999999995,5.475571086084542,0.1457392757274258
14.070324,5.48251044974144,0.1454548902472803
14.072727999999998,5.487307943025062,0.1452237640343534
14.075115999999998,5.4955505592940765,0.1449483752543113
14.077495999999996,5.50938016892176,0.144579028724616
14.079891999999996,5.522046295564188,0.1441911681011629
14.082279999999995,5.531546838474943,0.1438267285978407
14.084663999999997,5.544679495826196,0.1433567378578382
14.087059999999996,5.557812153177447,0.1428837375243314
14.089447999999996,5.578581126462029,0.1422266369041457
14.091828,5.598978012694273,0.1415547669327976
14.094223999999995,5.609504164821294,0.1410726983461441
14.096611999999997,5.619890547321454,0.1405968345334478
14.098992,5.635724153553425,0.1400311828943309
14.101387999999996,5.64713424941198,0.1395784052985171
14.103775999999996,5.659847597882652,0.1391320689517399
14.10616,5.671862098219022,0.1387362646232087
14.108555999999997,5.681175649674674,0.1384311271522285
14.110943999999996,5.690628970757187,0.1381180702736416
14.113324,5.698359730347003,0.137831334217858
14.115727999999995,5.700084187697569,0.1376657352971983
14.120496,5.683466768964159,0.1376371522413008
14.122891999999997,5.6760665621720445,0.1375600650785236
14.125276,5.666152397954316,0.1375082507232808
14.127671999999995,5.660894061535479,0.1373822766127551
14.130067999999998,5.661874344781369,0.1371735325256865
14.132455999999998,5.66015367914654,0.1370497298843547
14.134839999999995,5.659224409444631,0.1369206012133255
14.137235999999998,5.655594190862005,0.1368764325249865
14.139623999999998,5.6532672248914935,0.1368406876606369
14.142003999999996,5.658529353026069,0.1366830749725465
14.144399999999996,5.668167769705818,0.1364740261483886
14.146783999999997,5.678597582318481,0.136261694629616
14.149168,5.693450905304562,0.1359481780225135
14.151563999999995,5.707652601984583,0.1356300498870634
14.153951999999997,5.720923133104826,0.1353250476975251
14.156332,5.7363355345983456,0.1349730718060388
14.158727999999996,5.749466296091728,0.1346764006039635
14.161115999999996,5.759384252025195,0.134450173736382
14.163511999999995,5.773026870197776,0.1341686614267093
14.165907999999998,5.793559734341142,0.1338078885593026
14.168295999999998,5.820051678895517,0.1333862885506068
14.170679999999996,5.841840573822755,0.1330881510168042
14.173075999999998,5.866702504683048,0.132735075121678
14.175463999999998,5.889143025916346,0.1324507823100937
14.177843999999997,5.904506309723753,0.132298048621897
14.180248,5.922151233531298,0.1320909933233232
14.182631999999998,5.940495005473143,0.131839247167182
14.185011999999997,5.955161337004119,0.1315936058056993
14.187407999999998,5.965963236669122,0.1314118059649196
14.189795999999998,5.977836071520762,0.1312102175613897
14.192179999999995,5.985612157080952,0.1310395113133513
14.194575999999998,5.9931559252156665,0.1308395769585755
14.196963999999998,6.000420154096659,0.1306595212578218
14.199343999999996,6.009267174843488,0.1304719059320641
14.201743999999998,6.02225816671001,0.130209873942525
14.204131999999998,6.032595431524058,0.1299763046373529
14.206515999999995,6.04735620671152,0.1296512976192568
14.208911999999998,6.0651900178320375,0.1292726776868953
14.211299999999998,6.078228231526803,0.128964169820179
14.213683999999995,6.089311566303395,0.1286423988799639
14.216088,6.09457559029584,0.1283646806843215
14.218471999999998,6.102540563169002,0.1280110245963532
14.220851999999995,6.104639003429776,0.1277484805304203
14.223247999999998,6.103432090332015,0.1275084430154985
14.225635999999998,6.104786356488112,0.1271990996755734
14.228015999999997,6.10628039227107,0.1268824434222752
14.230411999999998,6.11135932066628,0.1265286319442276
14.232799999999996,6.116251257606388,0.1262294598864149
14.23518,6.119280863426938,0.1259525981936865
14.237575999999995,6.120308368501072,0.1257098948103759
14.239963999999995,6.125572392493515,0.1254330882463897
14.242348,6.130928964284578,0.1251971212384685
14.244743999999995,6.131210399396169,0.1250459483593362
14.247127999999996,6.131911143388339,0.12486997871988
14.249523999999996,6.127676520327897,0.1247701143310882
14.251919999999998,6.125304228387013,0.1246464514822261
14.254307999999998,6.117856799766655,0.1246067538402717
14.256687999999995,6.110688910400016,0.1245496652109609
14.259083999999998,6.109387553645771,0.1244068518092139
14.261471999999998,6.1112517806231965,0.1242522621480501
14.263851999999996,6.117212756892074,0.1240739541361857
14.266247999999996,6.124896294653646,0.1238836583840166
14.268635999999995,6.140308696147168,0.1235900946786887
14.271031999999998,6.160237155812719,0.1232495951981857
14.273428,6.183470968836804,0.1228924955922284
14.275816,6.206425242607168,0.1225542673294631
14.278199999999998,6.224444149324919,0.1222892061376014
14.280596,6.24409306973675,0.1219719523318243
14.282984,6.269748292387831,0.1215669797607863
14.285363999999998,6.294192810225414,0.1211879552463787
14.287764,6.3169147665703,0.1208264232802692
14.290152,6.339404405489709,0.1204385365287092
14.292531999999998,6.360171482916422,0.1200554212341107
14.294928,6.378237611462416,0.1197425868961965
14.297316,6.3988176974340245,0.1194127229121336
14.299699999999998,6.423122445644747,0.1190441037885442
14.302096,6.450360460161664,0.1186346736181587
14.304479999999998,6.473314733932029,0.1183011672719302
14.306863999999996,6.494266906955976,0.1180012411174456
14.309259999999998,6.51149441774081,0.1177446227119903
14.311647999999998,6.527418675913528,0.1174788044923468
14.314027999999997,6.538407567033634,0.1172813355612079
14.316423999999998,6.543250386287628,0.1171781459546716
14.318811999999998,6.544228773675649,0.117123279612374
14.321195999999995,6.539899706958721,0.1171132341339973
14.323591999999998,6.535058783562596,0.1170895654610808
14.325979999999998,6.53035762979333,0.1170580938079631
14.328376,6.529520907890039,0.1169790398929521
14.330772,6.52668208524033,0.1169274911401376
14.33316,6.529058168896955,0.1167974944387229
14.335544,6.527430051060746,0.1167209514967116
14.33794,6.52272889729148,0.1166884925180846
14.340328,6.530971513560494,0.1164867875243299
14.342707999999998,6.5451278842701415,0.1161716152759221
14.345104,6.557841232740812,0.1158526862413443
14.347492,6.565898753412592,0.1155823566764954
14.349875999999998,6.570231611845258,0.1153484623692102
14.352272,6.575123548785365,0.1150828446944901
14.35466,6.5753596579265805,0.1148631630323733
14.357039999999998,6.576806471881295,0.1146186039180773
14.359436,6.577973746582289,0.1143895474252263
14.361824,6.580072186843061,0.1141500267042323
14.364207999999998,6.582450166357554,0.1138944058098632
14.366604,6.586970016245325,0.1136037091866498
14.368992,6.596005924305126,0.1132729977777971
14.371375999999998,6.602760192364789,0.1129838353383848
14.373772,6.613378892290427,0.1126506685117063
14.37616,6.617991289976814,0.1123983668188969
14.378539999999996,6.618599486170368,0.1121982247261903
14.380935999999998,6.615622789751668,0.1120286774270176
14.383323999999998,6.617209373333242,0.111776445379425
14.38572,6.620658288034374,0.1115051976673466
14.388115999999997,6.614376238257141,0.1113493032451785
14.390503999999996,6.603810447733354,0.1112584516850025
14.392884,6.594175822769345,0.1111584864191877
14.39528,6.584820737059057,0.1110432228769384
14.397668,6.579330083214743,0.1108852041633179
14.400047999999998,6.579286653102239,0.1106829928510956
14.402448,6.586972086721682,0.1103973936692805
14.404832,6.595588685900902,0.1101043489130644
14.407215999999998,6.602482723587427,0.1098203870095995
14.409612,6.614731437207142,0.1094596888643568
14.412,6.629261790826996,0.1090612684350309
14.414383999999998,6.647656576312825,0.1086268115529881
14.41678,6.663257865119317,0.1082182608101628
14.419172,6.679930089112449,0.1077921695550063
14.421551999999998,6.691946485306688,0.1074086872929871
14.423955999999995,6.703171485568009,0.1070229274433944
14.426343999999997,6.720542557695441,0.1065594505175502
14.428724,6.737494320942293,0.1061193403745593
14.431119999999996,6.752816070495065,0.1057259083958307
14.433508,6.767346424114919,0.105333255340891
14.435887999999998,6.783599339227469,0.1049310627708083
14.438287999999996,6.7966394487801045,0.1045732021576767
14.440672,6.810750493519378,0.1042017467037171
14.443056,6.827655034937986,0.1038085321253232
14.445452,6.8456305115432325,0.1034037982633945
14.44784,6.856668520349451,0.1030762074174921
14.450219999999998,6.865704428409251,0.1027752544612525
14.452616,6.874880106095914,0.1024690053963393
14.455004,6.887500906767968,0.1021473576355789
14.457387999999998,6.890902599640857,0.1019353594971166
14.459784,6.892953818073388,0.1017525914941413
14.462176,6.890069669453303,0.1016211305049011
14.464555999999998,6.889187621579638,0.1014682272314462
14.466952,6.892309775198806,0.101273321595785
14.46934,6.900087756616864,0.1010435951549304
14.471723999999998,6.912661335460677,0.1007715413396516
14.47412,6.920951173557933,0.1005568262442574
14.476508,6.932174277961385,0.1003160017825409
14.478891999999998,6.944608087178335,0.100055331389048
14.481288,6.959835393074622,0.0997753870589506
14.483676,6.975062698970908,0.0994958504028574
14.486071999999997,6.994433975986888,0.0991676160072532
14.488467999999996,7.012315008935649,0.0988746685867536
14.490855999999996,7.027774632257412,0.0986240076173636
14.493239999999997,7.043746112258372,0.0983899680080139
14.495635999999998,7.065723894498584,0.0980962727420263
14.498023999999996,7.08462864080574,0.0978368697038534
14.500404,7.103253847859176,0.0975928198720321
14.502803999999998,7.120016723793055,0.0973626408905393
14.505191999999996,7.146790103459019,0.0970353703042344
14.507568,7.172352778311484,0.0967272791478125
14.509971999999998,7.198846618723727,0.0964127034530298
14.512359999999996,7.227063020628666,0.0960955641106048
14.51474,7.250204285854133,0.0958314883839366
14.517143999999998,7.2692015799599075,0.0956135992354831
14.519531999999998,7.285405377386345,0.0954155916167228
14.521911999999997,7.30347150593234,0.095205201602762
14.524316,7.312737835559748,0.0950695863626473
14.526704,7.323075100373796,0.0949225938004202
14.529083999999996,7.332341430001205,0.0947893676603802
14.531479999999998,7.341467990001754,0.0946627779170886
14.533867999999998,7.35152571556208,0.0945313649762571
14.536247999999995,7.362933915562768,0.0943749507154022
14.538643999999998,7.374901194070895,0.0941929042531878
14.541027999999995,7.383563119220489,0.0940160104855838
14.543411999999996,7.388640151757831,0.0938569365217062
14.545807999999996,7.395067658735531,0.0936728318216352
14.548195999999995,7.400703769780314,0.0934886022346252
14.550576,7.40489685858612,0.0932962804092916
14.552979999999998,7.401872940339177,0.0931764167682872
14.555363999999996,7.400479035786315,0.0930188933172456
14.557744,7.397362569740755,0.0928659272812942
14.560143999999998,7.3878677144036065,0.0927457474230628
14.562531999999996,7.38344799574593,0.0925784555749809
14.564912,7.378795959662778,0.0923842325699579
14.567307999999995,7.376797650632099,0.0921799299003101
14.569695999999997,7.377220751228418,0.0919404269035366
14.57208,7.385792024437264,0.0916240753637018
14.574475999999995,7.392361196899694,0.0913264974673673
14.576859999999996,7.3953454767498705,0.0910437629228599
14.579244,7.398888835107487,0.0907360130573719
14.581639999999997,7.401640797532186,0.0904289426692089
14.584027999999996,7.401739032904412,0.0901313866662771
14.586423999999996,7.403559829769333,0.0898307248160306
14.588819999999998,7.406032252940311,0.0895373068866295
14.591207999999998,7.411437942417486,0.0892232520158649
14.593587999999995,7.415632927081162,0.0889267386672825
14.595983999999998,7.421038616558338,0.0886137194929934
14.598371999999998,7.42723570196843,0.0883011527813098
14.600755999999995,7.437064901819017,0.0879362443762883
14.603151999999998,7.448616663162301,0.0875697890614477
14.605539999999998,7.462961921184923,0.0871887741114396
14.607919999999996,7.482894172566214,0.0867780297039663
14.610319999999998,7.500032927268168,0.0863850643002927
14.612703999999995,7.522618905701933,0.0859725534096085
14.615087999999997,7.54455325782964,0.0855554764138604
14.617483999999996,7.55861897659854,0.0851937710078924
14.619871999999996,7.5711944513002205,0.0848632016008888
14.622255999999997,7.581767825255484,0.0845473380021528
14.624651999999998,7.596065861449859,0.0842129692350598
14.627035999999997,7.613948790256489,0.0838700519047163
14.629431999999998,7.628618913503204,0.0835586443622694
14.631828,7.645802994175533,0.0832463151990537
14.634216,7.660053808541668,0.0829541915316412
14.636595999999995,7.673652996601743,0.082654598014369
14.638991999999998,7.684830775034822,0.0823891098766956
14.641379999999998,7.700012754960733,0.0820960261666875
14.643759999999997,7.712773325259649,0.0818359034499363
14.646155999999998,7.730329492984315,0.0815510281203886
14.648539999999995,7.745184711828262,0.0813106467877095
14.650923999999996,7.754964793992739,0.0811085829555421
14.653319999999995,7.766746976903633,0.0808943509181522
14.655707999999995,7.776527059068108,0.0806949273475453
14.658099999999996,7.784956666792225,0.0805170680819366
14.660504,7.78938207302351,0.0803677670340579
14.662892,7.791805378508375,0.0802322537193734
14.665267999999998,7.8027489436581075,0.0800564164380019
14.667663999999998,7.81411181768842,0.0798640755372518
14.670051999999998,7.829199353957845,0.0796568534043464
14.672431999999995,7.844286890227271,0.079450857119394
14.674827999999998,7.852576728324529,0.0792830930288643
14.677215999999998,7.862077271235284,0.0790995696954715
14.679595999999997,7.871717583772899,0.0789111330675651
14.682,7.883499766683794,0.0787043768314652
14.684383999999998,7.895793806273884,0.0785112778970096
14.686763999999997,7.906505053998139,0.0783136062146432
14.689168,7.906274632430531,0.0781837066075675
14.691556,7.905252814930005,0.0780512334660361
14.693935999999995,7.899295630376866,0.0779488781540031
14.69634,7.893757754704308,0.077828960039179
14.698728,7.892084310897726,0.0776884701414274
14.701107999999998,7.88440456485189,0.0775870311842094
14.703504,7.875933422873139,0.0774831913071233
14.705892,7.867602050521245,0.0773733322405171
14.708271999999996,7.85540624630338,0.0772834061580615
14.710676,7.842139506898875,0.0772025807001391
14.713064,7.820212738202644,0.0771659003024648
14.715443999999998,7.796283868759998,0.0771414486412472
14.717847999999996,7.770772207451515,0.0771115689569416
14.720232,7.744469150210113,0.0770783691232656
14.722611999999998,7.723101460021324,0.0770155106518932
14.725012,7.702804705019173,0.0769426867670014
14.7274,7.682507950017024,0.0768693062714072
14.729779999999998,7.65806722389518,0.0768264273637173
14.732176,7.636187677027192,0.076747096519029
14.734564,7.61803279239832,0.0766539614030955
14.736943999999998,7.611890512247946,0.0764859682787779
14.73934,7.609752433590407,0.0762932179609621
14.741727999999998,7.609616455679288,0.0760882246209326
14.744107999999995,7.612413744074361,0.0758682341742822
14.746508,7.615350802096295,0.0756432511536449
14.748895999999998,7.622292061611064,0.075393596880401
14.751275999999995,7.631235421872248,0.0751323835229525
14.75368,7.639387386200514,0.074867880525747
14.756064,7.653545652768029,0.0745668248776114
14.758447999999998,7.6694264808282435,0.0742645165291477
14.760851999999996,7.692896402993543,0.0739302909270477
14.763236,7.7140846851587055,0.0736181329752286
14.765619999999998,7.73299132732373,0.0733295326535025
14.768016,7.753480761354591,0.0730478519255969
14.770404,7.767032727586423,0.0728049498729963
14.772783999999998,7.781376089751174,0.0725658204560629
14.77518,7.791575480796231,0.0723559488029921
14.777568,7.807781174080539,0.0721105671858176
14.779947999999996,7.817421486618155,0.0719240001347502
14.782348,7.821986662476298,0.0717700159977454
14.784731999999998,7.825620672774664,0.0716209029473504
14.787111999999995,7.82818374788639,0.0714812315996125
14.789516,7.825951225572366,0.071361328853323
14.791904,7.819574732138647,0.0712700445666864
14.794283999999998,7.811335907585372,0.071184311378864
14.79668,7.802165917472317,0.0711012712412847
14.799067999999998,7.792856157732404,0.0710237686776782
14.801464,7.785408729112047,0.0709404610496487
14.803859999999997,7.775819430118412,0.0708738251374672
14.806247999999997,7.769862245565274,0.0707654114569645
14.808628,7.760459938026743,0.0706562954297908
14.811027999999997,7.756412306421405,0.0705061056197987
14.813415999999997,7.754786084443063,0.0703280647891672
14.8158,7.747433099479193,0.0701706193876009
14.818203999999998,7.747157351941211,0.0699722158132163
14.820587999999995,7.746881604403229,0.0697744165904412
14.822971999999996,7.753171237611938,0.069522750760573
14.825367999999996,7.753873877461977,0.0692862558956815
14.827755999999995,7.762073063618487,0.0689935730921024
14.830136,7.774044133842351,0.0686539194211124
14.832539999999998,7.781871232946523,0.0683420517520727
14.834927999999998,7.787975770557999,0.068029834500087
14.837307999999997,7.8002263800355855,0.0676813863348309
14.839703999999998,7.813827463953531,0.0673129947931945
14.842091999999996,7.828639252684976,0.0669316871505702
14.844472,7.845732681416555,0.0665315206437368
14.846867999999995,7.86231425346894,0.0661187897242128
14.849259999999996,7.879035595148185,0.0657014896294598
14.85164,7.896316015334869,0.0652633100283207
14.854035999999995,7.910383629961638,0.0648510002625949
14.856423999999995,7.928734985334961,0.0644119641309358
14.858804,7.948297045521782,0.0639650902633338
14.861207999999998,7.966788170521966,0.0635262987322403
14.863595999999998,7.989842575522423,0.0630470057490176
14.865979999999997,8.010755110149603,0.0625845777075266
14.868375999999998,8.027291356231611,0.0621194976075311
14.870763999999998,8.038612696007288,0.0616861486746885
14.873143999999996,8.05258776283544,0.0612524832071313
14.875539999999996,8.063769332984256,0.0608267193999016
14.877927999999995,8.076393925372049,0.0604162423746156
14.880308,8.088366891453786,0.0599957349843642
14.882711999999998,8.10033985753552,0.0595751232087367
14.885099999999998,8.110170953243978,0.0591700390731026
