Time,Force,Position
14.841836,5.139959545850999,0.1544257443620759
14.84422,5.18465170100462,0.1537960117731238
14.846616,5.203924742648376,0.1535729162129993
14.849004,5.219008487202062,0.1533647392043569
14.851388,5.230367569516636,0.153235085883676
14.853784,5.24852435000338,0.1529645717258881
14.856172,5.26910254011712,0.1526149037284238
14.858556,5.292753766163916,0.1521772455981119
14.860952,5.310398689971461,0.1518783539313931
14.86334,5.326832908965507,0.1516229263956365
14.86572,5.3428478190789725,0.1514038871281454
14.868116,5.363750874416807,0.1511222761242826
14.870504,5.388937670501195,0.1507289890315767
14.872884,5.408165386174578,0.1504283651161214
14.875284,5.428091949982258,0.1500788212955585
14.877672,5.445085247483746,0.149796433144838
14.880052,5.464499954612229,0.1494365406160442
14.882452,5.4804695387553215,0.1491247152776761
14.88484,5.492761682487542,0.1488304779409034
14.88722,5.499327063234234,0.1486556306768049
14.889616,5.501096846555173,0.1485781559267244
14.892008,5.503238716928452,0.1485240506696485
14.894388,5.515530860660673,0.1482364096364652
14.896788,5.520513449541528,0.1480763188041421
14.903956,5.523773476929687,0.1479410089788434
14.906344,5.52777767842252,0.1478546400740347
14.908724,5.53662469916935,0.1476203735885555
14.911124,5.54631033767734,0.1473295622679251
14.913512,5.555344349879272,0.1470384046106224
14.915896,5.569872807641256,0.1466133349191595
14.918292,5.580397063910407,0.1462747949396075
14.92068,5.587056888313586,0.1460067650435267
14.92306,5.588781345664152,0.1458382397070289
14.925463999999998,5.589295098201218,0.1457050455560835
14.927851999999998,5.588318606671065,0.1456270643863751
14.930236,5.590415151073969,0.1454799906552572
14.932631999999998,5.593814948088987,0.1453388604273371
14.935019999999998,5.598285680290644,0.1451717161217824
14.9374,5.605689678798498,0.1449458429822256
14.939799999999998,5.611371115813654,0.1447431252320074
14.942187999999998,5.610766711335838,0.1446876856820918
14.944568,5.615377213164357,0.1445104836660056
14.946967999999998,5.620546793500316,0.1442952466971453
14.949352,5.625716373836274,0.1440807399535768
14.951736,5.631165493425953,0.1438467194464092
14.954131999999998,5.635403908202132,0.1436505225142839
14.966068,5.622650921334694,0.1435564509979143
14.968467999999998,5.62055627278966,0.1435553379456551
14.970855999999998,5.629543063163348,0.1433293810112681
14.973236,5.641882428723814,0.1430206356757437
14.975635999999998,5.655572268724638,0.1426677294708511
14.978023999999998,5.668191173538824,0.142340111388445
14.980408,5.681229387233589,0.1419844667562103
14.982803999999998,5.69133433462216,0.1416828494837705
14.985191999999998,5.699856490144894,0.1413946487762555
14.987576,5.7131742430933805,0.1410251758561366
14.989971999999998,5.728773636042003,0.1405937203978116
14.992359999999998,5.743813950483186,0.1402026898302026
14.994744,5.756153316043651,0.1398978237082969
14.997139999999998,5.764907788991863,0.1396419418061295
14.999532,5.773662261940073,0.139386472311969
15.001912,5.780274864515008,0.1391801731901651
15.004307999999998,5.786607927836222,0.1389929452416516
15.0067,5.794011926344074,0.1387806769866025
15.00908,5.799972902612952,0.1385697964571885
15.040136,5.734900923947909,0.1383399622870851
15.042524,5.729967452753166,0.1382886530038997
15.044904,5.730248887864756,0.1381296807837451
15.04732,5.731741027789845,0.1379388491529347
15.049703999999998,5.733512706968654,0.1377291739397807
15.052084,5.735843464654903,0.1374832840314974
15.054488,5.7415267975279285,0.137161377408448
15.056876,5.752704575961007,0.1367204205079497
15.059255999999998,5.768398412566116,0.1362225361557034
15.061652,5.785954580290783,0.13569911689947
15.064035999999998,5.803370978388588,0.1351858030005857
15.066416,5.8287957794720615,0.1345192478198257
15.068808,5.852358249435978,0.1338780590539917
15.071196,5.874058388280339,0.133269312371909
15.073591999999998,5.894175735258863,0.1326734597397641
15.075988,5.912290981490971,0.1321087035781985
15.078376,5.9306857669768,0.1315267130893539
15.080756,5.942282854290458,0.1310593776698797
15.08316,5.956813207910312,0.1305424754182694
15.085544,5.968689834477691,0.1300589302407671
15.087924,5.982009483284046,0.1295765005681755
15.090324,5.994258196903763,0.1291182435418818
15.092707999999998,6.004085500896483,0.1287247879468759
15.095092,6.015495596755037,0.1283275057537705
15.097492,6.025694987800094,0.1279587260071914
15.09988,6.03519553071085,0.1276347584965268
15.10226,6.039481167315274,0.127411265024255
15.104651999999998,6.040274459106061,0.127271398009832
15.107039999999998,6.038414023844374,0.1271605445818152
15.10942,6.033340783022771,0.1271122800681309
15.111816,6.02733637664139,0.1270762143714634
15.114204,6.021331970260008,0.127039708739407
15.116584,6.018260830184823,0.1269580258544399
15.11898,6.015049920482776,0.1268848423695365
15.121368,6.012770176340508,0.126799600916833
15.123748,6.017288130370409,0.1266138985250094
15.12616,6.025670516266284,0.1263749187839092
15.128548,6.039919434774547,0.1260492608024711
15.130928,6.050955547722897,0.1257835906486953
15.133323999999998,6.063434682910221,0.1255200659025019
15.135711999999998,6.079126623657461,0.1252008836613184
15.138092,6.09588949959134,0.1248635853267668
15.1405,6.11265237552522,0.1245262869922152
15.142884,6.126761524406623,0.1242178256891927
15.145264,6.146597436273558,0.1238357113039898
15.147664,6.165781721834434,0.1234473745983181
15.150047999999998,6.188830439261284,0.123006241699037
15.152428,6.206152393702603,0.122637514694216
15.154823999999998,6.223986204823121,0.1222835708070741
15.157211999999998,6.245963987063332,0.1218599939033194
15.159592,6.273668532289076,0.1213667607377646
15.162004,6.3030956390075135,0.1208660590161973
15.164392,6.335176472778426,0.1203488139703286
15.166771999999998,6.368979868042036,0.119821348964925
15.169168,6.401432788865287,0.1193305319359252
15.171556,6.431883608942121,0.1188774706087732
15.173936,6.455396961219925,0.1185229253570457
15.17634,6.473835176818256,0.1182445213172036
15.178728,6.4984194642827,0.1178756836332154
15.181112,6.520489794321528,0.1175208016003321
15.183508,6.535622656561327,0.1172621269326123
15.185892,6.550755518801127,0.1170056115237294
15.188271999999998,6.567099085854426,0.116724679868228
15.190672,6.583302883280863,0.1164522774075629
15.19306,6.597784119214604,0.116196092594053
15.195439999999998,6.615058851827681,0.1159120054426282
15.197844,6.629400318134563,0.1156652720714646
15.200232,6.648397612240336,0.1153670291642852
15.202611999999998,6.665020718547355,0.1150744937739008
15.205016,6.680572889667736,0.1148020033645481
15.2074,6.688396197056168,0.1146228038904865
15.20978,6.690632511085933,0.114500894206495
15.212176,6.686210896570387,0.1144530771162933
15.214564,6.6812774253756455,0.1143918283925966
15.216943999999998,6.677834198248122,0.1142910692219642
15.21934,6.670666308881484,0.1142273449610145
15.221728,6.671367052873654,0.1140674765755569
15.224111999999998,6.674628976119682,0.1138513148247708
15.226508,6.670953431566681,0.1137221352963285
15.228891999999998,6.6723530236931525,0.1135254096224122
15.231288,6.678827752499096,0.1132609784604537
15.233684,6.684231546118401,0.1130138058658992
15.236072,6.690566505297484,0.1127594603109068
15.238452,6.6939681981703725,0.11253810298149
15.240848,6.690432423244232,0.1124009622854896
15.243236,6.686384791638893,0.1122508060865997
15.245615999999998,6.684618800033694,0.112060811530537
15.24802,6.686996779548186,0.1118151263340949
15.250408,6.692168255742014,0.1115434310353944
15.252788,6.694546235256507,0.1112974677295248
15.255188,6.701068185890693,0.1109942520360858
15.257576,6.711594338017714,0.1106411316002346
15.259956,6.726124691637567,0.1102375266227032
15.262352,6.73557990857795,0.1098983718242827
15.26474,6.740891154398638,0.1096158237739387
15.267119999999998,6.748344270592603,0.1093004475545966
15.269516,6.748208292681481,0.1090632904802073
15.271904,6.748444401822697,0.1088476360189316
15.31492,6.50651714720671,0.1087204984013179
15.3173,6.499674123064168,0.1087140369407968
15.319703999999998,6.492179472615567,0.1087008362934237
15.322095999999998,6.491482520339134,0.1086147208985458
15.324476,6.494789769555536,0.1084814132856008
15.326871999999998,6.498888414704856,0.1083469744167098
15.329259999999998,6.509924527653205,0.1081337991271257
15.331644,6.52976043952014,0.1078251362523862
15.334039999999998,6.556533819186102,0.1074424943061159
15.336427999999998,6.582236263665427,0.1070794026267203
15.338808,6.607147312211833,0.106714237752935
15.341212,6.637413036691432,0.1062720144989568
15.3436,6.666607825984392,0.1058445887807132
15.34598,6.698084255277491,0.1053804539447709
15.348384,6.726487648637534,0.1049574532536101
15.350768,6.758383386811213,0.104476606038097
15.353148,6.790139355358031,0.1040034650401181
15.355552,6.824828590211043,0.103507233301814
15.35794,6.857655493944501,0.1030273263186329
15.360319999999998,6.891413563237737,0.1025416880679791
15.362724,6.920515804732081,0.1020978358759647
15.365108,6.949478276599565,0.1016614969025355
15.367492,6.980303079586605,0.1012136284202226
15.369896,7.006052745894174,0.1008276637628826
15.37228,7.025935879589351,0.1005002975231023
15.37466,7.047449026978607,0.1001320902706245
15.377056,7.063887037688391,0.0998235903193951
15.379444,7.073108041345428,0.0996004291573311
15.381823999999998,7.073808785337598,0.0994489403166182
15.38422,7.074369759702908,0.099304847723379
15.386603999999998,7.08014564037455,0.0990993931135934
15.388984,7.085921521046194,0.0988958204477382
15.391388,7.093979041717973,0.0986587850964619
15.393776,7.101757023136032,0.0984365212988657
15.396155999999998,7.111397335673647,0.0982012807122816
15.398552,7.115543202651211,0.0980394294219232
15.40094,7.118757904068995,0.0978839412176609
15.40332,7.116897468807308,0.097782152915146
15.405715999999998,7.120763796531151,0.0976355625430024
15.408103999999998,7.1239784979489365,0.0974825246202962
15.410488,7.127053429739862,0.0973357622533695
15.412883999999998,7.131339066344284,0.0971696544162862
15.415271999999998,7.132551667015653,0.0970362111447523
15.417652,7.137908238806713,0.0968583362155298
15.420047999999998,7.150202278396805,0.0966176031649314
15.422436,7.161285613173398,0.0963975405183898
15.424816,7.173300113509768,0.0961709277389503
15.427219999999998,7.192811160152607,0.0958562405428496
15.429607999999998,7.21697803459434,0.0955113097418266
15.431988,7.239142808289654,0.0951854723908254
15.434383999999998,7.258374315678774,0.0948877917366391
15.436771999999998,7.275603722321477,0.0946106459899809
15.439152,7.29162242415068,0.0943536113967169
15.441556,7.307920665233604,0.0940853614063628
15.443939999999998,7.324638215197111,0.0937997794391636
15.44632,7.348852311467084,0.0934307155330495
15.448716,7.377489918110474,0.0930099809942168
15.451104,7.404544732888026,0.0925854299115883
15.453484,7.428294194307046,0.092170544061832
15.455887999999998,7.451903886099205,0.0917633742220488
15.458275999999998,7.4762124260256675,0.0913246034386258
15.46066,7.498798404459432,0.0908917811003285
15.463055999999998,7.522874626960415,0.0904287125334145
15.46544,7.546159453528481,0.0899704036578796
15.467824,7.565067991551377,0.0895298185920248
15.470219999999998,7.584116299201131,0.0890842276899883
15.472608,7.604794620544965,0.0886045980188931
15.474988,7.621468740395966,0.0881618502594975
15.477384,7.637351464314048,0.0877208750972556
15.479772,7.654864201926212,0.0872450859296603
15.482171999999998,7.67302856584443,0.0867782408559293
15.484564,7.69133269938951,0.0863064884104084
15.486952,7.708845437001672,0.0858334081259743
15.489332,7.722493742747861,0.0853849303686615
15.491727999999998,7.7347915740536894,0.0849607780021252
15.494115999999998,7.74001216793363,0.0845943086769913
15.496496,7.740949021067014,0.0842713289745254
15.498895999999998,7.745750306066374,0.0839240040441042
15.501279999999998,7.747059246252098,0.0836199888791587
15.503664,7.751301452744016,0.0832983563680581
15.506059999999998,7.758709242967608,0.0829845472048598
15.508447999999998,7.768630990616813,0.082670615466778
15.510844,7.777202263825659,0.0823788619574808
15.513248,7.7816295659148125,0.0821221580040652
15.515636,7.784426854309886,0.0818985613029475
15.518012,7.788015538637877,0.0816773057679066
15.520416,7.79039351815237,0.0814726522832508
15.522804,7.791560792853364,0.0812837204054379
15.525184,7.790446427554222,0.0811205091776054
15.52758,7.788772983747638,0.0809807862263113
15.529968,7.79031234550097,0.0808128809204141
15.532343999999998,7.789430297627304,0.0806756340429699
15.534736,7.788688019380498,0.0805323509071727
15.537119999999998,7.793532734492362,0.0803661114057984
15.539516,7.79637534885781,0.0802130090395847
15.541908,7.806155431022286,0.080016317224801
15.544296,7.817937613933179,0.0798065836455081
15.546675999999998,7.827717696097655,0.0796107504955806
15.549072,7.838848252702491,0.0793932550021403
15.551455999999998,7.8481164781877695,0.0791850687449332
15.553848,7.851937479941237,0.0789933323045967
15.556255999999998,7.853244524269092,0.0788014438195232
15.55864,7.856693438970224,0.0785911307939042
15.56102,7.860002584044495,0.0783855696878039
15.563423999999998,7.865313829865181,0.07816655819792
15.565808,7.867552039752815,0.0779697739579145
15.568188,7.871512811133145,0.0777723715512863
15.570588,7.878546618446528,0.077553475622393
15.572976,7.885068569080714,0.0773202671836854
15.575356,7.890799123781982,0.0770847819226693
15.577759999999998,7.888521275497585,0.0769003536210755
15.580144,7.892669038333017,0.0766615775027558
15.582528,7.898399593034286,0.0764277018696413
15.584927999999998,7.899334550309803,0.0762169075745407
15.587315999999998,7.902830686839176,0.0759706571788342
15.589696,7.901251686689079,0.0757590833567756
15.5921,7.897810355419425,0.0755541232069061
15.594487999999998,7.897302290455967,0.075334175991963
15.596868,7.896374916611927,0.0751307601319205
15.599268,7.891443341275052,0.0749510577057579
15.601655999999998,7.8894450322443745,0.0747555657839714
15.604036,7.886887644706255,0.074582367619359
15.60644,7.883259321981497,0.0744182169335852
15.608828,7.882983574443515,0.0742219331873468
15.611207999999998,7.879914330226199,0.0740343814362472
15.613604,7.879266495635879,0.0738175171368123
15.615992,7.870610258059892,0.0736475429379885
15.618372,7.859020754177711,0.0734925302701414
15.620776,7.849153811788225,0.0733365210832574
15.62316,7.84408246682449,0.0731600253378314
15.625543999999998,7.843946488913369,0.0729564919600882
15.62794,7.836593503949496,0.0728025215748317
15.630328,7.830590993425986,0.0726290705958434
15.632708,7.82673035327575,0.072438121503363
15.635112,7.824312735364492,0.0722587995290047
15.637496,7.822174656706954,0.0720678923018897
15.639876,7.820036578049415,0.0718766225188348
15.642271999999998,7.814825463458821,0.0717051816160736
15.644659999999998,7.814037859241641,0.0714952530739449
15.64704,7.818045852450213,0.0712660281538524
15.649444,7.820703371218427,0.0710561888081767
15.651832,7.824990903680719,0.0708156301362806
15.654215999999998,7.83020960170279,0.0705730111342031
15.656612,7.834217594911362,0.0703448853948414
15.659,7.843952351105464,0.0700959201161255
15.661376,7.854198963978765,0.0698618972390031
15.66378,7.87394422390495,0.0695601501940707
15.666168,7.894620649390916,0.0692562279062976
15.668547999999998,7.918230341183077,0.0689416125551544
15.670952,7.935042334803067,0.0686563954874217
15.673336,7.95213386767678,0.0683619802824202
15.675715999999998,7.976302637976381,0.0680302822048613
15.67812,7.997258602716067,0.0677234595638041
15.680504,8.01900596338867,0.0674211865657219
15.682883999999998,8.0368888921953,0.0671339586325563
15.68528,8.057425548054404,0.0668467289828395
15.687668,8.080895470219703,0.0665488864728122
15.690048,8.105576097198503,0.0662385163176088
15.692452,8.121968781937912,0.0659777014600805
15.694836,8.137709840371265,0.06571018598798
15.697216,8.155872308431615,0.0654177167139849
15.69962,8.175757337984662,0.0651285257259269
15.702008,8.19485097160479,0.0648372606246498
15.704387999999998,8.21408437485178,0.0645415572161007
15.706792,8.23294569104643,0.0642299532176121
15.70918,8.249293049815467,0.0639136477392636
15.71156,8.264429703771007,0.0636130591108177
15.713952,8.279845896980264,0.0633029413409703
15.71634,8.292608363137047,0.0629948208338837
15.71872,8.311656670786803,0.0626520687782244
15.721116,8.331775913623197,0.0623054502801827
15.723503999999998,8.346308163100922,0.0619701618076757
15.725884,8.360188786272587,0.0616255211392988
15.728279999999998,8.373697322391914,0.0612634934146552
15.730667999999998,8.39055843369802,0.0608773106094348
15.733048,8.406907688324925,0.0604798341471572
15.735444,8.420463446272496,0.0600877718812286
15.737832,8.43308803866029,0.059697420083737
15.740212,8.456142443660747,0.0592550588301714
15.742615999999998,8.475332416795231,0.0588230821684974
15.745,8.495593325116353,0.0583881041577103
15.74738,8.511338175265445,0.0579546158670719
15.749776,8.52629162948162,0.0575178835857639
15.75216,8.54045368776487,0.0570778439626643
15.754544,8.550471774928432,0.0566580855519084
15.75694,8.564494063584828,0.0562256326092701
15.759328,8.574791690002112,0.0557980340532445
15.761724,8.585229086046253,0.0553666793152883
15.764119999999998,8.594735316530615,0.0549367047401727
15.766507999999998,8.596884770335368,0.0545419100666434
15.768888,8.591025821154457,0.0541714758020712
15.771283999999998,8.583956167160045,0.0538097818115089
15.773671999999998,8.577957448352272,0.0534414147005327
15.776052,8.57046848547728,0.0530932341049482
15.778455999999998,8.561489278535067,0.0527657987638366
15.780843999999998,8.548505870100023,0.0524497393175461
