Time,Force,Position
15.121288,4.4328824964830975,0.1617188022609074
15.123676,4.591805725941301,0.1598984692652034
15.12606,4.73597197192778,0.1584945079085627
15.128456,4.879256170040593,0.1568937270056106
15.130844,5.007645510912691,0.1553192184482746
15.133228,5.116996023424382,0.1539485848882165
15.135628,5.219365638024539,0.1525703624737192
15.138016,5.309911535459167,0.1513861920402099
15.140396,5.395059326848098,0.1501194473459543
15.142804000000002,5.46703482248901,0.1488383417109
15.19774,5.506277858052952,0.1483503285452535
15.200144000000002,5.508931585105428,0.1483099744602035
15.202532,5.517172305516572,0.1481708104216601
15.204908,5.527926983353331,0.1480014629457014
15.207312000000002,5.53910097007067,0.1478023610231061
15.209700000000002,5.54589866824284,0.1476663880313156
15.212076,5.554046840855366,0.1474831609005535
15.214484,5.559401516788559,0.1473500235202534
15.216868000000002,5.56703783272189,0.1471535382580741
15.219252,5.572020421602745,0.1469982350504755
15.221648000000002,5.5843597871632085,0.1466699294401882
15.224032,5.590692850484424,0.146468757835307
15.228816000000002,5.586922862274936,0.1464389684873475
15.231204000000002,5.591393594476594,0.146274556433442
15.233584,5.59884481481269,0.1459987681203316
15.235988,5.610020697387899,0.1456580788236566
15.238376,5.626923342948638,0.145213829110534
15.240756,5.645967858882654,0.1447197824105569
15.243152000000002,5.659285611831139,0.1443344841166816
15.245536,5.668506615488175,0.1439906586938096
15.247916,5.682570438399205,0.1435146995468158
15.250320000000002,5.692909599071124,0.1431053284399842
15.252708000000002,5.702225046384646,0.1426715488153352
15.255088,5.709166305899413,0.1422533249398751
15.257492,5.7175978094814,0.14178004145934
15.25988,5.726960478623164,0.1412926020866254
15.26226,5.741258514817541,0.140713344047144
15.264656,5.754206076571559,0.1401777675498463
15.267044000000002,5.763149436832743,0.13971548732193
15.269424,5.765155329294898,0.1393902628155061
15.271824,5.775029855115861,0.1389164213759195
15.274208000000002,5.786906481683241,0.138401720126308
15.276588,5.794918676384647,0.1379556713167401
15.278992,5.799578295899276,0.1375945005723382
15.28138,5.802096045040629,0.1372813503156396
15.28376,5.802891232689286,0.1369897852480069
15.286156000000002,5.802243398098965,0.1367028938785131
15.28854,5.796660196456034,0.1365059050501689
15.29092,5.789494202947267,0.1363183401794891
15.293328,5.784050770931194,0.1361102278852309
15.300492000000002,5.739224533724322,0.1361027011343073
15.302876,5.727820125439374,0.1361010564579819
15.30526,5.71878990495318,0.1360833144389697
15.307664,5.711901554840265,0.136017692979151
15.310048000000002,5.702871334354072,0.1359975778862225
15.312428,5.692909948308101,0.1359917665936912
15.314832,5.690677425994076,0.135855092417453
15.317216000000002,5.689515838866689,0.1356944595093845
15.319596,5.685980063940549,0.1355492480715723
15.321992000000002,5.68030241864113,0.1354499017838928
15.32438,5.675416169274631,0.1353455063054687
15.32676,5.67066968953499,0.1352315625864232
15.329156,5.668576936847828,0.1350842074249184
15.331544,5.666484184160661,0.1349368562546884
15.333924,5.659688381846363,0.1349108964647911
15.336324,5.660481673637149,0.1347629474497497
15.338708,5.667234045838944,0.1345534842051163
15.341088,5.672635943600381,0.134385385078591
15.343488,5.680691568414291,0.1341809544556189
15.345872,5.690050445840317,0.1339853063921265
15.348272,5.700620028079842,0.1337587925514715
15.350676,5.711189610319367,0.1335335472687068
15.35306,5.721898962185751,0.1333017989788173
15.355440000000002,5.728604112559303,0.133145452524166
15.357844,5.735029723679134,0.1330082199070885
15.360232,5.746902558530774,0.1327991742490201
15.362612,5.756633523009138,0.1326379442903607
15.365008,5.768087048980199,0.1324591091415414
15.367396,5.778701957190098,0.1323356767484948
15.369776000000002,5.794903858758667,0.1321338603597303
15.37218,5.818834624059183,0.1318133129505365
15.374568,5.845139577158453,0.1314818232807406
15.376948,5.872515465444363,0.1311323915176393
15.379344,5.901613915222967,0.1307689274986644
15.381732,5.933785400934627,0.130347021321391
15.384116,5.962092454780315,0.1299915291568431
15.386512,5.985743680827111,0.1296993216334135
15.3889,6.011816316500904,0.1293470385293134
15.391280000000002,6.042312462548111,0.1289037992161588
15.393676,6.07215698228926,0.1284560054091733
15.396064,6.097857530910716,0.1280848473521082
15.398444,6.126491345838367,0.1276740776175166
15.40084,6.149258628153626,0.1273523890475076
15.403228,6.174959176775081,0.1269865069178276
15.405608,6.200939264650257,0.1266056647062695
15.408004000000002,6.222403294353401,0.1262806380779788
15.410392000000002,6.243215697750489,0.1259523552566523
15.412772,6.262165770028019,0.1256481375554158
15.415168,6.278601884879934,0.1253617097361248
15.417556,6.28959077600004,0.1251405788522586
15.419952000000002,6.292850803388199,0.1250331976813648
15.422348,6.293457103723883,0.124952927443194
15.424736,6.29206130331315,0.1249046559733987
15.427116000000002,6.291084811782998,0.1248317582891698
15.429516,6.290387859506566,0.1247425974063843
15.4319,6.291693007976551,0.1246229309635457
15.43428,6.299144228312647,0.1244039261343775
15.436684,6.304453578275465,0.1242238527595955
15.439072,6.307760827491866,0.124075751058297
15.441456,6.31041645040221,0.1239223518014474
15.443852,6.319218145178665,0.1236721434682296
15.44624,6.32378332103681,0.1234539730706547
15.448620000000002,6.337427835067259,0.1231007921035724
15.45102,6.349489557231872,0.1227553213240273
15.453408,6.35996848753065,0.1224159183687349
15.455788000000002,6.372589288202706,0.1220406586187711
15.458184,6.386932650367456,0.1216547467213323
15.460572,6.4055597532787605,0.1211991713053451
15.462952,6.429122223242677,0.1206785440685352
15.465356,6.456269585818847,0.1201252689510812
15.467744,6.487421149887851,0.1195164520829588
15.470124000000002,6.519783418770353,0.1188814296282031
15.472516,6.553496162093214,0.1182158336264726
15.474904,6.585206804669659,0.1175836986676516
15.477284,6.616917447246104,0.1169563371298576
15.479680000000002,6.643832492396797,0.1163863227684648
15.482064,6.663018673815543,0.1159119427704706
15.48446,6.682484394488009,0.1154208926864066
15.486856,6.701810345533615,0.1149404660615096
15.48924,6.724069562885416,0.1144260413527861
15.49162,6.737668750945491,0.1140138284033205
15.494024,6.748055133445651,0.113650958463297
15.496412,6.751643817773643,0.1133729588237601
15.498792000000002,6.756023898034552,0.1130940882174422
15.558528,6.353917383176491,0.112866083983174
15.563308,6.334971102614698,0.1128590663180894
15.565704,6.329338783285654,0.1128324445240149
15.568092,6.324777399143249,0.1127885219229423
15.570472,6.3179815968289486,0.1127412776251821
15.572868,6.3169125575001805,0.1126302045268608
15.575252,6.322548668544962,0.1124015248039301
15.577636000000002,6.322877325484796,0.1122133794602641
15.580032,6.32199527761113,0.1120501673849299
15.58242,6.328981863096272,0.1117909287841827
15.584812,6.337318923021772,0.111499365810947
15.587208,6.344585047760633,0.1112252421405897
15.589596,6.35450489955197,0.1109351485022739
15.59198,6.367917096156943,0.1105783868154859
15.594376,6.387615134254886,0.1101280627825789
15.596764,6.4053110716064126,0.1097037168156168
15.599144,6.42100490821152,0.1093079486430974
15.60154,6.437769680003269,0.1088940583401076
15.603924,6.4568160917951545,0.1084421155596854
15.606308000000002,6.473860402840623,0.1080163079448788
15.608704,6.49155634019215,0.1076007627297869
15.611092,6.512744622357314,0.1071206842069296
15.613488,6.530068472656502,0.1066854023946506
15.615884,6.546321387769053,0.1062662682891943
15.618272,6.565088260307218,0.1058370623938575
15.620652,6.580782096912328,0.1054518675084808
15.623048,6.592843819076942,0.1051399586969703
15.625436,6.608490433853809,0.1048038549490794
15.62782,6.621995178257398,0.1044977813434528
15.630216,6.63349782191457,0.1042187050079442
15.6326,6.642579055944745,0.1039847760779143
15.63498,6.655012865161696,0.1036993999994769
15.637376,6.664001551393255,0.1034336400545843
15.63976,6.676714899863925,0.1031400432506572
15.642152,6.6863552124015415,0.1028850287550803
15.644556,6.698137395312435,0.1026007445101904
15.646944,6.713923779716161,0.1022756320099854
15.649324,6.732363891172363,0.1019368457112034
15.651728000000002,6.747730966695508,0.1016359482434289
15.654112,6.76603130852485,0.1013074222463175
15.656492,6.782748858488356,0.1009814280377936
15.658896,6.800537343638499,0.1006448899414863
15.66128,6.820327929535059,0.100288073888334
15.66366,6.842120616178036,0.0999111134266399
15.666060000000002,6.862842367634375,0.0995491208390121
15.668448,6.883424349463853,0.0991943924188724
15.670824,6.903075165733554,0.098845936032245
15.673216,6.920723881256838,0.0985203531523756
15.675604,6.943447733459593,0.0981404797158417
15.678,6.96496088084885,0.0977826424335059
15.6804,6.99168893454444,0.0973644320489222
15.682788,7.0142730171203365,0.0969970751157249
15.685168,7.035227086002152,0.0966704518559059
15.687564000000002,7.050966248577636,0.096406759718721
15.689952000000002,7.067636576712897,0.0961363718353765
15.692332,7.084027365594438,0.0958811012750907
15.694728,7.093061377796371,0.0957131428849011
15.697116,7.101443763692245,0.095539461981317
15.699496,7.1107573151478976,0.0953592985878768
15.701892,7.116997830670495,0.0952123167473226
15.70428,7.121887871752732,0.0950919655209045
15.70666,7.12621883432753,0.0949995119030298
15.709064,7.1313411928352455,0.094908210317878
15.711448,7.140188213582073,0.0947940123367037
15.713828,7.150385708769262,0.0946546173919708
15.716224,7.15951226876981,0.0945274429738677
15.718612,7.17464513100961,0.0943463451127809
15.721004,7.193782194742243,0.0941310025002495
15.723408,7.211848323288239,0.0939306000007006
15.725796,7.230054221461094,0.0937239498917639
15.728172,7.244255918141116,0.0935543587402857
15.730576,7.259249010754055,0.0933853612858284
15.732964,7.277454908926909,0.0931803117444438
15.735344,7.29887361265968,0.0929397225211667
15.737748,7.321223481952228,0.0926944532035373
15.740132,7.341850789752081,0.0924542357770216
15.742516000000002,7.366482299044768,0.0921772099850657
15.744916,7.386690297964039,0.0919542003417012
15.747304,7.408760628002867,0.0917212651004792
15.749684000000002,7.431622353974614,0.0914884026042805
15.75208,7.456486180692777,0.0912380911959296
15.754468,7.477625345171828,0.09101032551009
15.756848000000002,7.494108681851987,0.0908106919831541
15.759252,7.503794320359977,0.0906642149745966
15.76164,7.512409023681328,0.0905304045293624
15.764016000000002,7.523445136629677,0.0903604190257209
15.76642,7.5276835514058575,0.0902422372817988
15.768808,7.522982397636592,0.0901977752568118
15.771188,7.51669845200149,0.0901512926268225
15.773584,7.512556376739666,0.0900815995317117
15.775972,7.5105561718511185,0.0899888485062685
15.778356,7.50990644140293,0.0898722864629923
15.780752,7.505811587969348,0.089763940051294
15.78314,7.497992072296654,0.0896760112211827
15.785516,7.492454196624096,0.0895594852088083
15.78792,7.491060292071232,0.089404778025227
15.790308,7.492227566772227,0.0892106220819999
15.792688000000002,7.499029056660133,0.0889493201803455
15.795092,7.50038332281623,0.0887106288406719
15.79748,7.502436437106627,0.0884415576338069
15.79986,7.505979795464246,0.0881448751088488
15.802264,7.511944563448861,0.0878139604667198
15.804648,7.52298446811295,0.0874413427039659
15.807028,7.53230181128434,0.0870691442153274
15.809432,7.541758924082592,0.0866915520263357
15.811816,7.5502848713210655,0.0863200294682988
15.8142,7.5589505881863985,0.0859407570234448
15.816604000000002,7.57483331210448,0.0854966720091017
15.818988,7.588713935276146,0.0850678879507864
15.821368,7.600592457701393,0.0846566660385238
15.823764,7.611260275313143,0.0842634869843652
15.826152,7.6189948266186995,0.0838902809519
15.828532,7.629662644230448,0.083497909896181
15.830936,7.642472332215475,0.0830842660788618
15.833324,7.649555257214971,0.0827044300838227
15.8357,7.653565146281411,0.0823519149523564
15.838096,7.654501999414798,0.0820261819701473
15.840484,7.65236581661513,0.081725753776072
15.842864,7.656887562360769,0.0813903777866406
15.845268,7.661269538479548,0.0810616254199704
15.847656,7.66336987459819,0.0807601002020774
15.850036,7.665470210716831,0.0804591420282923
15.85244,7.662355640529141,0.0802011867719166
15.854828,7.664316207020922,0.0799052759202206
15.857208,7.666137003885843,0.0796156112342734
15.859604,7.667818031123904,0.0793321704663175
15.861992,7.673363490227938,0.0790280715281429
15.864372,7.676627309331836,0.0787502466584337
15.866772,7.683755560301706,0.0784522296402284
15.869156,7.690232184965519,0.0781464329427778
15.871536,7.699921615189249,0.0778141791179988
15.873932,7.715757117279088,0.0774396860740302
15.87632,7.731452849742066,0.0770732603336622
15.878700000000002,7.748731374070882,0.0767135909051649
15.881104,7.767452920638672,0.0763629204910717
15.883492,7.783520740153988,0.0760161485857318
15.885872,7.796375754109389,0.0756959262389839
15.888276,7.808020063251292,0.0753899391431424
15.89066,7.816079479780941,0.0750932224818725
15.89304,7.825209831497228,0.0747887105765929
15.89544,7.832757391347679,0.0744790753721223
15.897824,7.839234016011493,0.0741787092118455
15.900208,7.853207186981775,0.0738177215745808
15.902604,7.867320127578917,0.0734535196802143
15.904988,7.879710506683364,0.0730895212541817
15.907372,7.894382525787948,0.0727047119640564
15.909768,7.907751292280414,0.0723059065055985
15.912156,7.921958676534044,0.071874816584912
15.914536000000002,7.9347230385486975,0.0714351755333941
15.916932,7.948418566123128,0.070993631570367
15.91932,7.957737805152388,0.0705563231889215
15.9217,7.96119051156926,0.0701475827341863
15.924104,7.961198095000737,0.0697374952584253
15.926488,7.958831490633458,0.0693191848501018
15.928868,7.9603765399603965,0.0688511379006936
15.931264,7.964854855593531,0.0683696612975839
15.933652,7.970963184920746,0.0678561308229173
15.936048,7.978421988688319,0.0673226073004415
15.938444,7.983599152455755,0.0668083399466066
15.940832,7.9838409491705775,0.0663153106498171
15.943212,7.981801105885263,0.0658403734295879
15.945608,7.977759161853533,0.0653735856433729
15.947996,7.963287405209137,0.064972569110476
15.950376,7.944531907818186,0.0646014124569142
15.95278,7.925496871173517,0.0642396018106254
15.955168,7.89817389228946,0.0639267746038717
15.957548,7.866799490084325,0.0636693671765163
16.000548000000002,7.325860376117928,0.0635998724750244
16.002944,7.339036463581685,0.0635695102562278
16.005328,7.355425356605357,0.0635164276549839
16.007728,7.379171026308639,0.0634165175462413
16.010128,7.40906276787803,0.0632825380164218
16.012516,7.436672869447285,0.0631695513126167
16.014896,7.46521413657632,0.0630536469955446
16.0173,7.494686569265131,0.0629351945956392
16.019688,7.521505274901468,0.0628161058439667
16.022068,7.546321879791388,0.0627058873567173
16.024472,7.5763533909876415,0.062563415800421
16.026856,7.606664441437614,0.062410463624635
16.029236,7.637255031141307,0.0622470979999639
16.031632000000002,7.6642607282327475,0.0620870919031909
16.03402,7.691545964577909,0.0619171945584272
16.0364,7.721392380176927,0.0617174650692407
16.038796,7.744441097603778,0.0615422178357789
16.041184,7.765115627231873,0.061357114268492
16.043564,7.784858991300191,0.0611756600018227
16.045968000000002,7.809537722421119,0.0609784492995445
16.048356000000002,7.831562726489573,0.0607826874482063
16.050736,7.850934003505554,0.0605875776099144
16.053132,7.875659956454726,0.0603613479915713
16.055516,7.89945474384412,0.0601391831133229
16.057896,7.922458135300596,0.0599148857534233
16.060304,7.946951770824292,0.059668298809142
16.062688,7.972935650415207,0.0593994142074823
16.065072,8.00040977407334,0.0591089826691928
16.067476,8.03109670329139,0.0587993267407734
16.069860000000002,8.067417847696351,0.0584484597041296
16.07224,8.10108526504884,0.0580987401715234
16.074644,8.13303012090863,0.0577474713496179
16.077032,8.16632545120878,0.0573827220391574
16.079412,8.198689615949151,0.0570196829304591
16.081808,8.228911910316246,0.0566701731780761
16.084196,8.257411643190645,0.0563214660760265
16.086576,8.28940372087868,0.0559449652453185
16.088972000000002,8.319393697820297,0.0555767671882329
16.09136,8.344727846963023,0.0552136107368014
16.09374,8.359260096440746,0.0548817120410642
16.096136,8.369788144425636,0.0545631841387888
16.098524,8.383389228343582,0.0542342135213626
16.100904,8.38870237002214,0.0539431185624295
16.103304,8.390151079834721,0.0536603040719794
16.105688,8.392530955207084,0.0533781169088387
16.108068,8.393048499459889,0.0530969314627576
16.110472,8.394497209272473,0.0528157661288005
16.11286,8.398227559085191,0.0525203660149421
16.11524,8.398884872964858,0.0522364192243251
