Time,Force,Position
17.197724,5.397660088484117,0.1492686000745597
17.200108,5.3991975543795805,0.1491586680403294
17.202492,5.398360832476288,0.1490692391954109
17.204888,5.398083189080437,0.1489410988492938
17.207272,5.406465574976309,0.1486464906161891
17.209656,5.4156393568051024,0.1483477747082461
17.212052,5.428537800873007,0.1479849824331491
17.214436,5.4466039294190045,0.1475574527487931
17.21682,5.467184015390613,0.1471088354402761
17.219216,5.492839238041694,0.146559044905179
17.221604,5.525292158864943,0.14587621167377
17.223983999999998,5.565101856367804,0.1450223347366004
17.22638,5.603328762004827,0.1441774475854804
17.228768,5.644536155776289,0.1432265709150743
17.231151999999998,5.684999375443076,0.1422321075924506
17.233548,5.720806767310972,0.1413179462885774
17.235936,5.751027165820197,0.1405000314883121
17.238332,5.775800340597613,0.1397699008927486
17.240728,5.798431645001752,0.139098047490532
17.243116,5.816639439032476,0.1385369938271163
17.2455,5.836569794555896,0.13795438239576
17.247896,5.854590597131517,0.137449699039903
17.281332,5.802275397049649,0.1369622535846752
17.283736,5.80297424518395,0.1369178473802733
17.286124,5.808328921117144,0.1368064528967952
17.288504,5.812892201117418,0.1366999710123646
17.2909,5.820528517050748,0.1365355957812074
17.293288,5.828816459290136,0.1363763116510852
17.295672,5.842179538208996,0.1361239402766152
17.298068,5.858243566008574,0.1357936712732359
17.300456,5.867789434889704,0.1355527522423756
17.302836,5.879197634890391,0.1352807734628021
17.305232,5.892747705264354,0.1349583748951349
17.30762,5.907368710824955,0.134614076669938
17.310004,5.922688564519858,0.1342266739399742
17.3124,5.940010518961179,0.1338014631905967
17.314788,5.957052934148778,0.1333929972206128
17.317172,5.9712546308288,0.1330763196629805
17.319568,5.9891809897479344,0.1327032385894145
17.345848,5.930763147912462,0.1325855784392619
17.348247999999998,5.924107115225023,0.1325485005420363
17.350632,5.924248780709752,0.1324038851831884
17.353012,5.929977439553152,0.1321835765889264
17.355415999999998,5.931841666530579,0.1320222476553794
17.357803999999998,5.931564023134729,0.1319039462984784
17.360184,5.930075674925378,0.1318156100577202
17.362579999999998,5.931660362649084,0.1316721399413148
17.364968,5.935014833693728,0.1314636081100074
17.367352,5.937205821753118,0.1312380174698671
17.369747999999998,5.946474047238397,0.1308877716968492
17.372139999999998,5.955742272723676,0.1305383858001554
17.37452,5.968595390821207,0.1301439585522197
17.376915999999998,5.978655012239404,0.1297870479212905
17.379303999999998,5.990437195150295,0.1294140780096763
17.381684,6.000729133993969,0.1290866627829232
17.384083999999998,6.012324325449759,0.1287687067460695
17.386471999999998,6.023500208024967,0.1284773803999025
17.388852,6.035747025786814,0.1281659190172002
17.391248,6.051858275414635,0.1277955771059769
17.393636,6.065827654669181,0.1274665737270009
17.396016,6.072580026870975,0.1272727765010689
17.398412,6.072674470527461,0.1271764418831532
17.4008,6.066250755265499,0.1271668415881559
17.403184,6.065693572615928,0.1270658323255993
17.40558,6.064344994033439,0.1269681684962866
17.407968,6.0662092210108645,0.1268078094308029
17.410352,6.067002512801651,0.1266692155865028
17.412748,6.069378596458275,0.1265242789221096
17.415136,6.072266536794097,0.126393517543319
17.417516,6.075154477129916,0.1262640494462541
17.419916,6.077762878212018,0.1261515300589133
17.422304,6.082373380040536,0.1260079887849456
17.424684,6.08991714817525,0.1258210605114851
17.427084,6.096529750750184,0.125646380035901
17.429468,6.107705633325393,0.1253757952495044
17.431864,6.11557616254207,0.1251249734164322
17.434264,6.122934835079549,0.1248601993634079
17.436652,6.127080702057113,0.1246551633070711
17.439032,6.128013763474759,0.124510508695462
17.441428,6.134301500825599,0.1242669392539956
17.443815999999998,6.143662274109495,0.1239715106512383
17.4462,6.154885378512947,0.1236520576565066
17.448596,6.171695476275069,0.1232636755385996
17.450984,6.184641142171217,0.1229322100853335
17.453367999999998,6.201963096612538,0.1225617324338937
17.455764,6.2199366773599145,0.1222021901097237
17.458152,6.238981193293932,0.1218269413276805
17.460532,6.258165478854808,0.1214480990022154
17.462932,6.276558368482766,0.1210738101859644
17.46532,6.29201799180453,0.1207414959905621
17.4677,6.308688319939792,0.1203837340993077
17.470095999999998,6.32149421620908,0.1200767638918584
17.472488,6.33350871654545,0.119773657802719
17.474868,6.347665087255097,0.1194359065697179
17.477268,6.3566065516584125,0.1191822895996749
17.479651999999998,6.372485483860757,0.1188341449974442
17.482032,6.390086977555797,0.1184742378374294
17.484436,6.4129033775571695,0.118032942791099
17.486824,6.43814118718554,0.117540297333713
17.489204,6.460305960880856,0.117099307990992
17.491604,6.4803288642028924,0.1166940824961179
17.493987999999998,6.501422702711569,0.1162729586996409
17.496368,6.520793979727549,0.1158683917045045
17.498768,6.541096422303307,0.1154537912456552
17.501151999999998,6.555672101893536,0.1151054554319692
17.503543999999998,6.564660788125092,0.1148161810735892
17.505952,6.567782941744261,0.1146003718335477
17.508336,6.567040663497455,0.1144315083029126
17.510716,6.568020946743345,0.114251650365329
17.513116,6.571794726668571,0.1140434139256504
17.5155,6.574357801780297,0.113860625181824
17.517879999999998,6.584929279877692,0.1135737619529902
17.520288,6.59843402428128,0.1132541576817405
17.522672,6.607655027938316,0.1130021556680936
17.525052,6.623813499394381,0.1126643606484517
17.527448,6.634757064544113,0.1124048253454236
17.529836,6.645840399320705,0.1121393742766753
17.532216,6.653850698164241,0.11191744916573
17.53462,6.662652392940696,0.1116961079090964
17.537008,6.670243382903651,0.1114980458467208
17.539388,6.681326717680244,0.111238126351305
17.541784,6.689337016523781,0.1110186243891531
17.544172,6.695345214620901,0.1108240244289072
17.546552,6.700422247158243,0.1106378690175975
17.548948,6.712716286748334,0.1103560008719305
17.551336,6.729805923764176,0.1100242065826196
17.55372,6.749828827086215,0.1096559509325808
17.556116,6.770643126341171,0.1092843978609295
17.558508,6.788663928916791,0.1089402167497338
17.560888,6.804962169999715,0.1086080171182011
17.563284,6.825544151829195,0.1082164666186293
17.565672,6.83639516918031,0.1079330069738312
17.568056,6.8423108194788105,0.1077064161253999
17.570452,6.849576944217673,0.1074486612024065
17.57284,6.849905601157508,0.1072710797194378
17.575224,6.848511696604642,0.1071018384902348
17.57762,6.844975921678501,0.106963774782808
17.580012,6.8413003771255,0.1068329934291524
17.582392,6.833620631079667,0.1067497119784165
17.584796,6.827803216153388,0.1066499539209564
17.587184,6.817702060480556,0.1066118949844006
17.589564,6.811605106300557,0.1065264215477988
17.59196,6.806579087307197,0.1064253339852822
17.594348,6.804486334620032,0.1062926812590932
17.596728,6.797318445253395,0.1062219974029645
17.599124,6.786286124020784,0.1061900864574481
17.601512,6.777255903534591,0.1061348480903854
17.603892,6.770367553421675,0.1060493211258571
17.606296,6.764550138495398,0.1059485423931565
17.60868,6.757801558009343,0.1058553759174846
17.61106,6.743975740097398,0.1058451432427808
17.613464,6.735736915544122,0.1057881072330527
17.615852,6.731222753229959,0.1056998163356876
17.618232,6.729502087595133,0.1055883485512598
17.620628,6.731925393079999,0.1054242793873347
17.623016,6.741286166363895,0.1051858287244067
17.625396,6.75185764446129,0.1049253095803005
17.6278,6.759915165133069,0.1046724275916414
17.630188,6.772116656924541,0.1043678415927234
17.632568,6.782223500170981,0.1040507471177415
17.634964,6.796614084163975,0.1036754169497145
17.637352,6.805138135544579,0.103359127056579
17.639736,6.813662186925181,0.1030434563640943
17.642132,6.818461576066672,0.1027584076958156
17.644516,6.825402835581439,0.102444635344929
17.646895999999998,6.835277361402402,0.1021013028057785
17.649292,6.845151887223364,0.1017598139675819
17.65168,6.853024312297909,0.1014405835756786
17.654076,6.861036506999315,0.1011150161905918
17.656472,6.868769162447,0.1008028631054689
17.65886,6.877712522708184,0.1004667967818143
17.66124,6.882000055170478,0.1001673040437203
17.663643999999998,6.881771529460739,0.0998972328245622
17.666031999999998,6.879960211885163,0.0996284690692617
17.668412,6.87707795912295,0.0993744643380549
17.670808,6.868189404121488,0.0991846586977332
17.673196,6.859440618746882,0.098987563832861
17.67558,6.8576293011713085,0.098720979642833
17.677976,6.854095422103037,0.0984619652468934
17.680364,6.854006666020158,0.0981901118407413
17.682744,6.847771838071168,0.0979857153252434
17.685144,6.850476578667624,0.0976939950545142
17.687532,6.8522501537043015,0.0974088209850986
17.689912,6.858027930233813,0.097084056768585
17.692315999999998,6.86073267083027,0.0967927038480032
17.694703999999998,6.86171484993403,0.0965078500206503
17.697088,6.859903532358455,0.0962422263554248
17.699483999999998,6.862375955529435,0.0959246813110015
17.701871999999998,6.863777443513777,0.0956202966628125
17.704252,6.865598240378698,0.0952947162866414
17.706647999999998,6.868210433176536,0.0949685575476595
17.709035999999998,6.873895661907431,0.0946084962610423
17.711416,6.885447423250716,0.0941976368731158
17.71382,6.894577774967004,0.0938264385706068
17.716203999999998,6.90463929224307,0.0934502592361501
17.718588,6.91777384545219,0.0930417941240329
17.720983999999998,6.934772830527286,0.0926063361356665
17.723371999999998,6.945625743736271,0.0922368871489426
17.725752,6.954336786571977,0.0918927962941119
17.728148,6.962768290153964,0.0915649070821571
17.730536,6.9784168007887,0.0911629363274106
17.73292,6.984334346945071,0.0908398300531105
17.735316,6.9933249290344985,0.090487529941705
17.737704,6.998031770377372,0.0901850913088489
17.740084,7.004880482093522,0.0898575805939718
17.74248,7.012520589742591,0.0895313265039041
17.744868,7.025096064444273,0.0891654813614408
17.747248,7.034598503212897,0.0888323126811812
17.749644,7.047034208287717,0.0884778379733533
17.752032,7.062542949295593,0.0880965428067403
17.754428,7.081124726236524,0.0876880449771927
17.756823999999998,7.104502100603208,0.0872527357553337
17.759211999999998,7.1228043382904165,0.0868640860662057
17.761592,7.1432484463509045,0.0864516745981239
17.763987999999998,7.161830223291835,0.0860502934902733
17.766379999999998,7.179061525792408,0.0856745494845672
17.76876,7.19028652605373,0.0853495202641241
17.771155999999998,7.201511526315051,0.0850228257386543
17.773543999999998,7.212456987322652,0.084707382256076
17.775924,7.217535915717861,0.0844335713941983
17.77832,7.218191333739657,0.0842127407227993
17.780708,7.224713284373846,0.0839487265694814
17.783092,7.228674055754174,0.0837277315253455
17.785488,7.236639028627337,0.0834747800340066
17.787876,7.247537267806694,0.0832032913663826
17.790256,7.259366672545831,0.0829281633445709
17.792652,7.268123041351911,0.0826816600075209
17.79504,7.2764601012774115,0.0824545332973049
17.797424,7.27958225489658,0.0822752912274258
17.79982,7.280143229261889,0.0821373051667158
17.802208,7.276560232507506,0.0820360264171796
17.804603999999998,7.2660397679540925,0.0819842459653699
17.807,7.256590238587318,0.0819215753951212
17.809388,7.246209543660766,0.0818629348397677
17.811768,7.238762115040408,0.0817848275071883
17.814163999999998,7.233736096047049,0.081673273644164
17.816551999999998,7.230432638546385,0.081559251600299
17.818936,7.231924778471472,0.0814181217605769
17.821331999999998,7.2344878535832,0.0812659876432052
17.823716,7.245199101307455,0.081049172554163
17.8261,7.258843615337905,0.0808140333810189
17.828504,7.271137654927996,0.0806025758087815
17.830887999999998,7.285061708212166,0.0803567404254673
17.833272,7.29712343037678,0.0801204577905313
17.835668,7.30397024623506,0.0799298170320354
17.838055999999998,7.310677292466481,0.0797461474889826
17.840436,7.315102698697767,0.0795884259827678
17.842831999999998,7.318596939369272,0.0794344604573464
17.845219999999998,7.326374920787331,0.079239559251057
17.847604,7.334292671832251,0.0790385905119499
17.849999999999998,7.346494163623724,0.078797610277618
17.852384,7.358555885788338,0.0785614803320035
17.854768,7.372200399818787,0.0783300978521232
17.857164,7.38970934571521,0.0780784668207925
17.859552,7.404005486051718,0.077857876503251
17.861947999999998,7.414017885641671,0.0776777900648343
17.864344,7.423378658925567,0.0774892011668887
17.866732,7.42794383478371,0.0773262715482445
17.869111999999998,7.437584147321326,0.0771275550392176
17.871508,7.441218157619692,0.0769700924179135
17.873896,7.4414070449326655,0.0768152308372152
17.876279999999998,7.444808737805554,0.0766323073459033
17.878676,7.446859956238082,0.0764714389282462
17.881064,7.448911174670612,0.0763107564712454
17.883444,7.451102162730002,0.0761432605138544
17.885844,7.452501754856471,0.0759736027917177
17.888232,7.458324857356358,0.0757602864845906
17.890612,7.467500535043019,0.0755134451210402
17.893016,7.474534342356405,0.0752857894859851
17.8954,7.481847688923509,0.0750466034000529
17.897783999999998,7.485668690676977,0.0748477370942135
17.900188,7.491631562803724,0.0746299295666878
17.902576,7.496803038997552,0.0744098580140537
17.904956,7.49503704739235,0.0742305502160509
17.907352,7.492619429481092,0.0740419837061381
17.90974,7.4902018115698334,0.073852514771722
17.912124,7.487784193658576,0.0736626561614895
17.91452,7.488299842053511,0.0734567439166835
17.916908,7.482529648955476,0.0733008928379002
17.919287999999998,7.47783039104408,0.0731352286299619
17.921688,7.475924629812017,0.0729597192866428
17.924076,7.471225371900621,0.0727943493000324
17.926455999999998,7.465455178802586,0.0726378841636618
17.928852,7.458753820144773,0.0724842869391217
17.93124,7.455125497420016,0.07230924638242
17.933619999999998,7.448703678015923,0.0721428279740501
17.936016,7.437066952305497,0.0720153033815312
17.938404,7.417282053982545,0.0719415872694178
17.940787999999998,7.400709961219507,0.0718401648462405
17.943184,7.384929264389389,0.0717412400067308
17.945572,7.371989286066848,0.0715942460543611
17.947955999999998,7.359049307744306,0.0714469475512132
17.950352,7.346528638302346,0.0712814635931973
17.95274,7.340945436659415,0.071078009421331
17.95512,7.338155731695818,0.0708658796380306
17.957516,7.337787436359219,0.070623962189465
17.959903999999998,7.341283572888593,0.0703659948225399
17.962288,7.34412808311191,0.070099716592291
17.964684,7.349533772589084,0.0697980981058842
17.967071999999998,7.357872728372451,0.0694835874186742
17.969468,7.364069813782545,0.0691865342637477
17.971864,7.3679852591924995,0.0689118421585984
17.974252,7.373530718296535,0.0686052403388761
17.976632,7.382009443706765,0.0682861424458533
17.979028,7.392350500236551,0.0679646050286879
17.981416,7.407487154192089,0.0676254314105238
17.983795999999998,7.428769880013738,0.0672493594054449
17.986192,7.462065210313887,0.0668107846272994
17.98858,7.492007965427262,0.0664044646279798
17.990959999999998,7.522090490167496,0.0659950848613861
17.993356,7.549611835653873,0.0656211006660813
17.995744,7.57820411632689,0.0652411122237631
17.998127999999998,7.606656627373044,0.0648688473350111
18.000524,7.633246807299643,0.0645045595463996
18.002912,7.658905821666464,0.0641438858214757
18.005308,7.687358332712619,0.0637808421667379
18.007704,7.709013145586605,0.0634432371142282
18.010092,7.73052818883373,0.0631127730118504
18.012476,7.750832527267358,0.0627962050842
18.014872,7.769134764954568,0.0624906981491579
18.01726,7.789578873015055,0.0621712606285391
18.019644,7.814306721822097,0.0618233995859105
18.02204,7.83740455693506,0.0615057776411787
18.024428,7.856498190555188,0.0612068998654512
18.026808,7.870004830816646,0.0609190131986914
18.029204,7.882440535891468,0.0606400761742716
18.031592,7.891803205033232,0.0603785811876978
18.033976,7.890363974509995,0.0601562255514759
18.036372,7.890275218427116,0.0599158878271776
18.03876,7.884180160104988,0.0596996824402102
18.04114,7.882229072902553,0.0594619480824939
18.04354,7.88055752495384,0.0592141689648239
18.045928,7.879537603311181,0.0589762875095704
18.048308,7.876375811295248,0.0587519387290969
18.050708,7.873353788906174,0.0585222959262251
18.053096,7.865536169091349,0.0583045102841355
18.05548,7.864656017075551,0.0580620058056435
18.057876,7.863496325806035,0.0578303585049048
18.060264,7.864338735282934,0.0575912678625608
18.062644,7.865320914386694,0.0573470811045072
18.06504,7.867374028677092,0.0570977523579938
18.067428,7.865562711101517,0.0568581255698592
18.069808,7.866172803152939,0.0565955350043494
18.072208,7.868784995950778,0.0563252609284406
18.074596,7.87498208136087,0.0560562121647696
18.076976,7.878525439718488,0.0557847198516964
18.079372,7.87913553176991,0.0555204575164139
18.08176,7.88747448755328,0.0552381577374744
18.084144,7.893671572963372,0.0549679402393477
18.086544,7.906806126172494,0.0546751116318468
18.088932,7.913934377142364,0.0544038250577579
18.09132,7.920503549604795,0.0541549529713091
18.093712,7.927631800574664,0.0538861170731875
18.0961,7.934899821171395,0.0536116408667169
18.098484,7.940165741021709,0.0533436341673829
18.10088,7.947805848670778,0.0530894147596255
18.103268,7.952372920386791,0.0528490505962599
18.105648,7.955077660983247,0.0526094761084039
18.108048,7.956711466393066,0.0523763063523435
18.110436,7.956063631802746,0.0521596128332237
18.112816,7.949129955719456,0.0519720372486975
18.115212,7.942708136315363,0.0517990658444433
18.1176,7.933864907284273,0.0516480986673934
18.119984,7.923950743066544,0.0515026055914269
18.12238,7.909892607729122,0.0513744645013139
18.124768,7.899279595377092,0.0512547821654185
18.127148,7.892670784517896,0.0511223722856367
18.129548,7.884059872912283,0.0509964938070825
18.131936,7.879453162799503,0.0508585436548228
18.134332,7.872704582313447,0.0507319960367697
18.136728,7.865956001827392,0.0506045223316429
18.139116,7.855342989475361,0.0504832961729929
18.1415,7.841237632309695,0.0503888433260288
18.1439,7.828994606263587,0.0502935382036204
18.146288,7.821407408016369,0.0501968515283659
