Time,Force,Position
15.455931999999995,4.853902231385598,0.1627461726502676
15.458312,4.86917107153652,0.1625984734883403
15.460711999999996,4.892867623553689,0.1622115315178593
15.463099999999995,4.921127455571133,0.1616694957109636
15.46548,4.941798193483491,0.1613034737803499
15.467875999999997,4.957720555798338,0.1610000195728761
15.470263999999997,4.970337564754654,0.1607455679157977
15.472648,4.983373882591551,0.1604570766935325
15.475043999999995,4.993337164495393,0.1602542522415468
15.477428,5.006885339011488,0.159981760738062
15.479827999999998,5.024949571699612,0.1596134812929318
15.482224,5.038730063641184,0.1593750562659564
15.484616,5.058097548941425,0.15901228842323
15.486995999999998,5.077045725361086,0.1586837216667154
15.489392,5.104281844020134,0.158118337607222
15.491784,5.13528984674654,0.1574128587214825
15.494163999999998,5.1640634313010505,0.1567416831848087
15.49656,5.186598396190833,0.1561995094802643
15.498948,5.206107546975805,0.155686958043684
15.501327999999996,5.227246711454856,0.1550991127039809
15.503723999999998,5.246151457762012,0.1545318959969954
15.506111999999998,5.260168058844799,0.1540396387102278
15.508491999999997,5.265384861008999,0.1537520504612521
15.5109,5.267528627240146,0.153540341100421
15.513284,5.275678695710543,0.1531844904022799
15.515667999999998,5.284340620860137,0.1528416157303664
15.518064,5.295935812315927,0.1524334189304338
15.520452,5.31139543563769,0.1519475778147519
15.522831999999998,5.329136698959591,0.1513955365566153
15.525236,5.343432839296098,0.1508968061997607
15.527624,5.35614618776677,0.1504133335528963
15.530003999999998,5.370210010677799,0.14987885968406
15.532404,5.383110350603574,0.1493352571501807
15.534792,5.400062113850425,0.1486541968973879
15.537171999999998,5.412358049298386,0.1480641695572553
15.539568,5.421441179186432,0.1475583652378744
15.541956,5.425449172395004,0.1471677214651003
15.544335999999998,5.431459266349992,0.1467333829842978
15.546732,5.436118885864623,0.146344906086781
15.549119999999998,5.439567800565754,0.145993741571088
15.551503999999998,5.441666240826526,0.1456896166892392
15.5539,5.440784192952861,0.145500989507139
15.556288,5.440973080265834,0.1452840026004959
15.558667999999996,5.444235003511861,0.1449946814624382
15.561063999999998,5.448567861944527,0.1446810818247083
15.563451999999998,5.451038389257636,0.1444002038232766
15.565835999999996,5.451134728771993,0.144140614821764
15.568231999999998,5.446575240487457,0.143965878312316
15.570619999999998,5.438291089963808,0.1438571068771379
15.587339999999998,5.361208402678132,0.1438034826068092
15.589735999999998,5.353621204430915,0.1437938726383814
15.592123999999998,5.3466856324897565,0.1437870307096034
15.594503999999995,5.343614492414569,0.1437047840398335
15.596899999999998,5.340403582712523,0.1436324300771982
15.599287999999998,5.341336644130171,0.143465293034611
15.601667999999997,5.344970654428536,0.1432055737511804
15.604067999999998,5.352469096592876,0.1428730407910636
15.606455999999998,5.3595482298766335,0.1425723774929652
15.608835999999997,5.36085337834662,0.1424300304919079
15.611235999999998,5.366674584988636,0.1422180962592509
15.613623999999998,5.371796943496351,0.1420548428384751
15.61602,5.377431158683264,0.1419050324939787
15.618415999999996,5.389815850214102,0.1416781319249548
15.620807999999997,5.405877982155811,0.1414412341028935
15.623188,5.424733610776854,0.1411624513392914
15.625583999999996,5.449036463129708,0.1408077633799233
15.627975999999997,5.477855373654592,0.1403880934834849
15.630356,5.5134719823516445,0.1398422282151597
15.632751999999996,5.552953022914672,0.1392286068829326
15.635139999999996,5.588569631611726,0.1386850061649212
15.63752,5.622184139562363,0.1381892023847259
15.639919999999996,5.654867481953222,0.1377133916876149
15.642307999999996,5.6863401195305805,0.1372772648455449
15.644692,5.720466484160415,0.1368074220189273
15.647087999999997,5.750169338416836,0.1364452476106483
15.649475999999996,5.780663588606174,0.1360836875942421
15.651856,5.81073852991493,0.1357581299504694
15.654252,5.840813471223687,0.1354350573505111
15.65664,5.879176354771833,0.134947082093168
15.659024,5.914885511267505,0.1344959724311263
15.66142,5.955809574069508,0.1339446964292339
15.663808,5.997944341685008,0.1333634839736253
15.666192,6.031978158516225,0.1328879198407502
15.668588,6.06419686605613,0.1323944404616438
15.670976,6.0905490409836425,0.1320023915107793
15.67336,6.111453992179346,0.1316880248068357
15.675755999999996,6.129565446695715,0.1314154669599897
15.678144,6.142229677480275,0.1312135025895945
15.680523999999998,6.153590655652719,0.131005682551755
15.682923999999996,6.172028871251052,0.1306781013001871
15.685312,6.190467086849384,0.1303522582596439
15.687691999999998,6.208113906514797,0.1300315214772223
15.690095999999995,6.223898395060656,0.1297355878475244
15.692483999999997,6.2415924365543125,0.1293739305926612
15.694868,6.262127196555547,0.1289295633201298
15.697263999999995,6.28480382693006,0.1284526438996774
15.699651999999997,6.303383708013121,0.1280036445099368
15.702036,6.323314063536543,0.1275223903853453
15.704431999999995,6.337797195328154,0.1271077147546205
15.706823999999996,6.353770571186983,0.1266512481459168
15.709204,6.365227888873783,0.1262469191220703
15.711599999999995,6.373891709881246,0.1258757587309407
15.713987999999995,6.389632768314598,0.1253944514104747
15.716371999999996,6.409098488987066,0.1248749691883898
15.718767999999995,6.434989820779362,0.1242462244389687
15.721155999999995,6.460229526265602,0.1236129194520004
15.723539999999996,6.485609001378702,0.1229721189742069
15.725935999999995,6.514061512424857,0.1222834006493159
15.728323999999995,6.540232383470874,0.1216424677249475
15.730704,6.560816261158221,0.1210728178342462
15.733103999999996,6.577955015860176,0.1205280811241424
15.735491999999995,6.59658401462935,0.1199445909550243
15.737875999999996,6.617494653398661,0.1193178812226074
15.795215999999996,6.339127339187415,0.118928302394401
15.797607999999997,6.33321548060465,0.1189219170336445
15.799995999999997,6.329445492395163,0.1188799655184542
15.802376,6.329679705678509,0.1187822542011711
15.804771999999996,6.331124623775355,0.1186586265080928
15.80716,6.329077197058564,0.1186044810637409
15.809555999999995,6.330754432580886,0.1185103273522789
15.811951999999998,6.3409519277680735,0.1183167780240276
15.814335999999996,6.349007552581984,0.1181575343844541
15.816716,6.359716904448369,0.1179727248112208
15.819111999999995,6.369727408180454,0.1178282551574593
15.821499999999997,6.380948616726037,0.117658075890529
15.82388,6.394032156391177,0.1174671287006952
15.826279999999995,6.409537105683314,0.1172233447521331
15.828663999999996,6.423179723855895,0.1170034045651128
15.831044,6.431886974975864,0.1168492871191969
15.83344,6.441013534976413,0.1166724947570268
15.835828,6.443994023110851,0.1165894900825762
15.838207999999998,6.44618311531237,0.1165086047278721
15.840604,6.446789415648055,0.1164320113721704
15.842992,6.4475354856106,0.1163476311365749
15.845371999999998,6.447582707438842,0.1163024245928081
15.847768,6.447769698893945,0.1162493767636528
15.850151999999998,6.446513668110073,0.1161926880660838
15.852531999999997,6.446328572512838,0.1161185092157072
15.854947999999997,6.45084652654274,0.1159516205839708
15.857332,6.454852623893443,0.1157722855750145
15.859727999999995,6.456764072699111,0.1155841353597283
15.862123999999998,6.464169967064834,0.1153028826541656
15.864511999999998,6.477349846244327,0.1149164391418442
15.866891999999996,6.490716716878926,0.1144784579764667
15.869296,6.50129009083419,0.1140683236307632
15.871683999999998,6.5082785721772005,0.1136862980037258
15.874063999999995,6.514615427214151,0.1132998144718748
15.876459999999998,6.517227620011992,0.1129492416516005
15.878847999999998,6.5270568198625805,0.1124963938924866
15.881227999999997,6.534883918966753,0.1120703629823318
15.883632,6.540848686951368,0.1116598029008756
15.886019999999998,6.549886490869039,0.1112083839188949
15.888399999999995,6.560926395533126,0.1107323297180981
15.890795999999998,6.576110271316907,0.1102031971231652
15.893179999999996,6.595205800794904,0.1095896506455582
15.895563999999997,6.614301330272903,0.1089774943192674
15.897959999999998,6.630184054190985,0.1084125363611091
15.900347999999996,6.647137713295706,0.1078360105721173
15.902728,6.659667862027012,0.1073342083324951
15.905131999999998,6.670335679638762,0.1068506788132441
15.907519999999998,6.675369282063598,0.1064583178992439
15.909899999999997,6.677329848555379,0.1061073574089527
15.912304,6.672073407994412,0.1058522847287035
15.914692,6.665838580045423,0.1056484170271374
15.917071999999996,6.662397248775769,0.1054196169570521
15.919472,6.661097787879392,0.1051583569026032
15.92186,6.658447852542655,0.1049274649516586
15.924239999999998,6.658591413885253,0.104671062142095
15.926644,6.652588903361741,0.1044937763687509
15.929028,6.64537568802473,0.1043390813200117
15.931407999999998,6.644308544553831,0.1041052541143057
15.952915999999998,6.513869881107073,0.1040614925633091
15.955319999999997,6.506794539539053,0.1040219807046993
15.957704,6.502372925023506,0.1039661498479465
15.960088,6.503678073493491,0.1038561650612421
15.962483999999996,6.508196027523391,0.103701105967502
15.964868,6.510432341553156,0.1035836312810695
15.967247999999998,6.520117980061145,0.1034072688590489
15.969651999999996,6.528453144128777,0.1032591888926203
15.972039999999996,6.540373200808662,0.1030899141943224
15.97442,6.5590909556607135,0.1028546413360758
15.976816,6.580602207192102,0.1025963461220997
15.979207999999996,6.599412509842771,0.1023988916984768
15.981588,6.622366783613134,0.1021506190226393
15.983984,6.646391992570137,0.1018893301795076
15.986372,6.678006295632225,0.1015617247130535
15.988751999999998,6.715766670560425,0.1011659052808962
15.991148,6.755529146235042,0.100751857085926
15.993536,6.794779765230461,0.1003301382183056
15.995915999999998,6.839105520905353,0.09985119935985
15.99832,6.883291506953384,0.0993809737437923
16.000708,6.923892600389163,0.0989304765430067
16.003087999999998,6.960769031585827,0.0985140023490534
16.005491999999997,6.995922901289795,0.0981075797481918
16.007879999999997,7.029214439874207,0.0977199914067958
16.01026,7.060503877712201,0.0973555757907929
16.012655999999996,7.0930040203636935,0.0969698743705879
16.015044,7.115773198536822,0.0966751237838334
16.017424,7.143105656710227,0.0963136837010648
16.01982,7.165642517457879,0.0959941115421623
16.022208,7.182452615220002,0.0957219744809962
16.024587999999998,7.201684122609121,0.0954132439774731
16.026984,7.217750046266569,0.0951018498951687
16.029372,7.23074293399096,0.0948237913696687
16.031751999999997,7.241593951342075,0.0945720698789557
16.034148,7.248208449774879,0.094333083358678
16.036535999999998,7.249235954849013,0.0941326507997251
16.038919999999997,7.249332294363368,0.0939391987496362
16.041316,7.24542443238489,0.0937827984431556
16.043703999999998,7.239654239286855,0.0936384658253043
16.0461,7.236165686188958,0.0934631999711488
16.048495999999997,7.237472730516812,0.0932523164522999
16.05088,7.237848609284888,0.0930471249968326
16.053264,7.238364257679824,0.0928356600939261
16.05566,7.238228279768701,0.0926174593709291
16.058048,7.241305107417495,0.0923643503661652
16.060432,7.248665675812843,0.0920657709617313
16.062828,7.261241150514524,0.0917145721317027
16.065216,7.27074358928315,0.0913937662268224
16.067595999999998,7.279873940999437,0.0910520046395867
16.069999999999997,7.288724753462004,0.090721041633601
16.072387999999997,7.292500429245099,0.0904372170846802
16.074768,7.302142637640584,0.0901093372301312
16.077171999999997,7.312995550849569,0.0897632099481304
16.079555999999997,7.324128003312273,0.0894035916821619
16.081936,7.336051851707896,0.0890453618229325
16.084339999999997,7.3464854560363,0.0887167794758981
16.086723999999997,7.354916959618286,0.0884056131771821
16.089104,7.36535056394669,0.0880769680948049
16.091507999999997,7.375784168275093,0.0877489422400577
16.093895999999997,7.382865197416719,0.0874631120810667
16.096276,7.385802255438653,0.0872172240634638
16.098675999999998,7.390601644580143,0.0869613542328427
16.101059999999997,7.3948419552141935,0.08673111223453
16.103444,7.3983834177139425,0.0865328833599914
16.105839999999997,7.39577880834758,0.0863906132934629
16.108223999999996,7.385026026368689,0.086320059186519
16.110604,7.370920669203024,0.0862893332256287
16.113007999999997,7.358537873530055,0.0862547074464621
16.115395999999997,7.347318560842343,0.0862415921586357
16.117776,7.340103449647461,0.0861961273644129
16.120171999999997,7.333959273639219,0.0861391982447163
16.122556,7.324602292071063,0.0861156165437995
16.124935999999998,7.315245310502905,0.0860917321728237
16.127336,7.308961364867803,0.0860405676643878
16.129724,7.304539750352258,0.0859798845117276
16.132103999999998,7.301468610277071,0.0858955218800214
16.1345,7.30133073650808,0.0857909137945149
16.136888,7.3018444890451475,0.0856942813781482
16.139267999999998,7.302358241582214,0.0855977393432532
16.141664,7.299938727813085,0.0855208828336025
16.144056,7.301942724417372,0.0853940474823002
16.146448,7.303806951394798,0.0852739180991571
16.148843999999997,7.305950717625945,0.0851413141888787
16.151231999999997,7.307442857551033,0.0850006627779457
16.153612,7.308934997476121,0.0848588788673996
16.156015999999997,7.318435540386877,0.0846547824120507
16.158403999999997,7.328215622551354,0.0844376766033378
16.160784,7.338135474342691,0.0842153443792161
16.163187999999998,7.350476735761024,0.0839597539252412
16.165575999999998,7.362445910127021,0.0836859048822957
16.167955999999997,7.375066710799074,0.0834198920297542
16.17036,7.384894014791794,0.0831664794195077
16.172748,7.398585750650486,0.0828913519632029
16.175127999999997,7.408785141695542,0.0826612083284328
16.177524,7.414188935314847,0.0824591035407626
16.179911999999998,7.421455060053708,0.0822486746069693
16.182291999999997,7.424996522553457,0.0820558201443303
16.184687999999998,7.430167998747284,0.0818292378328306
16.187075999999998,7.436270640500892,0.0815991314962544
16.189455999999996,7.452523555613441,0.0812922590773844
16.19186,7.466774369979577,0.0810018060535578
16.194243999999998,7.48130472359943,0.0807008421736224
16.196627999999997,7.493181350166811,0.0804050159030355
16.199023999999998,7.506408451174549,0.0800874172453178
16.201411999999998,7.525921393675259,0.0797168531816693
16.203791999999996,7.537286163563441,0.0794083903522096
16.206187999999997,7.55051326457118,0.0790927704508483
16.208575999999997,7.561878034459363,0.0787854913119647
16.210956,7.570309538041347,0.0784967359834684
16.213351999999997,7.579252898302533,0.0782241357375405
16.215739999999997,7.588755337071157,0.0779282718417122
16.21812,7.6051952436388115,0.0775902987069143
16.220519999999997,7.614046056101378,0.0772878952171145
16.222903999999996,7.624387112631164,0.0769581093553937
16.225288,7.635799104347589,0.0766169300331247
16.227683999999996,7.642275729011401,0.0763045999150799
16.230071999999996,7.651685619981409,0.0759757106165445
16.232467999999997,7.655740835018223,0.0756945435975219
16.234868,7.656862783748845,0.0754297886476675
16.237251999999998,7.650116099120657,0.0752119152070581
16.239635999999997,7.642158709678971,0.0750089729738111
16.24204,7.635132485797063,0.0748031928559264
16.244428,7.633041628967768,0.0745688904457486
16.246803999999997,7.63146262881767,0.0743492927819936
16.249208,7.628393384600353,0.0741575104578606
16.251596,7.630399277062509,0.073931723228387
16.253975999999998,7.631753543218606,0.0736980904815395
16.256372,7.631105708628286,0.0734755473850543
16.25876,7.631668578851466,0.0732382216818822
16.261135999999997,7.62943795239531,0.0730105514321917
16.263531999999998,7.62972128336477,0.0727863870410778
16.265915999999997,7.623998312094978,0.0725978227838207
16.268296,7.624793499743635,0.0723886128218473
16.270699999999998,7.62624031369835,0.072188397649347
16.273087999999998,7.631411789892178,0.0719769603090231
16.275464,7.643520733885034,0.0717284363971762
16.277859999999997,7.652696411571696,0.071494396056618
16.280244,7.666016060378051,0.0712316624280883
16.282624,7.683479680304101,0.070941421389166
16.28504,7.700663760976429,0.0706613695155407
16.287423999999998,7.720781107954953,0.0703682455739508
16.289803999999997,7.736754483813783,0.0701038436869208
16.292203999999998,7.750585989299336,0.0698579223578414
16.294591999999998,7.762694933292193,0.0696120558217107
16.296968,7.774012481352131,0.0693645465853255
16.299363999999997,7.784538633479152,0.0691149305293544
16.301751999999997,7.793155232658372,0.0689071787812125
16.304143999999997,7.8087092996366225,0.0686656542667331
16.306544,7.822633352920792,0.0684549191891081
16.308927999999998,7.835486471018324,0.0682518574521922
16.311307999999997,7.843543991690104,0.0680674712404218
16.313716,7.853603613108301,0.0678723008443868
16.3161,7.857936471540967,0.0676977300442325
16.318483999999998,7.861617703667575,0.0675148036837566
16.32088,7.866509640607683,0.0673199025775278
16.323263999999998,7.869679016055095,0.0671254608733196
16.325643999999997,7.874431183368342,0.0669372097302475
16.328048,7.879974746614507,0.066753294487594
16.330432,7.884959231353232,0.066592471878957
16.332811999999997,7.895158622398288,0.0663996166623185
16.335216,7.903495682323787,0.0662118694595723
16.337604,7.915045547809204,0.066001594209793
16.339983999999998,7.928597514041037,0.0657829474519405
16.342388,7.942009710646009,0.0655695364865507
16.344776,7.951697245011869,0.0653641184892948
16.347156,7.96031384419109,0.0651663522992713
16.349552,7.972702327437667,0.0649250966368447
16.35194,7.980807069937691,0.0647148205168417
16.354319999999998,7.992543926878208,0.06446726867363
16.356716,8.00828498531156,0.0642019839592473
16.359104,8.027890475610889,0.063924363313683
16.361483999999997,8.047356196283353,0.0636526327180522
16.363888,8.07175728400843,0.0633614385899019
16.366272,8.096018602106648,0.0630766538274199
16.368651999999997,8.11799828020473,0.0628138454872661
16.371056,8.140629584608869,0.0625620789326891
16.373444,8.164471593826505,0.0622988122251698
16.375823999999998,8.185520106364809,0.0620416185832003
16.37822,8.204334200731218,0.0617693443748754
16.380608,8.218073158418154,0.0615217986039286
16.382987999999997,8.231951885731949,0.0612696850920437
16.385392,8.246761778605523,0.0610177907372876
16.38778,8.25942980110582,0.0607803189845834
16.390159999999998,8.274099924352535,0.0605351540998656
16.392563999999997,8.292494709838362,0.0602842022700184
16.394948,8.311820660883969,0.0600321566773995
16.397327999999998,8.328213345623379,0.0597908089082457
16.399731999999997,8.345165108870232,0.0595294631132545
16.402116,8.359835232116945,0.0592877317984448
16.404495999999998,8.369569988311047,0.059062792709177
16.406899999999997,8.378653118199091,0.0588302808442177
16.409287999999997,8.387084621781078,0.0585889011773574
16.411668,8.395516125363065,0.0583491894699758
16.414063999999996,8.402085297825495,0.0581115542176284
16.416448,8.403067476929255,0.0578797637480229
16.418832,8.400185224167043,0.0576576183136732
16.421231999999996,8.393438539538854,0.0574445001271453
16.42362,8.383758588604472,0.057238576619962
16.426,8.372728163229732,0.0570482661338362
16.428403999999997,8.363839608228268,0.0568450862884216
16.430788,8.354951053226804,0.0566417826730375
16.433168,8.341127131172726,0.0564533276515245
16.435571999999997,8.325440877999096,0.0562663304888726
16.437959999999997,8.310173933706041,0.0560639939911328
16.44034,8.293044658293434,0.0558632361263284
16.442743999999998,8.276846548440604,0.0556615179796815
16.445131999999997,8.260368899334052,0.0554692681502548
16.447512,8.24361171097378,0.0552867366734738
16.449907999999997,8.226714752986648,0.0551090498415476
16.452295999999997,8.212890830932572,0.0549179941450856
16.454676,8.193060606639246,0.0547457470170457
16.457071999999997,8.17923668458517,0.054553960618296
16.459456,8.16140856103826,0.0543748035101903
16.461835999999998,8.147444869357322,0.0541875825546299
