Time,Force,Position
20.82316400000002,4.794181087382521,0.1690966830151423
20.825608000000017,4.801350872607027,0.1689397624799869
20.82805200000001,4.813875333764725,0.1686112874420295
20.8305,4.82267513268331,0.1683748358091474
20.832944,4.828541665295701,0.1682187065086955
20.835396000000003,4.839902643468144,0.1678785676356686
20.83784,4.851543160894307,0.1675117940486283
20.840280000000007,4.866256714253527,0.1670570697555738
20.842724000000004,4.876686526866191,0.1667419142886799
20.84517200000002,4.892144254330084,0.1663416654291694
20.847616000000016,4.907182672913398,0.1659748905707873
20.850055999999995,4.925945753735825,0.165513333901662
20.85249200000001,4.950947454222979,0.164922406757692
20.85493600000001,4.974319141016055,0.1644216348470587
20.857380000000006,4.997411288555409,0.1639452961799885
20.859824000000003,5.019432500908126,0.1634999857646188
20.862284000000017,5.044294431768421,0.1629374405467114
20.864720000000005,5.069715441136156,0.1623407746960466
20.86717200000001,5.097418090504028,0.1616931735303955
20.869616000000008,5.122327243192564,0.1611160267540026
20.87205600000001,5.150868510321598,0.1604164869786402
20.87450000000001,5.175545345584658,0.1598130081218635
20.876952000000017,5.202084511967276,0.1591880390832518
20.87939600000001,5.231417175029227,0.1585073260569598
20.88183600000002,5.25925959402396,0.157882050964105
20.88427200000001,5.284680603391694,0.1573397673873326
20.886716000000007,5.315036979812041,0.1566873906169876
20.889160000000004,5.343531025112831,0.1560817203628316
20.89160800000002,5.376960437466233,0.1553676154179142
20.894048,5.410529619446497,0.1546582272502658
20.89648400000001,5.449173938106232,0.1538368433510621
20.89894000000001,5.488517104900268,0.1529707120875377
20.901384000000007,5.520690486469797,0.1522312535183862
20.903828000000004,5.55263155061385,0.1514651574344242
20.90628000000001,5.585503780317682,0.1506837060237039
20.908724000000007,5.622659750768066,0.1497982902637272
20.91117600000001,5.654600814912119,0.1490444239733641
20.91361600000002,5.680535576816921,0.1484240170375582
20.916056,5.698042626855473,0.1480162608420222
20.918499999999995,5.71899479987942,0.1475664265563288
20.92094800000001,5.738456728836148,0.1471779102393705
20.923392000000007,5.761783089658849,0.146716774357468
20.925836000000004,5.776169881936104,0.1464423642551543
20.92827200000002,5.79069644384022,0.1461621215233189
20.93071600000001,5.814442113543502,0.1456870344368838
20.93316000000001,5.839678027314004,0.1451576949778646
20.93560400000001,5.860258113285612,0.1447136108320954
20.938056000000017,5.879767264070583,0.1442953794091515
20.94049200000001,5.892199177429665,0.1440242542735951
20.942948,5.902628990042331,0.1437964555731453
20.945400000000006,5.909985766721941,0.1436361529632734
20.947844000000003,5.9178544000807465,0.1434900458052012
20.950288,5.930239091611588,0.14327784109827
20.95274000000001,5.940062603888568,0.1431409251770174
20.95518800000002,5.949746346538689,0.1430138408932194
20.957636000000008,5.957288218815532,0.1429364321949889
20.960083999999995,5.969113831838929,0.142764978770866
20.96252800000002,5.9869457471015775,0.1424786131649183
20.964976000000007,6.008270007177862,0.14210093836839
20.967420000000004,6.026940540201672,0.141763685784332
20.96986000000001,6.043097115799865,0.1414517285754485
20.97230400000001,6.055389259532088,0.1412082202574661
20.974748000000005,6.07368770550356,0.1408486495693304
20.977192,6.09170661222131,0.1405108319214416
20.979636,6.1014375766996745,0.140344312289052
20.982091999999994,6.112611563417016,0.1401776991975331
20.98452800000001,6.125088802746472,0.1400182539286179
20.986980000000017,6.137705811702788,0.1398498512048616
20.98942,6.158610762898492,0.1395194813441668
20.991860000000003,6.180866188534555,0.1391534218947983
20.994304,6.200328117491282,0.1388282055336345
20.996748,6.217136319395536,0.138536497456117
20.999192000000026,6.233572434247448,0.1382269094135699
21.001644,6.251498793166585,0.1378679080533489
21.004080000000016,6.268121899473602,0.1375021810418132
21.006524000000013,6.281951509101286,0.1371767312619468
21.00896800000001,6.291357608355556,0.1369485316712808
21.011412000000007,6.299692772423186,0.1367449986134655
21.01385200000001,6.307888166863957,0.1365510610259706
21.016288000000003,6.317154496491368,0.1363375117967336
21.018744,6.332799215410365,0.1360443298562432
21.021184000000005,6.350585804702639,0.1357092653700948
21.02363200000002,6.366649832502215,0.1353933755005558
21.026080000000007,6.379408506943262,0.1351037045058278
21.028527999999994,6.393936964705246,0.1347510579123999
21.03097600000001,6.405671925787898,0.1344373190842174
21.033420000000007,6.415032699071792,0.1341358884260501
21.035868000000026,6.424673011609408,0.1338181753130851
21.03831200000002,6.424582359668661,0.1336525942516473
21.040756000000016,6.4194165710484405,0.1335750549090033
21.043200000000013,6.414902408734278,0.1335014573974813
21.04564400000001,6.409317311233478,0.1334490253737324
21.04808,6.402381739292318,0.1334342821458974
21.050524,6.397727807351296,0.1333686276286002
21.05296800000002,6.397589933582305,0.1332488432318994
21.05541200000002,6.400245556492649,0.133091602189023
21.057860000000005,6.404531193097074,0.1328794536570165
21.060292000000004,6.405371706716103,0.1327009348686365
21.062748,6.403838032536379,0.1325348488405154
21.077424000000008,6.315813675958843,0.1325254787218825
21.07986,6.299940431330107,0.132522180152338
21.082304000000025,6.287140222634426,0.1324649009053789
21.08474800000002,6.274340013938747,0.1324070017427959
21.087192000000016,6.27033960416165,0.1322140660879486
21.089631999999995,6.270343395877388,0.1319550751108551
21.09206800000001,6.271837431660345,0.1316502774164737
21.094524000000007,6.276544273003218,0.1312835262655993
21.096968000000004,6.279668322480255,0.1309236930110351
21.099412,6.277717235277819,0.1306501683238841
21.10186400000001,6.269387758783797,0.1304538273771513
21.104308000000003,6.261477591170354,0.1302326329182847
21.10676000000001,6.256221150609385,0.1299839316505991
21.109212000000014,6.253897976354613,0.1296911421989975
21.11165200000002,6.253297363592536,0.129382303435506
21.114096000000018,6.2573525786293525,0.1290141509387332
21.116544000000005,6.26606362146506,0.1285816461709599
21.118988,6.271701628367711,0.128200586764086
21.12142800000001,6.276268700083723,0.1278400706471561
21.12387200000001,6.282837872546153,0.1274497256980279
21.126316000000003,6.290477980195222,0.1270390147367124
21.12876,6.299980418963846,0.1266058858690379
21.131204,6.308411922545834,0.1261946186869169
21.133644000000004,6.315912260568042,0.1257950455822755
21.13608000000002,6.319827705977998,0.1254371228052844
21.138536000000016,6.320949654708619,0.1251132453407796
21.140980000000013,6.323933934558795,0.1247684296686974
21.14342400000001,6.328920315155389,0.1243965909116568
21.145872,6.335629257244679,0.1240099431837496
21.148324,6.348064962319499,0.1235498231363531
21.150768,6.363945790379712,0.1230610508490369
21.15321600000001,6.377405208812929,0.1226276297245249
21.15566000000001,6.387791591313088,0.1222443080471415
21.158108,6.3971070386266105,0.1218815570526332
21.16054800000001,6.404420385193714,0.1215476203587486
21.16299600000002,6.410662796574181,0.1212346034014194
21.165436,6.417976143141285,0.1209028605817
21.167872000000017,6.429945317507281,0.1205175761285127
21.17031600000001,6.444847758179473,0.1200945705757687
21.17276000000001,6.458679263665026,0.1196942887656946
21.175204000000008,6.473441934710357,0.1192855222808803
21.177656000000013,6.486993900942191,0.1189044977206853
21.18010000000001,6.497612600867828,0.1185605372513866
21.182556000000005,6.509953862286162,0.1182046062959959
21.18499600000001,6.520665110010416,0.117898072074849
21.18744000000001,6.532027984040729,0.117595594351195
21.189884000000006,6.5384554910184285,0.1173602078947246
21.19233200000002,6.540739026876436,0.1171902087604385
21.19477600000002,6.545304202734579,0.1169777921970978
21.197228,6.54614471635361,0.1168059480676738
21.199664000000013,6.548195934786139,0.1166099519464233
21.20210800000001,6.552668562845666,0.1163641529774845
21.204548000000017,6.557700269412633,0.1160871630269665
21.206996000000004,6.562731975979601,0.115810645460989
21.20943600000001,6.572838819226041,0.1154645318419303
21.211872,6.580291935420005,0.1151392834771294
21.214327999999995,6.589747152360388,0.1147895084372886
21.216768,6.596548642248295,0.114461352055295
21.219212,6.595062189896814,0.1142523326786033
21.221664000000004,6.592225263104976,0.1140758963828792
21.224108,6.589528105939996,0.1138923239695126
21.226560000000006,6.584177221722542,0.1137283893322055
21.229004000000003,6.584832639744338,0.1134861583639498
21.23144400000001,6.584696661833217,0.11324605758908
21.233888000000007,6.5840488272428965,0.1129914212755337
21.236335999999994,6.584611697466077,0.1127120739302769
21.23878000000002,6.58810783399545,0.1123962338270245
21.241224000000017,6.589601869778408,0.1121049283382324
21.24366000000001,6.588954035188088,0.111848733433807
21.246104000000003,6.588166430970909,0.1115996229431872
21.248548,6.583374625260896,0.1114027712044673
21.250992,6.577092575483662,0.1112456645892603
21.25345200000001,6.569320281639211,0.1111277073804844
21.255888,6.559545887048342,0.1110354171113256
21.258344000000022,6.54562752133778,0.1110016925949804
21.260784,6.5346424219334125,0.1109326891777362
21.263224000000008,6.524588488088824,0.1108539536511787
21.265671999999995,6.513323849430735,0.1107990737460325
21.268124,6.512209484131594,0.1106097558204775
21.270568,6.508161852526256,0.1104542602667366
21.273012000000023,6.500761645734142,0.1103560944584614
21.27544800000001,6.499879597860477,0.1101952706879038
21.27789200000001,6.496436370732953,0.1100906863003068
21.280336000000005,6.495786640284765,0.1099603683427907
21.28278,6.498582032821968,0.1098105379669994
21.28522000000001,6.505381626852006,0.1096133509081258
21.287660000000017,6.511761912001462,0.1094385464025185
21.29011600000001,6.525079664949947,0.1091833699304084
21.29256000000001,6.538117878644713,0.1089433913775427
21.29500400000001,6.550876553085758,0.1087172529422882
21.29745600000001,6.566428724206139,0.1084657218231994
21.299900000000008,6.581980895326518,0.1082141907041106
21.302356000000003,6.60339959905929,0.1078991818428122
21.3048,6.627472029844536,0.1075659987765371
21.307240000000007,6.6523358565627,0.1072313980955851
21.309688000000023,6.676780374400282,0.1069215720307888
21.31213600000001,6.699083021864588,0.1066470212367173
21.314580000000007,6.726600575635226,0.1063045129965986
21.31703200000001,6.753326733472946,0.1059707876130468
21.31947600000001,6.785267797616998,0.1055686611412773
21.32192000000001,6.820561436947827,0.1051138064315488
21.324364000000003,6.850779939599183,0.1047232404749114
21.326808,6.877693088892006,0.1043410930659524
21.329248000000007,6.89873970557244,0.1040209256592041
21.331684,6.920345400760314,0.1036760670428755
21.33414000000002,6.9379468944553535,0.1033799997480908
21.336584000000016,6.958109567404251,0.1030357532559121
21.339028000000013,6.97133477255412,0.1027657696798255
21.34148000000002,6.98483951695771,0.1024821464420852
21.34392400000001,7.002628002107854,0.1021428127703066
21.346372,7.020556256884857,0.1017985402459291
21.348816,7.039974755729081,0.101420989109201
21.351256000000006,7.054737426774412,0.1010819762654655
21.353700000000003,7.071130111513822,0.1007046210094926
21.356156,7.088873270693592,0.1003012261865327
21.3586,7.104893868380666,0.099905079191647
21.361040000000003,7.118120969388404,0.0995294265318914
21.36347600000002,7.129206200022864,0.0991845139698627
21.365920000000017,7.134145358791216,0.0989076000688496
21.36836400000001,7.132938445693456,0.0986974671285776
21.37080800000001,7.130520827782196,0.0985078700303674
21.373256,7.129733223565017,0.0982776995798859
21.375688,7.135743317520007,0.0979885929836945
21.37814400000002,7.1480392529679655,0.0976272989149596
21.380588000000017,7.160474958042785,0.0972633322560975
21.383028,7.172631123863885,0.0969130286483836
21.38547200000002,7.18264541931171,0.0965906736731626
21.387924,7.197734851439004,0.0962171567263933
21.390367999999995,7.210682413193022,0.0958686334241747
21.39281200000002,7.220045082334787,0.095540611159866
21.39524400000002,7.226754024424077,0.0952246332714676
21.397692000000006,7.23132109614009,0.0949346602104353
21.400132000000013,7.2388214341623,0.0946210252204888
21.40258,7.241758492184233,0.0943709774535431
21.405020000000007,7.245486946139085,0.0941229565994094
21.407456,7.250565874534295,0.0938496799708397
21.40991200000002,7.25964900442234,0.09354061153546
21.412352,7.268592364683524,0.0932393497815787
21.41480000000001,7.281819465691262,0.0928888788532773
21.417248,7.303194739311528,0.0924608054122665
21.419696000000016,7.322707681812236,0.0920433411398502
21.422144000000003,7.342080854686086,0.0916341095721752
21.424588,7.357589595693962,0.0912578994082047
21.427032,7.368954365582144,0.0909252263616254
21.429476000000022,7.374684920283412,0.0906642561843793
21.431932000000018,7.380834783865262,0.0903845067481411
21.43437600000001,7.389778144126445,0.0900903922947955
21.43682000000001,7.397790338827851,0.0898035926523084
21.43926400000001,7.409946504648952,0.0894774929724512
21.441711999999995,7.42154359196261,0.0891762002569288
21.444152000000003,7.433372996701746,0.0888999925241017
21.446596,7.447856128493358,0.0886153855386132
21.44904,7.459266224351913,0.0883599223076322
21.451476000000014,7.474028895397246,0.0880638131245468
21.45393200000001,7.484927134576604,0.087794970723957
21.45637600000001,7.4963372304351585,0.0875409468146469
21.458816000000013,7.506536621480216,0.087306081493321
21.461264,7.514873681405716,0.0870813956941872
21.463716000000005,7.522651662823774,0.086882549563625
21.46616,7.528427543495417,0.0867018189272708
21.468604,7.539278560846532,0.0864798772548743
21.471040000000016,7.552783305250122,0.0862517141010964
21.473484000000013,7.564797805586493,0.0860523881530847
21.47592800000001,7.576392997042283,0.0858707966276445
21.478372000000007,7.595205195550821,0.0856268212195108
21.48081200000001,7.614669020365418,0.0853915477826979
21.483248000000003,7.629197478127402,0.0851919843565948
21.48569600000002,7.641304526262391,0.0850259520840174
21.488136,7.65112993439724,0.0848878658659132
21.490584000000013,7.665099313651785,0.0847147683999437
21.49303600000001,7.683771742533462,0.0844832540807268
21.49548000000001,7.698719509176028,0.084269694556741
21.49793600000001,7.718742412498066,0.0840185085213306
21.500380000000007,7.741558812499439,0.0837578535205263
21.50282000000001,7.770381514740062,0.0834564996490634
21.505268,7.799483756234404,0.0831455692872238
21.507716000000016,7.825792501049413,0.0828470465423159
21.510160000000013,7.853311950677921,0.0825332472718474
21.51261600000001,7.881250709187008,0.0822038090487253
21.515056000000016,7.905185266203263,0.0819031776069914
21.517500000000013,7.92697795284624,0.0816252251161147
21.51994400000001,7.945837373183022,0.0813665965249984
21.522388000000007,7.966187037587024,0.0810811114967907
21.524828000000014,7.989097881244883,0.0807598336847945
21.527264,8.004279861170795,0.0804815568465236
21.52972,8.01881021479065,0.0801966924960641
21.532168000000013,8.035622208410642,0.0798867728327212
21.53461200000001,8.05499538128449,0.0795413002706536
21.53706400000001,8.074136236732862,0.079171546112505
21.53950800000001,8.087550329195704,0.0788307236530565
21.541960000000017,8.096960220165712,0.0785178716624001
21.544412000000023,8.107580815949218,0.0781893144321326
21.546852,8.113266044680113,0.077891856311403
21.549300000000017,8.113224510425477,0.0776221461480724
21.551748000000003,8.10824760911823,0.0773819047673757
21.55419600000002,8.101408376691426,0.0771484551559691
21.556636,8.09577984907812,0.0768997174143086
21.55907200000001,8.090151321464814,0.0766510047692061
21.56152,8.082520693105092,0.0764144592939239
21.56396000000001,8.075169603999091,0.0761657296365265
21.56640400000001,8.06795828451995,0.0759119176697708
21.56885600000001,8.06116627392139,0.0756414292323514
21.57129600000001,8.055305428882608,0.0753680671504749
21.573752000000013,8.048373648657186,0.0751036620489383
21.57620400000002,8.047448170671014,0.0748036336256908
21.57864800000001,8.046522692684844,0.0745038780500396
21.58110000000002,8.04867025063173,0.0741856469123314
21.583544000000018,8.050817808578614,0.0738687069856989
21.586000000000013,8.055339554324254,0.0735603111013489
21.58844400000001,8.064796667122504,0.0732270850337394
21.590888000000007,8.073834471040175,0.0729096699360188
21.593332000000004,8.08566577163718,0.0725850053127357
21.595792000000017,8.098428237793964,0.0722577090178064
21.59823600000001,8.113053035070305,0.0719246542326356
21.60068800000002,8.128608997906426,0.0715890608173709
21.603124000000008,8.143885421488822,0.0712640808513214
21.605568000000005,8.161955341750556,0.070932460548069
21.60800800000001,8.179885492385429,0.0706071137650294
21.610456,8.200888678953357,0.0702647030300954
21.612896000000006,8.228410024439732,0.069907028283058
21.615336000000013,8.252066938060137,0.0695650159366907
21.61779200000001,8.273442211680402,0.0692442061664187
21.62023600000001,8.29374655011403,0.0689325857115697
21.622680000000003,8.314842284480575,0.0686252039950633
21.625132000000008,8.336869184406899,0.0683189990973516
21.627576000000005,8.358896084333223,0.068013941597343
21.63003600000002,8.375847847580076,0.067737613685261
21.632476,8.38972657489387,0.0674789745381607
21.634920000000022,8.40188274071497,0.067220757357328
21.63736400000002,8.412828201722572,0.0669767020106064
21.639824000000004,8.42712623791695,0.0667063960495394
21.642268,8.43863077743199,0.0664433687020528
21.644716000000017,8.450275086573892,0.066175758848665
21.647160000000014,8.462338704596373,0.0658935345653484
21.64960400000001,8.471469056312664,0.0656217168636712
21.652048000000008,8.482741278402226,0.0653361171330928
21.654495999999995,8.492290938999096,0.0650506789515695
21.65694000000002,8.502911534782603,0.0647591293555331
21.65937600000001,8.509527929073275,0.0644857501654679
21.661832000000004,8.510697099632138,0.0642197421331913
21.66427200000001,8.517732802803394,0.0639335496862802
21.666716000000008,8.530914577840758,0.06361824960901
21.669168000000013,8.542234021758565,0.0633060875446322
21.671616,8.552901839370314,0.0629865906453067
21.674071999999995,8.560636390675871,0.0626787490080336
21.676512,8.566229071608149,0.0623837260434724
21.67895200000001,8.572892687727064,0.0620815570926481
21.6814,8.583560505338811,0.0617638434624525
21.68385600000002,8.592226222204145,0.0614539701232334
21.686300000000017,8.602102643882978,0.0611343510649299
21.68874400000001,8.609045799255615,0.0608250481198532
21.69118400000002,8.618922220934447,0.0605076678304745
21.69362800000001,8.626936311493722,0.060192906649274
21.696068,8.634670862799275,0.0598887733154829
21.69851600000001,8.647620320411162,0.0595588138789469
21.70095600000002,8.659918151716992,0.0592216558759454
21.703392000000008,8.671005278209323,0.0588958613929439
21.705848000000003,8.681301008768735,0.0585675048790022
21.70829600000002,8.69546117119412,0.0582303133459736
21.71074000000001,8.70747946324623,0.0579043951013523
21.71319200000002,8.714562388245728,0.0575946479356689
21.715640000000008,8.714707845446195,0.0573075943948656
21.718087999999995,8.714061906713747,0.0570153593606601
21.72054,8.714347133541073,0.0567228269089632
21.722984,8.70862605812915,0.0564489142306433
21.725428000000026,8.709982220143116,0.0561501001960829
21.727884000000017,8.711058842903363,0.0558605913312641
21.730324,8.711995696036748,0.0555775271326526
21.73276800000002,8.71707652028983,0.0552770801702979
21.73520400000001,8.717082207863438,0.0549951122173196
21.737648000000007,8.716948125810184,0.054717587790959
21.74008800000001,8.71267007263724,0.0544576849192267
21.74253200000001,8.710254350583849,0.0541959175767326
21.74497200000002,8.707559089276739,0.0539438814744387
