Time,Force,Position
19.318924000000003,4.782041061074434,0.1685060651925039
19.321308,4.778131303238087,0.16850058325807
19.323688,4.780367617267849,0.1683129449076061
19.326084,4.787631846148842,0.1680367031697722
19.328472,4.797921889134647,0.1677214711453107
19.330852,4.803556104321561,0.1675164831551954
19.333248,4.811052650628031,0.1672660852058287
19.335632,4.817850348800199,0.1670802598603653
19.338028,4.826742695517401,0.1668900587949543
19.34042,4.83586735966008,0.1667347826731787
19.342808,4.846854354922316,0.1665346779627892
19.345188,4.859471363878631,0.1662527036243569
19.347588,4.875301178394864,0.1658739123278774
19.349976,4.8940642592172905,0.1654299001478581
19.352356,4.916691771905692,0.1648855683929056
19.35476,4.943091168661447,0.1642046511458904
19.357144,4.964043341685395,0.1636381733170352
19.35952,4.9848557450824815,0.1630889507005082
19.361924,5.00417790441235,0.1626127752594238
19.364312,5.0238721507945545,0.1621720697035771
19.366692,5.049805016841487,0.1616090871571313
19.369096,5.078810918821475,0.160964292932446
19.37148,5.101810518562213,0.1604825750220901
19.37386,5.123739183116312,0.1600364797299226
19.376264,5.149811818790105,0.1594781202197107
19.378648,5.184963792636204,0.1586765514212972
19.381028,5.213877146817574,0.1579912341086398
19.383432,5.242697953200329,0.1572722182442655
19.38582,5.265931766224413,0.1566772134348493
19.388196,5.294380485554829,0.1559481363556333
19.390592,5.318173377086355,0.1553123708707254
19.392976,5.342897434177656,0.1546644997408601
19.395372,5.364408685709044,0.1541155710832342
19.397776,5.3800534046280415,0.1537085274771302
19.40016,5.397560454666595,0.1532712644037404
19.402544,5.410643994331735,0.1529632729674878
19.404948,5.428942440303207,0.1525217068649014
19.407332,5.4431441369832285,0.1521288523042557
19.409712,5.459487704036527,0.1516839443020418
19.412116,5.472898004783631,0.1513071133341773
19.414504,5.482863182545342,0.1509835062635574
19.416884,5.488963928441079,0.1507408146232586
19.41928,5.498557019150452,0.1503957273086632
19.421664,5.511642454673461,0.1499542834050135
19.424044,5.520583919076776,0.1496118699872548
19.426448,5.52938561385323,0.1492855624274714
19.428836,5.546195711615352,0.1487876288020818
19.431212,5.559793003817558,0.148371307713691
19.433616,5.5771149582588775,0.1478887486153196
19.436004,5.588151071207227,0.1475564392213513
19.438384,5.604774177514246,0.1471240107060698
19.440788,5.618464017515069,0.1467521797980411
19.443172,5.630850604903777,0.1463741985985592
19.445556,5.644959753785182,0.1459727957043894
19.447956,5.655064701173752,0.1456587121100465
19.450344,5.66624058374896,0.1453180586293239
19.452724,5.677696005577891,0.1449633524412837
19.455124,5.692456780765353,0.1445717607467598
19.457508,5.705215455206398,0.144225960544524
19.459892,5.717834360020583,0.1438894199650381
19.462288,5.730965121513966,0.1435651062608725
19.464672,5.745027048567127,0.1432220360179404
19.467052,5.755736400433513,0.1429668218281078
19.469456,5.76388457304604,0.1427950569569135
19.47184,5.778830443830738,0.1424979969796037
19.474220000000003,5.787770012376183,0.1423219086042831
19.476624,5.792565609801935,0.1422371383706608
19.479008,5.799223538347244,0.1421221749693779
19.481388000000003,5.806161006146271,0.1419904437386971
19.483784,5.8184531498784935,0.1417391557321363
19.486168,5.829022732118017,0.1415102206386108
19.488548,5.8380095224917055,0.1412904006096928
19.490944,5.847787708798312,0.1410649996735571
19.493328,5.858776599918418,0.140808397435886
19.495728,5.873629922904498,0.1404859708536105
19.498124,5.892347677756551,0.1401014727220274
19.500508,5.907712857421828,0.1397983079431184
19.502888,5.924428511527465,0.1394569924580332
19.505284,5.942075331192879,0.1391044812666883
19.507672,5.959861920485153,0.1387427104525936
19.510052,5.981001084964202,0.1383076351604691
19.512456,6.006423990189806,0.1377864596407784
19.514844,6.03398876578869,0.1372202090651835
19.517224,6.057968648775317,0.1366995182900576
19.519616,6.078363639149692,0.1362330903554753
19.522004000000003,6.102111204710843,0.1356884788548139
19.5244,6.124787835085357,0.1351652678183385
19.526796,6.143600033593895,0.134702251701419
19.52918,6.159059656915659,0.1343161288881043
19.53156,6.168093669117591,0.1340638165350735
19.533964,6.17777930762558,0.1338164982680812
19.536348,6.193843335425158,0.1334854902124987
19.538728,6.209627823971015,0.133171917864715
19.541136,6.223410211770455,0.1328955159251433
19.54352,6.233328167703922,0.1326821225077459
19.5459,6.235517259905443,0.1325913573887898
19.569804,6.185011481541284,0.1325825907558172
19.572192,6.18347591150369,0.1325442422819116
19.574572,6.188226182959069,0.1323913630965417
19.576968,6.194326928854805,0.1322008542472126
19.579352,6.206201659564315,0.1318823172560798
19.581736,6.215422663221352,0.1315916928286462
19.584136,6.218916903892855,0.1313837035547586
19.586524,6.223901388631581,0.1311309988305351
19.588904,6.229305182250885,0.1308537962376577
19.5913,6.235779911056828,0.1305558522459188
19.593688,6.2491921076618,0.1301484366585413
19.596068,6.265537570572969,0.1296977649761042
19.598472,6.283605594976833,0.1292295768678925
19.600856,6.304467116060032,0.1287223890949949
19.603236000000003,6.322767457889373,0.1282850857780131
19.605632,6.340368951584415,0.1278896520767564
19.60802,6.353035078226842,0.1275700979344549
19.610416,6.365980744122989,0.127234404801576
19.612812,6.3778554748325,0.1269203847793755
19.6152,6.38986997516887,0.1265969012139181
19.61758,6.3961577125197095,0.1263545852188591
19.619976,6.399791722818075,0.1261402709939714
19.622364,6.403146193862721,0.1259450620536797
19.624744,6.4086425352806415,0.1257119573127375
19.627148,6.4125088630044855,0.1255321105914355
19.629536,6.419960083340581,0.1253156261147007
19.631916,6.431555274796372,0.1250308859844887
19.634312,6.439937660692246,0.1248036584096598
19.6367,6.4469695721477605,0.124611626507192
19.63908,6.4530703180434985,0.1244305852884409
19.641484,6.453956157632902,0.1243375205785409
19.643872,6.4541903709162485,0.1242400320331205
19.646252,6.457637389759511,0.1240869938406661
19.648648,6.459222077483216,0.1239551830922144
19.651036,6.456802563714087,0.1238822466450517
19.653416,6.452940027705983,0.1238072324196046
19.655812,6.455363333190849,0.1236260741912771
19.658196,6.455644768302439,0.1234825812187186
19.660592,6.454715498600531,0.1233660286838171
19.662996,6.452575524085122,0.1232763498571307
19.665384,6.453788124756489,0.1231207806985569
19.667764,6.455372812480196,0.1229861809256781
19.670160000000003,6.451882363524429,0.1229317420574213
19.672544,6.448112375314942,0.1228932722428237
19.674928,6.443690760799397,0.1228496222642058
19.677332,6.439688455164433,0.1227820219487995
19.67972,6.43447544471597,0.1227406898505831
19.682096,6.433406405387202,0.1226334937093449
19.684496000000003,6.435689941245208,0.1224637995230969
19.68688,6.439184181916714,0.1222679897527928
19.689264,6.4460309977749946,0.1220093529201988
19.691668,6.451667108819777,0.1217777224607402
19.694052,6.455440888745002,0.1215687563975276
19.696436,6.46401026609598,0.1213022546048355
19.698832000000003,6.480727816059484,0.1209166054572713
19.701216,6.502380733075601,0.1204673166459111
19.7036,6.519889678972024,0.1200842776147474
19.705996,6.54261353117478,0.1196234715726026
19.708384,6.565616922631255,0.1191453720032174
19.710764,6.593974990020925,0.1185819273200824
19.71316,6.621913748530012,0.1180459162550925
19.715548,6.650830894427123,0.1174580283288976
19.717928,6.683240385137868,0.1168031095021274
19.720328,6.7122047528632205,0.1161736872656419
19.722716,6.743171221334989,0.1155225035355023
19.725092,6.770133488313925,0.114926276113957
19.727488,6.793510862680609,0.1143593040972894
19.729872,6.814886136300875,0.113822675125098
19.732268,6.831837899547726,0.1133617549921606
19.734672,6.850512224287273,0.112893057607925
19.737056000000003,6.8690467793999614,0.1124350675245658
19.739436,6.886929708206592,0.1119716322636648
19.741828,6.902670766639945,0.1115421474901627
19.744216,6.915758098020824,0.1111355810641313
19.746596,6.925540076043169,0.1107467125492306
19.748988,6.928664125520205,0.1104256137372594
19.751376,6.932067714250964,0.1100894234484392
19.753772,6.931467101488887,0.1098032395034607
19.756164,6.934219063913587,0.1094637872464562
19.758552,6.93603986077851,0.1091357397420007
19.760932,6.937209031337372,0.1088024252539285
19.763336,6.9411716985755705,0.1084474149356475
19.765724,6.9407108554403525,0.1081587653887506
19.768104,6.940901638611194,0.1078753465411927
19.7705,6.938298925102701,0.1076163215299576
19.772888,6.9378380819674845,0.1073268953155557
19.775268,6.942033066631161,0.1069979712009369
19.777672000000003,6.945157116108199,0.1066837950852628
19.780056,6.948560704838955,0.1063535904336339
19.782436,6.94809986170374,0.1060623980532355
19.784840000000003,6.943634817075689,0.1058164322341522
19.787228,6.937819298007281,0.1055989726558405
19.789608,6.932934944498651,0.1053733050575961
19.792004,6.9277710517363005,0.1051618653868776
19.794388,6.921628771585929,0.1050001377984025
19.796784,6.9189316144209485,0.1048204011957337
19.79918,6.916746313935168,0.1046540293935693
19.813516,6.855905166614827,0.10450085713431
19.815904,6.847619120233309,0.1044859186253578
19.818284,6.840776096090767,0.1044767141607334
19.825456000000003,6.822062132954451,0.1044737808882917
19.827856,6.820526562916858,0.1044330083804743
19.830244,6.82192425918546,0.1043629494562452
19.832624000000003,6.829188488066452,0.1042346229182381
19.83502,6.841388084000055,0.1040560170620219
19.837404,6.853727449560521,0.1038709076072007
19.839784,6.868068915867402,0.1036655763271531
19.842188,6.881618986241366,0.1034599570627783
19.844576,6.897310926988608,0.1032271947198044
19.846956,6.9151447381091256,0.1029676128329803
19.849352,6.929905513296588,0.1027420072935564
19.85174,6.947459785163385,0.1024942105724745
19.85412,6.972510603336652,0.1021471339480471
19.856516,6.993976528897665,0.101819170670799
19.8589,7.012509188152485,0.101516441339259
19.861284,7.02703764591447,0.1012594889425841
19.86368,7.039424233303178,0.1010325504563473
19.866068,7.050088259199189,0.1008133654592732
19.868464,7.056748083602367,0.1006381387968282
19.870856,7.0674121094983775,0.1004203686597858
19.873244,7.079007300954167,0.100196969207074
19.875624,7.086738060543984,0.1000100025349835
19.878032,7.095399985693577,0.0998175026618904
19.880416,7.100337248604059,0.0996536783348867
19.882796,7.1004789140887885,0.0995312844806735
19.885196,7.101411975506436,0.0994091392458229
19.88758,7.099551540244748,0.0993074421345337
19.88996,7.097970644236781,0.099191959950332
19.892356,7.096529517855675,0.0990703352558518
19.894744000000003,7.0922948947952325,0.0989685520238405
19.897128,7.0971396099070985,0.0987754033253059
19.899524,7.1056164394594585,0.0985255729468134
19.901912000000003,7.111532089757961,0.0983231475489945
19.904292,7.126247538975049,0.0980460461444931
19.906688000000003,7.148179995244887,0.0976924822517796
19.909076,7.172114552261141,0.0973207964585617
19.911472,7.193535151851781,0.0969531516126914
19.913868,7.213093420322863,0.0965959156595861
19.916256,7.233210767301387,0.0962119769609865
19.918636,7.254538819093411,0.0958136826308792
19.921032,7.272421747900041,0.0954276847373356
19.92342,7.294448647826364,0.0950006363036824
19.9258,7.312750885513575,0.0945985383376741
19.928192000000003,7.333055223947204,0.0941793332271422
19.93058,7.358294929433443,0.093719594429765
19.932972,7.383814174173403,0.093249779592977
19.935368,7.41105598040606,0.0927757684164821
19.937756,7.443233153691327,0.0922648822280673
19.94014,7.4724770606704,0.0917800370767415
19.942536,7.501720967649473,0.0912949008931123
19.944924,7.524167176456378,0.0908669969676924
19.947304000000003,7.540327543770311,0.0905060622627409
19.949708,7.556115824031907,0.0901268011817152
19.952092,7.567388046121472,0.089771632111799
19.954476,7.576797937091479,0.0894296361584771
19.956872,7.587138993621266,0.0890846118652035
19.95926,7.604137978696361,0.0886999000552788
19.961640000000003,7.629145366757123,0.0882539900386572
19.964036,7.658529043363056,0.0877996989737278
19.966424,7.682558044035797,0.0874011905513411
19.968804,7.708169836574372,0.0870049383438908
19.9712,7.731499989112814,0.0866399127922195
19.973588,7.760417135009923,0.0862491353013139
19.975984,7.78984613758623,0.0858743374980781
19.97838,7.814339773109925,0.0855358809186913
19.980764,7.836691538260344,0.0852192270086142
19.983144000000003,7.854899332291067,0.0849372172581909
19.985536,7.869754551135015,0.0846949407761994
19.987920000000003,7.884190461098384,0.0844697167546695
19.990316,7.900069393300727,0.0842533885276327
19.99272,7.915668786249352,0.0840484614792483
19.995104,7.93285097106381,0.0838457373694931
20.030944,7.902963021210157,0.0838294382436948
20.033328,7.896352314493091,0.0838276763869323
20.035724,7.892163017403025,0.0837946221233203
20.038108,7.887601633260618,0.0837426162173961
20.040488,7.888255155424545,0.083647756183673
20.042884,7.889467756095914,0.0835300953205353
20.045272,7.884162197848834,0.0834402706925207
20.047652,7.878205013295696,0.083342754596551
20.050048,7.876950878369693,0.0831886646547545
20.052436,7.877047217884049,0.0830136684619616
20.054828,7.881427298144957,0.0827994296385017
20.057232,7.887157852846226,0.0825629771853144
20.05962,7.895170047547632,0.0823005853542356
20.062,7.904113407808817,0.0820342505627966
20.064404,7.911334206577305,0.0817704593102395
20.066788000000003,7.917903379039734,0.081498432052032
20.069168,7.922749990009467,0.0812274608044449
20.071564,7.926013809113364,0.0809524718871586
20.073952,7.931699037844258,0.0806475895206052
20.076332,7.935801474709317,0.0803393146042592
20.078732,7.938041580454819,0.0800401142189584
20.081116,7.938279585453904,0.0797538765928624
20.083496,7.93851759045299,0.0794686292035167
20.0859,7.941688861758269,0.0791680945192511
20.088288,7.936991499704742,0.0789139137536466
20.090672,7.936298339144049,0.0786355531171934
20.093076,7.941891020076326,0.0783075058474178
20.095460000000003,7.950836276195381,0.0779466401988912
20.09784,7.961504093807131,0.0775875495929112
20.100236,7.968959105858965,0.0772555255817757
20.102624,7.973760390858325,0.0769282045233625
20.105004,7.9836368125371555,0.0765695862784607
20.107408,7.993792773469708,0.0762006617219467
20.109796000000003,8.005019669588899,0.0758241644403604
20.112176,8.015315400148312,0.0754499712220275
20.114572000000003,8.027333692200422,0.0750747533093619
20.11696,8.04293687686478,0.0746919784256532
20.11934,8.06026262302184,0.0743083632911059
20.121736,8.075306729178763,0.0739497940955189
20.124124,8.091933627201518,0.0735968549077485
20.126504,8.110143317090111,0.0732509232026004
20.128904,8.129004633284763,0.0729119993029076
20.131288,8.14479291354636,0.0725933042054776
20.133668,8.156437222688261,0.0723044073452828
20.136072,8.1708750285095,0.0720050784266907
20.13846,8.177956057651125,0.0717600722748257
20.14084,8.182475907538896,0.0715492257286792
20.143244000000003,8.186576448546084,0.0713557197816826
20.145628,8.182389047313887,0.0712168929489772
20.148008,8.179272581268327,0.0710693602659452
20.150404,8.180392634141077,0.0709246885362756
20.152792,8.175506384774579,0.0708129948747598
20.155172,8.172342696900776,0.0707015730554936
20.157568,8.169039239400112,0.0705957643288302
20.159952,8.171322775258117,0.0704748443240123
20.162348,8.176539577422322,0.0703416787041746
20.164752,8.185108954773298,0.0701811642002122
20.16714,8.192467627310778,0.0700336423765692
20.16952,8.196613494288341,0.0699089073414006
20.171916,8.199967965332984,0.069781578828998
20.174304,8.20453314119113,0.0696423881525859
20.176684,8.21151972667627,0.0694777248964417
20.179084,8.223441679214023,0.0692915639815642
20.181472,8.236434566938415,0.0690979469805818
20.183852,8.252500490595862,0.0688877903606905
20.186248,8.271918989440085,0.0686492752180048
20.188636,8.292687962724667,0.068393602757491
20.191016,8.314388101569028,0.0681374306349202
20.193412,8.347449218585831,0.0678166415575553
20.195796,8.379299630789136,0.0675076794036506
20.198176,8.408356546313106,0.0672069842245714
20.20058,8.439275792956632,0.0669016096889001
20.202968,8.465911298853605,0.0666261208372633
20.205348,8.490544704004162,0.0663607091795789
20.207744,8.511732986169323,0.0660958303602115
20.210132,8.527985901281872,0.065852447025446
20.212512,8.536882039714813,0.0656547074681427
20.214912,8.549130753334529,0.0654311721628708
20.217296,8.567665308447218,0.0651706618926227
20.219692,8.588341733933182,0.0648977096362532
20.222088,8.60086998680662,0.064665303965681
20.224476000000003,8.611116599679919,0.0644524720403287
20.226856,8.618569715873884,0.0642464406779727
20.229252,8.626162601694709,0.0640357459716617
20.231644000000003,8.631893156395977,0.0638295113454075
20.234024,8.635481840723969,0.0636366086212237
20.236420000000003,8.636137258745766,0.0634539007200582
20.238804,8.634930345648005,0.0632750742444728
20.241188,8.62678596475122,0.0631235364458818
20.243584,8.627209065347538,0.0629205573286212
20.245968,8.627911705197576,0.0627078582451826
20.248368,8.62810248836842,0.0624818391194161
20.250764,8.632856551539536,0.0622205194440366
20.253148,8.639752485083928,0.0619467223946592
20.255528,8.6463688793746,0.0616832350024163
20.257924000000003,8.656989475158108,0.0614046330264316
20.260312,8.672173350941888,0.0610907978463641
20.262696,8.684423960419474,0.0607872275660198
20.265092000000003,8.694532699523782,0.0604980558365851
20.267476,8.701708172321895,0.0602185610735666
20.26986,8.715960882545899,0.0599100273537958
20.272256,8.733286628702958,0.0595889218552002
20.274644,8.749541439673381,0.0592742519737914
20.27704,8.7645855458303,0.0589706724157035
20.279436,8.78070058717386,0.0586623618807676
20.281824,8.799888664450476,0.0583411609237794
20.284208,8.822010008033287,0.0580121745428365
20.286604,8.843200186056318,0.0576846150010522
20.288988,8.862248493706073,0.0573680980287965
20.291372000000003,8.87179815430294,0.0571017189657464
20.293768,8.879485483780252,0.0568373365738909
20.296156,8.885962108444065,0.0565832011324188
20.298540000000003,8.88922592754796,0.0563470903678981
20.300936,8.894631617025135,0.0561011177794951
20.30332,8.900968472062088,0.0558548117001739
20.3057,8.906513931166122,0.0556059075763758
20.308104,8.90963798064316,0.0553778848351727
20.310488,8.91541575717267,0.0551527606222435
20.312868,8.91639793627643,0.0549356247956577
20.315272,8.919102676872889,0.0547219288573729
20.31766,8.919013920790007,0.0545108488615309
20.32004,8.916131668027797,0.0543021895235999
20.322444,8.914180580825361,0.0540927355048571
20.324828,8.9143713639962,0.0538727623118736
20.327208,8.912280507166905,0.053668178677126
20.329604,8.91004988071075,0.0534687729807657
20.331992,8.906888088694815,0.0532702364680717
20.334372,8.90479723186552,0.0530664112974619
20.336772,8.90643103727534,0.0528601396577301
20.339156000000003,8.910066943431573,0.0526473490553636
20.341552,8.915565180707366,0.0524334420137801
20.343956,8.922134353169797,0.0522140274862983
