Time,Force,Position
17.946028,4.962010042001264,0.1627534316493472
17.948416,4.96005516308309,0.1627477602871423
17.9508,4.961685176777169,0.162671473846999
17.953196,4.965177521590805,0.1625560147682355
17.955584,4.974256859763111,0.1623201904289743
17.957968,4.982218040920535,0.1621715078909141
17.960364,4.992972718757295,0.161959294133812
17.962752000000002,5.003587626967193,0.1617552800566358
17.965131999999997,5.014109987378475,0.1615006949686515
17.967528,5.031477267790169,0.1610199633427541
17.969915999999998,5.051265957828861,0.1604519101752531
17.972312000000002,5.078783511599498,0.1596836501555208
17.974708,5.10308825981022,0.1590243608573324
17.977095999999996,5.125438129102769,0.1583596379731625
17.979476,5.140338673917091,0.1578718140161808
17.981871999999996,5.154308053171636,0.1574103988373972
17.98426,5.1653441661199855,0.1570261765212383
17.98664,5.17181699906806,0.1567838294494333
17.989039999999996,5.184947760561442,0.1563948305911183
17.991424000000002,5.195936651681548,0.1560644087019201
17.993808,5.204504133174655,0.1558192050499521
17.996204,5.216424189854539,0.1554805488416832
17.998592000000002,5.232907526534699,0.1550066787410129
18.000971999999997,5.240358746870795,0.1546985727221971
18.003368000000002,5.243713217915441,0.1544443685423502
18.005755999999998,5.247626767467526,0.1541461385886071
18.008139999999997,5.257267080005142,0.153729390354884
18.010536000000002,5.269328802169755,0.1532321935723449
18.012923999999998,5.282181920267288,0.1527232417455464
18.015308,5.289540592804767,0.1523751800451664
18.017704,5.298062748327501,0.1520459987509582
18.020092,5.304303263850098,0.151786305896078
18.022484,5.311474944932473,0.1515096179309524
18.02488,5.317715460455069,0.1512493505838534
18.027268,5.322885040791028,0.151015759938612
18.029648,5.329218104112242,0.1508000832666883
18.032052,5.334060923366238,0.1506440393880647
18.03444,5.34733145448648,0.1502705691678252
18.036824,5.3502193948223,0.1501065289631001
18.039224,5.358322241464455,0.1498108396255171
18.041612,5.368846497733606,0.1494393435135411
18.043992,5.370803272509648,0.1492951924129601
18.046392,5.369127932845196,0.1492660016571097
18.04878,5.37411052172605,0.1491025472485468
18.05116,5.382678003219158,0.1488805433262084
18.05356,5.3965529388172175,0.1485776862323362
18.055944,5.407866695161417,0.1483662200116886
18.058328,5.418481603371316,0.1482053160083742
18.060724,5.43230931714113,0.1479660629090563
18.063112,5.447207966097584,0.1476983345599544
18.065492,5.461082901695642,0.1474080001577632
18.067888,5.479381347667115,0.1470082268760846
18.070276,5.495026066586111,0.1466475116521797
18.07266,5.515606152557719,0.1461891312212797
18.075056,5.541401144835661,0.1456137275586457
18.077444,5.563099387822153,0.1450803044611148
18.079824,5.5889416019283376,0.1444575504596364
18.082224,5.605844247489077,0.1440180747366079
18.084612,5.628613425662206,0.1434557477894471
18.086992,5.6470988630887815,0.1429996641190634
18.089388,5.664885452381055,0.142596533977659
18.091776,5.689889048726081,0.1420353013589982
18.094156,5.7170345154443805,0.1414278291169259
18.096552,5.745390686976181,0.1407947147000033
18.09894,5.76774055626873,0.140282199086427
18.101336,5.785714137016107,0.1398337678004399
18.103732,5.79693724141956,0.139457762693514
18.10612,5.807928028397535,0.1390496542642942
18.108504,5.814774844255815,0.1387311355014606
18.1109,5.820830264181178,0.1384174536085363
18.113288,5.826466375225961,0.138133823640555
18.115668,5.826747810337551,0.137973158814525
18.118068,5.829962511755335,0.1377588369291208
18.12524,5.815579511193818,0.1377234704333627
18.127628,5.811390214103751,0.1377177547318557
18.130012,5.817863047051825,0.1375285061836227
18.132408,5.826849837425515,0.1373170047642972
18.134796,5.839328972612838,0.1370192376801519
18.137176,5.852786495188186,0.1366620506522441
18.139576,5.861588189964641,0.1363764245054686
18.141964,5.865873826569064,0.1361498051566444
18.144344,5.869740154292906,0.1359519285438056
18.146744,5.877750453136444,0.1356732453027912
18.149132,5.883618881606703,0.1354379471648533
18.151516,5.894654994555053,0.1351464605645977
18.153912,5.905923424928878,0.1348860528536331
18.1563,5.921987452728455,0.1345500897177803
18.158684,5.943918013140423,0.1341206345134334
18.16108,5.963194846499916,0.1337216789897881
18.163468,5.982890988739991,0.1332943382717367
18.165848,6.000305490979927,0.1329215283588012
18.168244,6.019210237287083,0.1324966023904017
18.170636,6.042306176542176,0.1319404673023638
18.17302,6.065030028744933,0.1313682727601971
18.175416,6.081747578708439,0.1309039360438476
18.177804,6.089106251245917,0.1306229747717465
18.180184,6.091809095984505,0.1304079500841472
18.182576,6.092230300722955,0.1302460199483316
18.184964,6.087296829528212,0.1301922180247094
18.187344,6.083294523893247,0.1301253082644983
18.194508,6.067421279264511,0.1301219121381963
18.196904,6.062859895122105,0.1300898883612014
18.199288,6.059509215793198,0.1300273185652849
18.201684,6.059650881277928,0.1298834094622901
18.20408,6.056347423777264,0.129772960464298
18.206464,6.045454872171514,0.1297704355193804
18.208844,6.040428853178156,0.1296762437567953
18.211248,6.03712539567749,0.1295659899106888
18.213636,6.033682168549967,0.129464100010043
18.216016,6.031170106982224,0.1293497453796035
18.21842,6.028890362839955,0.1292660299604874
18.220808,6.024049439443829,0.1292487075938811
18.223188,6.022002012727038,0.1291951329500363
18.225584,6.023307161197022,0.1290702913328772
18.227972,6.027825115226923,0.1288827757403541
18.230356,6.033414004443462,0.1286749484924464
18.232752,6.045009195899252,0.1283681918081624
18.23514,6.055393682541542,0.1280905726111376
18.23752,6.066616786944994,0.1277634834295953
18.239916,6.081052696908363,0.1273696259058154
18.242308,6.098561642804786,0.126925965576916
18.244688,6.116722215007267,0.126491710918755
18.247084,6.131018355343776,0.1261148450157605
18.249472,6.142101690120367,0.1258024380072784
18.251856,6.153696881576157,0.1255034919423765
18.254252,6.170087670457698,0.1251374022574496
18.25664,6.181263553032908,0.1248659983878224
18.25902,6.19057710448856,0.124618153520211
18.261416,6.202312065571211,0.1243142213561018
18.263804,6.216700753706335,0.1239870783121712
18.2662,6.227504549229208,0.1236974384807993
18.268596,6.2407297543790765,0.1233524069440887
18.270988,6.254374268409528,0.1229833321694009
18.273368,6.268158552066838,0.1226067918813819
18.275768,6.279800965350869,0.1222702113751168
18.278156,6.291583148261762,0.1219275320380546
18.280536,6.297638568187125,0.1216599694836326
18.282932,6.304764923299126,0.1213727921223484
18.285316,6.30933009915727,0.1211490242256731
18.287696,6.314686670948332,0.1209221249755543
18.2901,6.315759501992839,0.1207726623683947
18.292488,6.313899066731151,0.1206642518443017
18.294864,6.315763293708577,0.1205124554728797
18.297267999999995,6.317627520686004,0.1203607747871812
18.299656,6.320702452476928,0.1201824993947207
18.302036,6.321635513894576,0.120042479659849
18.30444,6.323919049752581,0.1198673619725325
18.306828,6.330067017476561,0.1196426730755715
18.309208,6.333933345200403,0.119463535221464
18.311612,6.3320729099387165,0.1193556388499082
18.314,6.331003870609947,0.1192448236909945
18.31638,6.330446687960376,0.1191480439932391
18.318776,6.329330426803365,0.1190833074937807
18.321164,6.329285100832991,0.1190003408680709
18.323544,6.3320332715419525,0.118886694433262
18.32594,6.334641672624053,0.1187815566664335
18.328328,6.344047771878322,0.1185903738200513
18.330708,6.356526907065648,0.1183555176295122
18.333104,6.370496286320192,0.1180791869983615
18.335492,6.390751507067706,0.1177103928578914
18.337872,6.41249697188244,0.1173005980612378
18.340268,6.434661745577755,0.1168666792437637
18.342656,6.456035123340151,0.1164386169067079
18.345036,6.479410601848965,0.1159865938645312
18.347432,6.499433505171003,0.1155931971183682
18.34982,6.518665012560122,0.1152011534532772
18.352216,6.539479311815078,0.1148077253629841
18.354612,6.557360344763838,0.1144536759872234
18.357,6.578174644018794,0.1140649670140888
18.35938,6.6037845406995,0.1136211633124919
18.361776,6.632327703686404,0.1131430269318582
18.364164,6.658217139620832,0.1126867778496935
18.366544,6.688530085928674,0.1121612167452274
18.368944,6.717352788169298,0.1116769755867362
18.371328,6.744173389663505,0.1112209416128794
18.373712,6.768852120784435,0.1107980233169274
18.376108,6.788455715225891,0.1104459625106443
18.378496,6.802704633734155,0.1101764637881472
18.380876,6.819327740041175,0.109905101324169
18.383272,6.829385465601502,0.1097404912845229
18.38566,6.839815278214167,0.1095970818463027
18.388056,6.852619278625586,0.1094507655837326
18.392836,6.8612320860890685,0.1094017805401506
18.395216,6.86588791388796,0.1093587073551114
18.39762,6.873477007993047,0.109282952540579
18.400008,6.876550043926102,0.1092426265217385
18.402388,6.876689813552962,0.1092352818078423
18.404784,6.876969352806682,0.1092207050278972
18.407172,6.876457496127484,0.10920736389984
18.409552,6.875294013142229,0.1091879296572882
18.414336,6.872827277544857,0.1091558678694791
18.416716,6.871663794559602,0.1091364433359675
18.419116,6.871711016387845,0.1090948236097123
18.421504,6.8701754463502525,0.1090549034580904
18.423884,6.86877964593952,0.1090077491103262
18.42628,6.870736420715563,0.1089074248127695
18.428668,6.867385741386657,0.108841641133695
18.431048,6.860729708699218,0.1087869725162053
18.433448,6.8535618193325805,0.1087188508113565
18.435832,6.845742303659885,0.1086444256962665
18.438232,6.844488168733882,0.1084708674014972
18.440628,6.851661745674126,0.1081820728747937
18.443012,6.860697653733928,0.1078799946291491
18.445392,6.867731461047312,0.1076022901827416
18.447796,6.882494132092645,0.107249284011646
18.450184,6.903123335750366,0.1068356986680872
18.452564,6.919888107542114,0.1064611900185016
18.454964,6.936652879333862,0.1060890227672058
18.457352,6.954209047058529,0.1057194575676818
18.459732,6.970554509969697,0.1053742119016451
18.462128,6.989321382507862,0.1049854327157038
18.464516,7.005294758366691,0.1046220239143654
18.466896,7.020197199038883,0.1042741521622918
18.469296,7.042037107510103,0.1038564385171712
18.47168,7.06573934710088,0.103424764055456
18.47406,7.0914436874380735,0.1029767475331868
18.476456,7.123805956320576,0.1024747750766805
18.478844,7.163105693002108,0.1019038852734744
18.48124,7.20119472487014,0.101353508045349
18.483644,7.236210720805117,0.1008378166195371
18.486032,7.271878343046152,0.1003362379067022
18.488412,7.301260123794216,0.0999124624757627
18.490808,7.328360264542144,0.0995263847234355
18.493196,7.353737843797374,0.0991465997253621
18.495576,7.370967250440076,0.0988550693743361
18.497976,7.387125721896141,0.0985799109537034
18.500364,7.407288394845039,0.0982663699635018
18.502744,7.426519902234157,0.0979608251813874
18.50514,7.443889078503721,0.0976700816246503
18.507528,7.458324988467089,0.0974047199371201
18.509908,7.473272755109655,0.0971534783331118
18.512304,7.485938881752083,0.0969337814006191
18.514692,7.49981571320801,0.0966957935933592
18.517076,7.510339969477162,0.0965048536999179
18.519472,7.5211437650000335,0.0963022646447564
18.52186,7.52887452458985,0.0961320716310906
18.52424,7.532461313059972,0.09600603012386
18.526636,7.535908331903235,0.0958877036798412
18.529024,7.54349932186619,0.0957281884445451
18.531408,7.554303117389063,0.0955327817720401
18.533804,7.56138225067282,0.0953612200217274
18.536192,7.573024663956853,0.0951302634198606
18.538572,7.581082184628634,0.0949151554051154
18.540968,7.591793432352889,0.0946892958955402
18.543356,7.605205628957862,0.0944134190093802
18.545752,7.616103868137219,0.0941431106463963
18.548148,7.6248602369433,0.0938977348847694
18.550536,7.634547771309158,0.0936476524061069
18.552916,7.64088273048824,0.0934379780161022
18.555312,7.6522928263467955,0.093182637936067
18.5577,7.660909425526017,0.0929435473329016
18.56008,7.673949535078651,0.0926517373159514
18.562476,7.687781040564205,0.0923627766645926
18.564864,7.699238358251004,0.092071677608678
18.567244,7.707622640004747,0.0918092617256243
18.56964,7.714284360265794,0.0915510786031262
18.572028,7.719083749407284,0.0913030296197947
18.574424,7.718808001869303,0.0911010120736876
18.57682,7.714528052838487,0.0909332026251682
18.579208,7.706104132687978,0.090804782657992
18.581592,7.700613478843664,0.0906543011906314
18.583988,7.691770249812574,0.0905439235876844
18.586376,7.686931222274317,0.0904001684628287
18.588756,7.680369633243364,0.0902606117428195
18.591152,7.676461771264886,0.0901117729489237
18.59354,7.671482974099769,0.0899736486082918
18.595924,7.66864604730793,0.0898135049973138
18.59832,7.661944688650117,0.0896792740817324
18.600708,7.660737775552357,0.0894831559231488
18.603088,7.653804099469067,0.0893232091194242
18.605488,7.647289732266356,0.0891442729272312
18.607872,7.63770232913059,0.0889924240610724
18.610256,7.624390263755712,0.0888600630058042
18.612652,7.61280075987353,0.0887234174641898
18.615036,7.605075687857322,0.0885609850323615
18.61742,7.599212946960669,0.0883883897939968
18.619816,7.594700680504377,0.0881920526159981
18.622204,7.5921905147945,0.0879793859739909
18.624588,7.588888953151705,0.087764817189568
18.626992,7.591593693748163,0.0875026064790027
18.629376,7.589363067292006,0.0872769005837576
18.631756,7.587132440835852,0.087050714799108
18.634156,7.580757843260002,0.0868619731638086
18.636544,7.574103706430431,0.0866851312886624
18.638924,7.564376533667807,0.0865351393348578
18.64132,7.557442857584516,0.0863704073418503
18.643708,7.546504980008392,0.0862369160167401
18.646092,7.54064223911174,0.0860609230941726
18.648488,7.529704361535616,0.0859265982599363
18.650872,7.523422311758384,0.0857684846692952
18.653268,7.52393796015332,0.0855663890131952
18.655668,7.527247105227591,0.0853510711208931
18.658056,7.53134764623478,0.0851366254673607
18.660436,7.532375151308914,0.0849473818540265
18.66284,7.5307489293305725,0.0847660616812779
18.665228,7.532195743285287,0.0845601056469609
18.667608,7.536156514665617,0.0843534860049005
18.670004,7.542398926046082,0.0841210877579648
18.672392,7.5534369348523,0.0838620515438632
18.674776,7.56340400847188,0.0836156752286396
18.677172,7.574302247651238,0.0833635419208692
18.67956,7.587993983509932,0.0830994147275257
18.68194,7.609554352727432,0.0827853625025434
18.684336,7.6361898586244035,0.0824350872732618
18.686724,7.667620961947128,0.082060988067568
18.689104,7.699052065269853,0.0816893284842134
18.691504,7.73434760045855,0.0812966451279908
18.693892,7.769084057139808,0.0809311639063571
18.696272,7.808616111246816,0.0805405095584585
18.698668,7.846146064607407,0.080165874245525
18.701056,7.877390176475028,0.0798471545470892
18.703436,7.905421482782735,0.0795578565142996
18.705832,7.935454889836855,0.0792560471610607
18.70822,7.972425764690006,0.0789121421288636
18.710604,8.010839661782134,0.0785789398035842
18.713,8.042967717381288,0.0782975466051885
18.715388,8.074304377047527,0.0780163818470264
18.717784,8.10135729596721,0.0777734690278351
18.72018,8.125337178953838,0.0775546500885179
18.722567999999995,8.14759450044777,0.0773389556008899
18.724948,8.17571835455409,0.0770927896737194
18.727348,8.20118848160794,0.0768524410527038
18.729735999999995,8.22000068011648,0.0766434323085753
18.732116,8.23215495007971,0.0764643071086513
18.734512,8.23979316187091,0.0762972770143494
18.7369,8.24636043847547,0.0761394214039924
18.73928,8.2472009520945,0.0760061666917412
18.74168,8.245527508287918,0.0758717362242197
18.744068,8.244133603735053,0.0757270655825942
18.746448,8.239946202502855,0.0755913444038647
18.748848,8.238971606830571,0.0754300783018904
18.751236,8.241908664852506,0.0752164687950064
18.753616,8.245916658061077,0.0749954801084409
18.756012,8.249133255336732,0.0747743299896129
18.7584,8.253048700746687,0.0745273591739259
18.76078,8.261108117276336,0.0742523540499786
18.76318,8.265582641193733,0.0739832638965914
18.765568,8.273409740297904,0.0736842747621684
18.767948,8.281516378655796,0.0733750212406674
18.770344,8.290554182573466,0.0730639893159291
18.772732,8.294796389065384,0.0727735157531098
18.775116,8.302111631490359,0.0724652613060351
18.777516,8.311568744288609,0.0721410098285745
18.779904,8.324890288952831,0.071800726517845
18.782284,8.340213934363476,0.0714509708395498
18.784684,8.356888054214474,0.0710841039925363
18.787072,8.380639411491364,0.0706790325439995
18.789456,8.40760357432817,0.0702528043667949
18.79186,8.432565636418559,0.0698394241970252
18.794248,8.465396331867753,0.0693934036794932
18.796628,8.495573300264475,0.0689517861652933
18.799024,8.521047219034063,0.0685573267145004
18.801412,8.542656705937674,0.0681782060025314
18.803792,8.560541530602173,0.0678104053101629
18.806188,8.577215650453173,0.0674567442658131
18.808576,8.595519783998252,0.0670783247016058
18.810956,8.619690450155721,0.06667885457166
18.813356,8.642650411499694,0.0662932078287344
18.815744,8.665098516164468,0.0658957217563149
18.818124,8.683542419336405,0.0655159166512425
18.820524,8.705199128068262,0.0651169789238425
18.822912,8.724062340120785,0.064725591245637
18.825292,8.740783681800028,0.0643479654215842
18.827688,8.759507124225689,0.0639646877171377
18.830076,8.77594892665121,0.0636006121141091
18.832472,8.790388628330318,0.0632459434107668
18.834868,8.801755294076369,0.0629083501480792
18.837256,8.81084031982228,0.0625902068098213
18.83964,8.818854410381558,0.0622786754655401
18.84204,8.820210572395524,0.0619843024722512
18.844428,8.822358130342408,0.061693375994653
18.846812,8.825856162729654,0.0613856029465165
18.849204,8.831356295863312,0.061069726547648
18.851592,8.83271245787728,0.0607726526085454
18.853976,8.833649311010666,0.060490425727921
18.85638,8.831885215263334,0.0602411762432407
18.858764,8.826768544329227,0.0600162665199148
18.861144,8.82179164302198,0.0597865575180653
18.86354,8.81704705914021,0.0595795644315521
18.865928,8.816446446378132,0.0593526727481815
18.868308,8.813144884735337,0.0591577472895885
18.870704,8.809424014211963,0.0589769459958454
18.873092,8.810638510741198,0.0587809175943482
18.875476,8.805706935404325,0.0586111339732844
18.877872,8.801986064880952,0.0584304495808416
18.880256,8.799196359917357,0.0582485291710511
18.882636,8.799339921259955,0.0580593235603269
18.885036,8.797621151482996,0.0578719260123886
18.887424,8.800837748758651,0.0576707076361441
18.889804,8.803914576407445,0.0574736367550483
18.892199999999995,8.807643030362296,0.0572855033950243
18.894588,8.815096146556261,0.0570943372894043
18.896984,8.820407392376948,0.0569143415755227
18.89938,8.835309833049141,0.0567161294105083
18.901768,8.850631582601913,0.0565040625473371
18.904152,8.86302006584849,0.0562987956675963
18.906548,8.875827857975647,0.0560798177641575
18.908936,8.88635401010267,0.0558765780130805
18.911316,8.897951097416327,0.0556682660864593
18.913716,8.909268645476265,0.0554703985830968
18.9161,8.923287142416921,0.055243606195357
18.91848,8.93744540898444,0.0550119425834205
18.920884,8.946528538872483,0.0547988244482193
18.923272,8.96203727988036,0.0545538808963995
18.925652,8.977406251261375,0.0543142076658423
18.928056,8.994497784135087,0.0540789873902278
18.930444,9.003580914023132,0.0538674820633769
18.932824,9.014526375030734,0.0536546116449718
18.93522,9.017742972306388,0.053456274550495
18.937608,9.024824001448014,0.053251289549792
18.939988,9.027528742044472,0.0530393339817278
18.942384,9.023575554095618,0.0528356662684945
18.944772,9.021624466893185,0.0526259468310489
18.947152,9.012084285585662,0.0524252206437422
18.949552,9.0014731690915,0.0522292883623796
