Time,Force,Position
18.619596,4.688150315958379,0.164083234531077
18.621996,4.80345422130747,0.1628936008202471
18.67934,4.903844310837153,0.1623673628421587
18.681724,4.910130152330123,0.1621896520868263
18.684108,4.917347159382873,0.1619939768895437
18.686504,4.923213691995263,0.1618511311773242
18.688892,4.931594182033268,0.1616688915905673
18.691272,4.946353061362862,0.1613535454515089
18.693672,4.963905437371789,0.160973454399991
18.69606,4.9794084908060565,0.1607054710016223
18.698444,4.997797588718275,0.1604224640144365
18.70084,5.026569277414916,0.1598920590250508
18.703224,5.058414002044615,0.1592784293876208
18.705608,5.088164078129278,0.1586786256550324
18.708004,5.120056024587218,0.1580330491701359
18.710392,5.152599597351217,0.1574031128689655
18.712776,5.180207803062603,0.156902172735302
18.715172,5.21573186396104,0.1561600460689478
18.71756,5.24967313299364,0.1554385186361662
18.719944,5.285756272399516,0.1546566137583413
18.72234,5.316996592551398,0.1540509323148556
18.724728,5.349120856434817,0.1534880293779058
18.727108,5.385900948117126,0.1528340802362197
18.729504,5.413881240880849,0.1523917444114247
18.731892,5.439859432898157,0.1519990266328243
18.734288,5.469562287154575,0.1515367394039113
18.736688,5.500475846224494,0.1510408344094771
18.739072,5.531668944548132,0.1505348856786141
18.741456,5.564352286938989,0.1499771855778785
18.743852,5.599224721531369,0.1493163932891165
18.74624,5.63372506907141,0.1486379864353009
18.74862,5.665571689558976,0.148009019638188
18.75102,5.696487144486764,0.147403987825833
18.753408,5.724748872362078,0.1468377978292976
18.755788,5.745281736505444,0.1464252388426891
18.758188,5.762601795088895,0.1460931465021603
18.760576,5.782575580724821,0.1457232796954143
18.762956,5.798125855987331,0.145471637177742
18.765356,5.813815900876703,0.1452107956931692
18.767744,5.831927355393073,0.1448861552716656
18.770128,5.852739758790159,0.1444777583944524
18.772528,5.873831701440965,0.1440547249762793
18.774916,5.893480621852797,0.1436404071798324
18.7773,5.913688620772068,0.1431876959679965
18.779696,5.929799870399889,0.1427698535350029
18.782084,5.944328328161873,0.1423681246134986
18.784468,5.95736654185664,0.1420197695285329
18.786864,5.966400554058572,0.1417506093358332
18.789252,5.972361530327449,0.1415452842279958
18.791636,5.979113902529244,0.1413374774356633
18.89438,5.7903613201928446,0.1413010902362612
18.896768,5.786731101610218,0.1412600489170815
18.899148,5.786034149333785,0.1411668764464053
18.901548,5.791483268923464,0.14095545719412
18.903936,5.8028461429537765,0.1405933474917039
18.906316,5.813138081797451,0.1402505160052642
18.908712,5.8283653876937365,0.1398224199078477
18.9111,5.849598995829273,0.1392835125707344
18.913484,5.875767971017422,0.1386663108185483
18.91588,5.901145550272653,0.1380581259494598
18.918268,5.93397245400611,0.1373453347718532
18.920652,5.968801458485983,0.1365971632594271
18.923048,6.005912102965995,0.1358110805175301
18.925432,6.039530402632369,0.1351084815199138
18.927816,6.074731494164581,0.1344030818600338
18.930216,6.114448643868824,0.1336393612599028
18.932604,6.161103261372095,0.1327602168273565
18.934988,6.207246022196169,0.1318885746194708
18.937388,6.254459718206881,0.1310066456331404
18.939776,6.300742248657815,0.1301472850763657
18.942156,6.346745239855029,0.1293106711005025
18.944556,6.393958935865741,0.1284531280024001
18.946944,6.441731710383894,0.1275743722498241
18.949328,6.474698383744211,0.1269241858604407
18.951728,6.502450150798196,0.1263679252927532
18.954116,6.5369996160243495,0.1257150740755379
18.956496,6.564751383078335,0.1251633670181289
18.958896,6.591571984572541,0.124631492027081
18.961284,6.612526053454357,0.1241899286932074
18.963668,6.632781274201872,0.123788700594939
18.966064,6.64558717047116,0.1234789766102869
18.968452,6.661605872300365,0.1231173411150559
18.970836,6.674411768569653,0.1228162652937529
18.973236,6.687497204092662,0.1224969713766837
18.975624,6.696997747003417,0.1222135041913674
18.978008,6.705055267675196,0.1219295737900889
18.980408,6.706594629428528,0.1217206475138405
18.982796,6.701987919315748,0.121605908943579
18.98518,6.691235137336858,0.1215851538917308
18.98758,6.680482355357968,0.1215636324556218
18.989968,6.668286551140104,0.1215393441470309
18.992352,6.657301451735736,0.121488052524066
18.994752,6.644034712331232,0.1214788615604137
18.99714,6.645713843711424,0.1212658704192247
18.99952,6.65125740695759,0.1210046284637444
19.00192,6.652284912031724,0.1207872433532203
19.004308,6.659458488971968,0.1204807881235738
19.006692,6.663047173299959,0.1202066865370496
19.009088,6.663842360948615,0.1199603069943079
19.011476,6.66775780635857,0.1196274582279642
19.01386,6.674886057328441,0.1192414931472154
19.01626,6.6770789412457,0.1189216650618314
19.018648,6.675547162923845,0.1186397540157715
19.021032,6.675226089415489,0.1183320923551728
19.023428,6.678909217399969,0.1179712069711254
19.02582,6.681521410197808,0.1176274791339417
19.0282,6.686927099674982,0.117253726672668
19.0306,6.694614429152294,0.1168357817818145
19.032992,6.709518765682355,0.1163116948496235
19.035368,6.719627504786663,0.1158419902647864
19.037764,6.7337404453838055,0.1153220534193611
19.040148,6.742918018928336,0.1148672264139186
19.042528,6.7525149013534485,0.1143907870429689
19.044924,6.752520588927055,0.1140261852922624
19.047308,6.752805815754384,0.1136482137827122
19.049688,6.752951272954851,0.1132770210905243
19.052092,6.748952759035626,0.1129652125310411
19.054476,6.747607972168875,0.1126337564003678
19.056856,6.754271588287791,0.1122023358052816
19.05926,6.755300989219794,0.1118668272314144
19.061648,6.7568422468309945,0.1115454615782184
19.064024,6.758243734815337,0.111230762673828
19.06642,6.763509654665651,0.1108730996394815
19.068808,6.773431402314855,0.1104748793919769
19.071184,6.780000574777285,0.1101327993077214
19.073592,6.791225575038605,0.1097508285495758
19.075976,6.804312906419484,0.1093542826991118
19.078356,6.8199141952259765,0.1089488483142003
19.08076,6.836306879965387,0.1085492184392066
19.083144,6.857495162130551,0.1081006415339771
19.085524,6.874120164295439,0.1077293974924234
19.087928,6.892188188699303,0.1073622629580355
19.090312,6.909557364968865,0.1070313254957676
19.092692,6.931163060156738,0.1066818683523674
19.095088,6.950067806463895,0.1063913950685899
19.097476,6.968553243890471,0.1061212609704381
19.099852,6.988901012436602,0.1058357005679837
19.102248,7.006967140982597,0.1055875722825964
19.104632,7.021401155088094,0.1054085450024666
19.14764,7.038813761470163,0.1052560248343711
19.154804,7.029224462476528,0.1052287320819588
19.161984,7.014747018258528,0.1052113731716786
19.164364,7.016516801579467,0.105163234574755
19.166768,7.02094031195288,0.105099876359906
19.169156,7.029368023819128,0.1049927110608226
19.171536,7.039006440498875,0.1048641524625493
19.17394,7.047062065312786,0.1047356534490124
19.176324,7.0540467549400585,0.1046207926889404
19.178704,7.062381919007689,0.1044786769516744
19.1811,7.076723385314572,0.104272365313042
19.183488,7.091064851621453,0.1040655703338018
19.185868,7.109270749794307,0.1038213544002462
19.188264,7.119747784235216,0.1036499416528281
19.190652,7.123287350877095,0.1035520635188311
19.193032,7.126035521586055,0.1034556151965503
19.195432,7.135581390467186,0.103294885402646
19.19782,7.1363274604297295,0.1032202154305226
19.2002,7.14056587520591,0.1030892196630916
19.202596,7.144012894049171,0.1029586000438431
19.20498,7.146808286586374,0.1028219406151866
19.20736,7.153096023937216,0.1026301638893706
19.209764,7.157940739049079,0.1024318561569211
19.212152,7.151331928189883,0.1023328794822731
19.214532,7.143280095091711,0.1022276392472391
19.216928,7.135368031620399,0.1021154125563437
19.219316,7.130668773709004,0.1019618392560335
19.221712,7.130904882850221,0.1017596705069683
19.224108,7.134493567178212,0.1015093050220266
19.226496,7.134729676319427,0.1013073034130163
19.22888,7.128959483221392,0.1011673194864743
19.231276,7.12733326124305,0.1009802568596257
19.233664,7.12584680889157,0.1007870379696939
19.236044,7.128504327659783,0.1005450003368439
19.238444,7.133303716801273,0.1002744865543957
19.240828,7.132236573330372,0.1000581820511614
19.243208,7.127584537247219,0.0998633962305279
19.245612,7.126936702656901,0.099627034155814
19.247996,7.126009328812861,0.0994043342310224
19.25038,7.128946386834795,0.0991489458860202
19.252776,7.135747876722703,0.0988626940277505
19.25516,7.139476330677554,0.0986102528415206
19.25754,7.146789677244659,0.0983391761597609
19.259944,7.1629028227303495,0.0979888051238667
19.262332,7.184091104895511,0.0975900776080909
19.264712,7.208212653366869,0.0971693780635105
19.267108,7.227910691464812,0.0968086253100144
19.269496,7.2445356936297,0.0964809676908094
19.27188,7.262231630981226,0.096143926774964
19.274284,7.281417812399972,0.0957748019452873
19.276672,7.301814698632218,0.0953851993678631
19.279052,7.314854808184853,0.095076869022963
19.281456,7.330176557737625,0.0947405428681049
19.283844,7.346289703223315,0.0944048010392443
19.286224,7.364125410201702,0.0940643443576717
19.28862,7.389038354605979,0.0936572762138464
19.291008,7.411669659010115,0.0932808163418968
19.293388,7.434440733041115,0.0928992611908621
19.295792,7.456280641512336,0.0925234155197178
19.298176,7.476118449237139,0.0921693004700076
19.30056,7.485805983602997,0.0919101187631465
19.302956,7.496145144274914,0.0916579213377675
19.305344,7.505553139387054,0.0914130900148142
19.307724,7.513378342633356,0.0911689045589105
19.310124,7.517199344386825,0.0909611395458515
19.312512,7.515153813527903,0.0907982604934358
19.314892,7.51566946192284,0.0905935192391652
19.317288,7.52032908143747,0.0903498221887644
19.319676,7.521775895392185,0.0901410778654635
19.322056,7.522012004533401,0.089949846891183
19.32446,7.523970675167313,0.0897546290641679
19.326844,7.534357057667473,0.0894752262252275
19.329228,7.539248994607581,0.0892592258343091
19.331624,7.546282801920964,0.0890218073358816
19.334012,7.554527314047847,0.0887686228078478
19.336392,7.561700890988092,0.0885289075950399
19.338788,7.575020539794448,0.0882374536185899
19.341176,7.590714376399557,0.087951591899145
19.34356,7.610691953751221,0.0876251013754238
19.345956,7.629878135169967,0.0872988387967953
19.348344,7.658283424387879,0.0868938370610753
19.350724,7.686176856926593,0.0864757399465668
19.35312,7.710066087972473,0.0860874281876246
19.355508,7.730602743831579,0.0857373200619575
19.357904,7.748857759690547,0.0854139887426878
19.3603,7.771768603348406,0.0850675702980981
19.362688,7.794399907752544,0.0847356496634797
19.365068,7.814889341783405,0.0844279724334327
19.367464,7.837101337306962,0.0841175780799735
19.369852,7.863457303950215,0.0837740973901107
19.372232,7.888230478727632,0.0834285580314736
19.374628,7.907788747198714,0.0831308732586273
19.377016,7.930420051602852,0.0828081933422483
19.379396,7.949978320073935,0.0825113040413882
19.381792,7.970327984477937,0.0822193260778511
19.38418,7.987464843322022,0.0819580614270566
19.386576,7.998455630299997,0.0817455892554349
19.388972,8.007072229479219,0.0815291687851747
19.39136,8.01312764940458,0.0813506986167003
19.39374,8.01969492600914,0.0811858280101612
19.39614,8.023701023359845,0.0810579234461531
19.398528,8.028079207762886,0.080948706259279
19.400908,8.039394859964954,0.0807963473043819
19.403312,8.05271261291344,0.0806303797157548
19.4057,8.067752927354622,0.080461776743525
19.40808,8.081862076236026,0.0802980306342926
19.410476,8.092758419557516,0.0801624508317975
19.412864,8.103375223625285,0.0800387277801161
19.415248,8.114271566946774,0.0799043690159424
19.417644,8.122746500641265,0.0798008106772934
19.420032,8.135457953254067,0.0796964818180891
19.422412,8.150823132919342,0.0795871532312817
19.424808,8.168469952584756,0.0794556233810772
19.427196,8.189050038556367,0.0793087124273596
19.429576,8.203903361542448,0.0791887147834624
19.431972,8.218896454155386,0.0790629484173243
19.43436,8.235891647514743,0.0789243711589637
19.43674,8.25153636643374,0.0788059848354003
19.439136,8.263456423113624,0.0787012352760623
19.441524,8.272582983114175,0.07860686368729
19.44392,8.281337456062385,0.0784942392479485
19.446316,8.292513338637594,0.078353189277701
19.448704,8.300755954906608,0.0782292843785403
19.451084,8.31006950636226,0.0780969735204711
19.453488,8.32073353225827,0.0779452874051822
19.455872,8.328883600728668,0.077792905626685
19.458256,8.3405260140127,0.077603436988156
19.46066,8.347512599497842,0.077429901459332
19.463044,8.352497084236564,0.0772686790761709
19.465428,8.353756906736177,0.0771203890497033
19.467824,8.35078021031748,0.0769728668290803
19.470212,8.345429326100025,0.0768190378224924
19.472592,8.337936571509294,0.0766829106506062
19.474988,8.328581485799006,0.0765532314182644
19.477376,8.32309083195469,0.0764052624410116
19.47976,8.317600178110377,0.07625698293835
19.482156,8.312528833146642,0.0760925380811443
19.484544,8.311741228929462,0.0758946952482075
19.486928,8.315237365458836,0.0756628385363035
19.489324,8.321015141988347,0.0754084028119362
19.491712,8.324790817771442,0.0751652114382658
19.494096,8.32670416243498,0.0749289589766887
19.496492,8.327826111165601,0.074690855460909
19.498876,8.32908782952308,0.0744482145086516
19.50126,8.329558151947644,0.0742036621959565
19.503656,8.333613366984459,0.0739532684113523
19.506048,8.338599747581052,0.0737015072196199
19.508428,8.350523595976675,0.073414596717963
19.510824,8.365660249932214,0.0731047470104905
19.513212,8.386291349447806,0.0727504474716301
19.515592,8.407853614523173,0.0723941353333002
19.517992,8.431417980344959,0.0720286772076683
19.52038,8.449395352808075,0.0716779139750053
19.52276,8.469514595644469,0.0713134550492074
19.525156,8.48590917624175,0.0709590669450813
19.527544,8.504585396839168,0.0705847713515742
19.529928,8.522982078182864,0.0702219417403608
19.532324,8.537514327660588,0.0698761610827349
19.534708,8.550835872324813,0.0695443875668703
19.537092,8.565088582548816,0.0692114669821348
19.539492,8.583485263892513,0.0688548632797518
19.54188,8.600950779676431,0.0685011215296706
19.544264,8.615343259527293,0.0681638413718559
19.546668,8.624940141952404,0.0678424804163897
19.549052,8.633745628444597,0.0675185927598198
19.551436,8.642179027884454,0.0671783899831078
19.553832,8.649401722510811,0.0668522615924836
19.55622,8.653179294151776,0.0665257078225874
19.558604,8.652021498740128,0.0662194103240746
19.561,8.647371358514842,0.0659448100323314
19.563384,8.640719117543142,0.065678647065177
19.565768,8.63378733731772,0.0654230886453632
19.568164,8.634304881570527,0.0651519199823081
19.570552,8.629887058770722,0.0649000614731432
19.572932,8.629333667836887,0.0646353866752253
19.575328,8.628640507276195,0.0643765560003339
19.577716,8.627807577088642,0.0641228328429553
19.580096,8.624832776527812,0.0638817139500334
19.582492,8.621066580034064,0.0636371807069675
19.58488,8.615298282793896,0.0634011551251465
19.58728,8.605106475180316,0.0631968304475349
19.589676,8.596916768313152,0.0629840652816558
19.592064,8.594873133312099,0.0627416939661985
19.594444,8.600558362042994,0.0624769378104626
19.596844,8.609037087453226,0.0622084752099891
19.599232,8.616025568796235,0.0619622344684541
19.601612,8.618218452713492,0.0617277269270984
19.604008,8.618781322936675,0.0615188856297493
19.606396,8.623208625025825,0.0612990843334458
19.60878,8.628986401555338,0.0610630916015048
19.611176,8.638628609950825,0.0608169681068936
19.613564,8.645477321666974,0.060575048305694
19.615948,8.645807874464676,0.0603425919137156
19.618344,8.648931923941714,0.0601055446104375
19.620732,8.652055973418753,0.0598693550157395
19.623112,8.655319792522647,0.0596291688884345
19.625512,8.658863150880265,0.0593794163276817
19.6279,8.665339775544076,0.0591204531674961
19.630284,8.675680832073862,0.0588530062851353
19.63268,8.687092823790287,0.0585797223938131
19.635068,8.702928325880128,0.0582780557084565
19.637452,8.71555102241005,0.0579946873180921
19.639848,8.722958812633644,0.0577371264805139
19.642236,8.7263624013644,0.0574949504367798
19.64462,8.726553184535241,0.0572707524816878
19.647016,8.724881636586527,0.0570481757894401
19.649404,8.72735405975751,0.0568064542661545
19.651784,8.731037187741986,0.0565534041689572
19.654188,8.733649380539823,0.0563066944214947
19.656572,8.736913199643721,0.0560693198230483
19.658952,8.737383522068283,0.055835112474322
19.661348,8.738785010052625,0.0555994716245795
19.663736,8.746984196209134,0.0553485255007727
19.666116,8.75746502236578,0.0550827982694675
19.66852,8.767945848522427,0.0548182497139312
19.670908,8.776284804305796,0.0545652426933449
19.673288,8.785554925648944,0.0543123416737608
19.67568,8.797106686992228,0.0540451518602714
19.678064,8.806516577962235,0.0537903448291324
19.68046,8.816997404118883,0.0535311863271766
19.682856,8.827198691021808,0.0532831956245665
19.68524,8.844477215350624,0.0530145607502421
19.68762,8.863757840425857,0.0527401349669832
19.690024,8.883318004754809,0.0524573096928316
19.692408,8.901947003523984,0.0521743136219652
19.694788,8.922158794158994,0.0518993950109635
19.69718,8.942882441473202,0.0516389927748995
19.699568,8.966679124720464,0.0513693481322434
19.701964,8.990615577594589,0.0510959119995528
19.70436,9.011618764162517,0.0508283472944229
19.706744,9.03634661296956,0.050560962758334
