Time,Force,Position
19.92862,4.788974295759754,0.1664913031511419
19.966848,4.953278568542834,0.1659527078266399
19.974028,4.958119491938959,0.1659393380489401
19.976416,4.9680827738428,0.165734925982159
19.978796,4.977394429440583,0.1655297678717429
19.981196,4.993411235411918,0.1651032457484316
19.983584,5.007845249517415,0.1646937918366653
19.985964,5.020836241383938,0.1642935258025487
19.98836,5.03899491772855,0.1638024867308732
19.990748,5.059667551498776,0.1632674070649299
19.993132,5.08262182526914,0.1626565858647947
19.995532,5.102130976054111,0.1621095212504106
19.99792,5.125085249824475,0.1615084531620709
20.000304,5.151344876953372,0.1608667483786399
20.0027,5.1778368215077455,0.1602553055283789
20.005092,5.204608305315839,0.1596334442832488
20.007472,5.228865831698318,0.1590500399926503
20.009872,5.259921056252967,0.1583276131428383
20.01226,5.28790324487456,0.1577049210031563
20.01464,5.3173284557351295,0.1570793477244318
20.017036,5.34447202659556,0.1565212635644695
20.019428,5.371523049657375,0.1559116395332835
20.021808,5.395780576039853,0.1553675431653373
20.024208,5.41468342648914,0.1549774065990369
20.026592,5.431676723990627,0.1546752599098953
20.028976,5.449181878171311,0.1543879848528983
20.031372,5.47083100347169,0.1539977033781959
20.033764,5.496344560638043,0.1535292325854977
20.036144,5.519763469259362,0.1530726167809702
20.038544,5.547186579373514,0.1525336996887067
20.040932,5.573678523927887,0.1520165591425382
20.043312,5.601520942922619,0.1514507491398597
20.045712,5.621681720013648,0.1509924121704527
20.098268,5.492657815556314,0.1505678420260662
20.100652,5.487352257309235,0.1505019948768568
20.103048,5.483397173502514,0.1503901993275385
20.10544,5.482375356001987,0.1502183492480175
20.10782,5.49006078962143,0.1498252158281688
20.110216,5.499748323987289,0.1493892660671883
20.112604,5.50850469279337,0.1489719245657761
20.114988,5.5163298960396725,0.1485706423359925
20.117384,5.524806725592033,0.1481719998902672
20.119772,5.5399414836897005,0.1476469451979125
20.122152,5.558661134399623,0.1470697817989162
20.124552,5.578172181042462,0.1464929304184831
20.12694,5.5936790261924685,0.1459957874494885
20.129324,5.607835396902116,0.1455417659931835
20.13172,5.6247852642911,0.1450371337801849
20.134108,5.645599563546056,0.1444561682310174
20.136488,5.663992453174014,0.1439447412821467
20.138888,5.671955530189308,0.1436771136575718
20.141276,5.672049973845794,0.1435722736980006
20.14366,5.680432359741668,0.143276580408873
20.146056,5.686952414517985,0.1430167447731478
20.148444,5.692681073361384,0.1427656254721128
20.150824,5.6959883225777865,0.1425856110874266
20.1819,5.665361886193064,0.1424080119897537
20.184292,5.661312358729855,0.1423956883697008
20.186672,5.665411003879176,0.1422117907908811
20.189072,5.674817103133446,0.1419523907601349
20.19146,5.679659922387441,0.1418147984036029
20.19384,5.684502741641436,0.1416781439419202
20.19624,5.689066021641712,0.1415612362289924
20.198628,5.696562567948181,0.141390201140881
20.201012,5.700846308694734,0.1412915643001676
20.203408,5.706620293508509,0.1411395178583029
20.2058,5.712534047949141,0.1409789818917594
20.20818,5.7168650105239385,0.1408301099696293
20.21058,5.721615281979317,0.1406533575961044
20.212968,5.727948345300532,0.1404655981535906
20.215352,5.734980256756047,0.140231045754588
20.217752,5.742431477092143,0.139968884163996
20.22014,5.741874294442571,0.1398631343692208
20.222524,5.743738521419997,0.1396911993208762
20.224924,5.749746719517117,0.1394337177773408
20.227312,5.755754917614237,0.1391750948999604
20.229696,5.766838252390828,0.1388164259297545
20.232092,5.781646249406535,0.1384052921106421
20.23448,5.7975251816088775,0.1379777198374406
20.236864,5.809819221198969,0.1375969812491926
20.23926,5.822672339296499,0.1371798801492858
20.241648,5.832871730341556,0.1367957639739714
20.244032,5.841628099147638,0.1364131403012114
20.246432,5.846659805714605,0.1360867589189098
20.24882,5.859048288961181,0.1356099343735141
20.251204,5.871436772207759,0.13513432522684
20.2536,5.8799608235883625,0.1347215110961909
20.255992,5.890998832394581,0.1342866787710839
20.258376,5.904690568253273,0.1338242110080653
20.260772,5.918522073738827,0.1333552129707405
20.263164,5.934076140717076,0.1328720998875016
20.265544,5.952004395494081,0.1323802400461037
20.267936,5.9795238451225865,0.1317355410811468
20.27032,6.004482115497236,0.1311699813113393
20.2727,6.0262275803119705,0.1306748061915372
20.275096,6.050114915499983,0.1301374492670648
20.27748,6.070929214754939,0.1296610893136688
20.27986,6.088670478076839,0.129246218216363
20.282264,6.100125899905769,0.1289482489821812
20.284652,6.116516688787311,0.1285731442028883
20.287028,6.132488168788271,0.1282238286597648
20.289432,6.152696167707543,0.1278400749917088
20.29182,6.17406764961207,0.1274746684892187
20.2942,6.198884254501992,0.127077403625617
20.296592,6.221279449764913,0.1267456222924059
20.29898,6.24725953764009,0.1263799739346835
20.30136,6.280177093314294,0.1259099930355247
20.303756,6.312582792309301,0.1254323796403505
20.30614,6.342055224998113,0.1250025822397062
20.30852,6.369805096194228,0.1245887373659704
20.310924,6.398486132950121,0.1241709897463402
20.313312,6.42423390339982,0.123797220865738
20.315688,6.448119342729962,0.1234516772212288
20.318092,6.473075717246744,0.123090575469929
20.320476,6.497892322136663,0.1227369898305202
20.32286,6.523220783705781,0.1223994542149185
20.325264,6.551342741954234,0.1220338402878184
20.327648,6.57825399538919,0.1216952482495121
20.330028,6.609309219943836,0.1212887734204447
20.332432,6.638222574125208,0.1209238206533791
20.33482,6.669557337933577,0.1205100419158237
20.3372,6.697586748383412,0.1201167301407914
20.339596,6.72603546771383,0.1197019263161195
20.341984,6.754112099991909,0.1192705183059396
20.344364,6.780466170777292,0.1188539950273171
20.346756,6.8029558096967016,0.118488809828951
20.349144,6.820370311936639,0.1181983422391081
20.351524,6.839088066788692,0.1179214874131666
20.35392,6.861670253506718,0.1176026432565049
20.356308,6.887837332836997,0.1172559386865977
20.358704,6.9100002106744425,0.1169635473827726
20.3611,6.93179100145955,0.1166510511540835
20.363488,6.949717360378685,0.116383406004283
20.365868,6.963779287431845,0.1161604687586043
20.368272,6.978400292992446,0.1159086674483067
20.37066,6.993720146687348,0.1156233114461918
20.37304,7.003453007023581,0.1153929950238473
20.375436,7.010532140307341,0.1151814648076693
20.377824,7.0186822087777365,0.1149551005170228
20.380204,7.028462290942213,0.1146856886181824
20.3826,7.035309106800494,0.1144512834618871
20.384988,7.044809649711251,0.1141983620149737
20.387368,7.051796235196392,0.1139576251191889
20.389764,7.055570015121618,0.1137645938431568
20.392152,7.059483564673704,0.1135646521937853
20.394532,7.062605718292872,0.1133660705027113
20.396936,7.068800907845096,0.1131275677192804
20.399324,7.067034916239894,0.1129453071650429
20.401704,7.056469125716107,0.1128632365563691
20.404108,7.04017657220679,0.1128407784497239
20.408872,7.003727033322183,0.1128394450183734
20.411272,6.987434479812865,0.1128174151614661
20.413656,6.971281695930409,0.112788653590561
20.41604,6.956991243167511,0.1127408796832218
20.418444,6.939487984844694,0.112740249965733
20.420828,6.924917992828075,0.1127060842069356
20.423208,6.915562907117788,0.1125986164720508
20.435172,6.832190586623402,0.1125266736237816
20.437552,6.8176205946067805,0.1124892666931641
20.439952,6.803050602590161,0.1124512813411424
20.442336,6.788620380200401,0.1124059006174818
20.44472,6.769534330011751,0.1124027611769131
20.447116,6.758037373928186,0.1123237266186194
20.449504,6.750824158591175,0.1121807098740517
20.451884,6.7506881806800525,0.1119481474318196
20.45428,6.756278965754461,0.1116569332780148
20.456668,6.764011621202148,0.1113342710546914
20.459048,6.770952880716915,0.111013075163432
20.461444,6.781758572097655,0.1106510252710132
20.463832,6.791353558664897,0.1103144271860913
20.466212,6.802019480418778,0.1099621648842451
20.468608,6.811474697359159,0.1096324928856859
20.470996,6.817577339112766,0.1093577686802645
20.473392,6.822329506426014,0.1091120751802034
20.475788,6.828012839299039,0.1088559582726926
20.478172,6.832904776239146,0.1086017255449037
20.480556,6.841940684298947,0.1082901398462504
20.482952,6.846041225306136,0.1080363163229264
20.48534,6.850933162246244,0.1077823120063848
20.48772,6.856756264746128,0.107520881891949
20.490116,6.86523309429849,0.1072428563780413
20.492504,6.875152946089827,0.1069682698223579
20.494884,6.881859992321246,0.1067410273686035
20.49728,6.890941226351422,0.1065117074918329
20.499668,6.893876388515485,0.1063609118504204
20.502064,6.894809449933134,0.1062342575413025
20.504468,6.896673676910561,0.1061004561216424
20.506856,6.900120695753823,0.105965405277089
20.509236,6.903707484223946,0.1058245257358775
20.511632,6.902219136014596,0.1057426454379211
20.514016,6.900591018178385,0.1056678084252583
20.516396,6.902035936275231,0.1055560697827829
20.518796,6.907624825491769,0.1053934966033211
20.52118,6.917217916201143,0.1051868972023369
20.523564,6.928813107656931,0.1049574851619749
20.525964,6.940920155791919,0.1047420930982488
20.528352,6.956891635792879,0.1044925134278137
20.530736,6.971652410980342,0.1042619320627362
20.533132,6.984271315794528,0.104060728515335
20.53552,6.993677415048797,0.1039028047016781
20.5379,7.00150072243723,0.1037469341431733
20.5403,7.016820576132133,0.1034938194062596
20.542684,7.034282300200313,0.1032127845975075
20.545068,7.049230066842879,0.1029406826941953
20.547464,7.06617993423186,0.1026463484564797
20.549852,7.081547009755006,0.1023535716167653
20.552232,7.093049653412178,0.1020970036822562
20.554628,7.103621131509573,0.101848349012636
20.557016,7.111119573673912,0.1016356120705058
20.559396,7.1258350228910015,0.1013388440803805
20.561792,7.141481637667868,0.1010359635713456
20.56418,7.155265921325177,0.1007489655273335
20.566576,7.165046003489654,0.1005048186471237
20.568972,7.17468631602727,0.1002694456794718
20.57136,7.18833083005772,0.0999961456728717
20.573744,7.198530221102777,0.0997353616398407
20.57614,7.20486518028186,0.0995100030498922
20.578528,7.216275276140415,0.0992314908681589
20.580908,7.229827242372249,0.0989268548409812
20.583304,7.249665050097053,0.0985515536074757
20.585692,7.267221217821718,0.0982086435202422
20.588072,7.275418508120358,0.0979725472458516
20.590468,7.283476028792139,0.0977441033352749
20.592856,7.294327046143253,0.0974975665869745
20.595236,7.307459703494505,0.0972205924699904
20.59764,7.322175152711592,0.0969448879004131
20.600028,7.337821767488458,0.0966618990312681
20.602408,7.356541418198381,0.0963497544309136
20.604804,7.377263169654719,0.0960195647232297
20.607192,7.395191424431724,0.0957106468090611
20.609572,7.411397117716031,0.0954079228226494
20.611968,7.429465142119896,0.0950951627828639
20.614356,7.447533166523759,0.0947817580179437
20.616752,7.462156067942232,0.0944799961845399
20.619148,7.471052206375172,0.0942213700591968
20.621536,7.484092315927807,0.093920286686064
20.623916,7.493267993614469,0.0936474940200065
20.626316,7.503794145741489,0.0933529631529028
20.6287,7.51459983712223,0.0930475760169849
20.631084,7.517257355890443,0.0928187402171316
20.633488,7.525129780964989,0.0925377201237142
20.635876,7.538217112345867,0.0922037424231163
20.638256,7.550513047793826,0.0918700129103795
20.640652,7.562017587308868,0.0915377803791524
20.64304,7.569378155704217,0.0912464301765298
20.64542,7.574876392980009,0.0909659875808938
20.64782,7.586520702121909,0.0906315529373111
20.650204,7.597233845704032,0.0903056023878056
20.652584,7.607015823726377,0.0899857788895661
20.654988,7.616518262495004,0.0896786683336239
20.657376,7.629885133129602,0.0893470846122316
20.65976,7.63845640633845,0.0890464214240942
20.662156,7.648098614733936,0.0887346898879505
20.66454,7.6622568813014515,0.0884055699704474
20.666924,7.677997939734805,0.0880780905252112
20.66932,7.695461559660854,0.0877502341501971
20.671704,7.717441237758936,0.0874028546891359
20.674084,7.732064139177406,0.0871258014226602
20.676488,7.744265630968879,0.0868830466473233
20.678876,7.763823899439964,0.0865710098796538
20.681256,7.775233995298519,0.0863268535498573
20.68366,7.784502220783798,0.0861053630649311
20.686048,7.7968434822021315,0.085859719786886
20.688428,7.80583216843369,0.0856517020315525
20.690824,7.816543416157943,0.0854399127614785
20.693208,7.832329800561671,0.0851890457586686
20.695592,7.837826141979591,0.0850255698634735
20.697988,7.836245245971625,0.0849171677196835
20.700376,7.835735285150297,0.0847984952446908
20.702756,7.835365093955828,0.084673941332314
20.705152,7.82912837014897,0.0845879084379849
20.70754,7.826895847834946,0.0844720608126963
20.709924,7.825594491080699,0.0843519747910839
20.71232,7.81963730652756,0.0842537591719134
20.714708,7.815030596414781,0.0841335853562376
20.717104,7.808421785555585,0.0840281085716739
20.7195,7.8042343843233875,0.0838913405152793
20.721888,7.807124220517077,0.0837021365809209
20.724268,7.812016157457186,0.0834988908581084
20.726664,7.813415749583656,0.0833378996900891
20.729052,7.822823744695795,0.0831207854762935
20.731432,7.832371509434793,0.0828982123472497
20.733832,7.83670436786746,0.0827195516974988
20.73622,7.844250031860043,0.0825113443631788
20.7386,7.852075235106346,0.082291789027428
20.740996,7.854685532046316,0.0821161922779611
20.743384,7.865304231971954,0.0818854002108528
20.745764,7.883791565256398,0.0816048679161917
20.74816,7.899857488913844,0.0813557078708721
20.750548,7.9148524773846525,0.0811163812753628
20.752944,7.934782832908072,0.0808460628479987
20.755344,7.953642253244854,0.0805867682156033
20.757732,7.974923083208634,0.0803000812322356
20.760112,7.99792647466511,0.0800112321867847
20.762508,8.020929866121586,0.0797245623447137
20.764896,8.043933257578063,0.0794396245094158
20.767276,8.066005483474761,0.0791621277263108
20.769676,8.084073507878625,0.0789116338564132
20.772064,8.10256084116307,0.0786460189343247
20.774448,8.1197449218354,0.0783650156212285
20.77684,8.137068772134588,0.0780820057489701
20.779228,8.153740996127722,0.0777919286165115
20.781608,8.171763694561212,0.0774812076211044
20.784004,8.188203601128865,0.0771671443343182
20.786392,8.206785378069796,0.0768374140435343
20.788776,8.223924132771751,0.0764964360806843
20.791172,8.236686598928534,0.0761620756626482
20.79356,8.247074877286563,0.0758230693904591
20.79594,8.258301773405753,0.0754509468949937
20.798336,8.269808208778665,0.0750675082032105
20.800724,8.280383478591796,0.0746894145522352
20.80312,8.293892014711126,0.0742989519577404
20.805516,8.303908206016816,0.073946731701346
20.807904,8.312201835829812,0.0735945025947207
20.810288,8.316491264149974,0.0732643134130215
20.812684,8.317987195790801,0.0729427500369008
20.815068,8.317341257058352,0.0726387038782942
20.817452,8.320047893512678,0.0723055202024967
20.819848,8.320752429220587,0.0719836805361288
20.822236,8.322899987167473,0.0716719578011677
20.824616,8.321043343621522,0.0713826752206549
20.827016,8.321560887874329,0.0711018676069464
20.829404,8.325942863993108,0.0708064267211204
20.831784,8.330836696791083,0.070524277317613
20.83418,8.333588659215783,0.0702587656414317
20.836568,8.340065283879595,0.0699830742879324
20.838952,8.349335405222744,0.0697004179388271
20.841348,8.35804644805845,0.0694393173675249
20.843736,8.364196311640299,0.0692084732361008
20.84612,8.3751417726479,0.0689620828097769
20.848516,8.384085132909084,0.0687260596079131
20.850904,8.390095226864071,0.0685033202721202
20.853284,8.395453694513003,0.068272494059348
20.855684,8.406818464401185,0.0680140957291112
20.858072,8.424329306155478,0.0677228260258209
20.860452,8.44184014790977,0.0674307132049735
20.862848,8.458280054477424,0.0671460095889457
20.865236,8.470296450671665,0.0668962671283757
20.86762,8.485897739478158,0.0666445645387638
20.870016,8.503920437911647,0.0663697855799517
20.872404,8.521663597091417,0.0661048743436861
20.874788,8.534750928472294,0.0658500080505205
20.877184,8.542763123173701,0.0656212721422825
20.879572,8.553056957875244,0.0653743553959422
20.881968,8.559346591083953,0.0651444555656615
20.884372,8.566567389852441,0.0649139104296074
20.886756,8.577373081233183,0.0646832363077648
20.889136,8.588458311867644,0.0644429060781385
20.891532,8.606620779927994,0.064170707715321
20.89392,8.62077904649551,0.0639176423427793
20.8963,8.638010348996081,0.0636505710901817
20.898704,8.655521190750374,0.0633744253916482
20.901092,8.673683658810724,0.0631068030118417
20.903472,8.687841925378244,0.0628578292856686
20.905864,8.696785285639427,0.0626372419669664
20.908248,8.708522142579945,0.0624121606802073
20.910628,8.721609473960822,0.0621711031993219
20.913032,8.738049380528476,0.061906120633604
20.915416,8.748762524110601,0.0616552774402148
20.917796,8.756123092505948,0.0614291598104418
20.920192,8.766044840155155,0.0611762278196251
20.922576,8.781321263737553,0.0608924430291551
20.924972,8.799670723253007,0.0605950282903989
20.927376,8.816018082022044,0.0603068275474125
20.92976,8.842655483776886,0.0599736253564976
20.93214,8.864637057732836,0.0596474869037598
20.934532,8.87916930721056,0.0593328025236584
20.93692,8.889697355195448,0.0590316424434127
20.9393,8.896221201687505,0.0587466083338102
20.941692,8.901953652246643,0.0584580040232471
20.94408,8.902610966126309,0.0581893123751294
20.946476,8.900986640005836,0.0579367902357319
20.948868,8.89577742127311,0.0576827599796428
20.951256,8.888566101793971,0.0574351530260746
20.953632,8.884567587874745,0.0571698284139259
20.956028,8.878846512462822,0.0569017944369997
20.958416,8.872054501864259,0.0566393098584036
20.960808,8.86433132570592,0.0563780461191478
20.963204,8.862893991040552,0.0560877013578079
20.965592,8.863738296375322,0.0557815729542277
20.967972,8.861369796150175,0.0554922015264581
20.970364,8.859513152604226,0.0552179960679009
20.972752,8.85565440831186,0.0549501392916684
20.975148,8.850724728832857,0.0546875296040869
20.977552,8.837507107114464,0.0544594696573327
20.97994,8.827734608381464,0.0542375700598909
20.98232,8.816611635208108,0.0540287959538582
20.984724,8.814428230580196,0.0537957855528621
20.987108,8.812384595579143,0.0535582181685924
20.989488,8.808199090204814,0.0533303104382016
20.991892,8.807878016696456,0.0530950115680913
20.99428,8.810629979121156,0.0528485629509825
20.996656,8.820039870091165,0.0525937396589406
20.99906,8.830892783300149,0.0523515346704622
21.001448,8.839464056508996,0.0521249144600327
21.003828,8.850549287143457,0.0519068085264817
21.006232,8.861215208897338,0.051702600342859
21.008616,8.871461821770637,0.0515129029379026
21.011,8.876353758710746,0.0513493747073441
21.013404,8.87589101971766,0.0512108300753629
21.015788,8.874357345537936,0.0510766903913006
21.018172,8.866025973186044,0.0509543501652987
21.020568,8.860488097513485,0.0508310355043542
