Time,Force,Position
22.389644,6.210337930146041,0.1592029023104325
22.392032,6.22165168649024,0.158998630556516
22.3992,6.216068484847309,0.1588352686445261
22.40158,6.216023158876936,0.1587525259156464
22.403976,6.222076682944428,0.1585862561825747
22.406364,6.233996739624313,0.1583052661928446
22.408744,6.246336105184778,0.1579989903841068
22.411144,6.259886175558742,0.1576584854083853
22.413532,6.277952304104738,0.1572549738331961
22.415912,6.298904477128684,0.1568393253791215
22.418308,6.323581312391744,0.1563566285225459
22.420696,6.350726779110047,0.1557599216570137
22.42308,6.374055035790617,0.1551892357697409
22.425476,6.399664932471325,0.1545739947607061
22.42786,6.423412498032476,0.1539895814613794
22.430244,6.4431558621007925,0.1534810714428305
22.43264,6.465320635796108,0.1529053843519903
22.435028,6.484878904267191,0.1523254493262251
22.437424,6.499129718633324,0.1518236117578466
22.43982,6.511051671171077,0.1514322252958611
22.442208,6.523997337067226,0.1510609697890995
22.444592,6.547233045949179,0.1504753983740293
22.446988,6.564649444046985,0.149953199330458
22.449372,6.57754978397276,0.149503178102283
22.451756,6.5864459224057015,0.1491319055462928
22.454152,6.595342060838643,0.1487621893616224
22.45654,6.602795177032608,0.1483969740894514
22.458924,6.6110869109877335,0.1479832081156062
22.46132,6.611417463785436,0.1476742781966225
22.463708,6.618173627702968,0.147236454985576
22.466088,6.625349100501083,0.1467749200942049
22.468488,6.6272171191942455,0.1463777328132769
22.470876,6.627362576394713,0.1459968263541559
22.473256,6.618708234676595,0.145766112740825
22.475652,6.610425980010816,0.145554163472575
22.47804,6.60600815721101,0.145276996908659
22.48042,6.597446363291508,0.1450803680595147
22.482816,6.587114786051068,0.1449479732387235
22.485204,6.58036810142288,0.1447670904810238
22.487584,6.568825819368941,0.1446653980911711
22.489984,6.558214702874781,0.1445494201761106
22.492372,6.54201659302195,0.1445166516903973
22.494756,6.530893619848592,0.1443878620657218
22.497152,6.519491107421514,0.1442755885614142
22.49954,6.514886293166604,0.1440502090447266
22.501936,6.508651465217616,0.1438796043961967
22.504336,6.502137098014907,0.1437250968074116
22.516272,6.444278334686874,0.1436936362463337
22.518668,6.44027602905191,0.1436387833895626
22.521052,6.440929551215837,0.1435164061778104
22.523432,6.447729145245875,0.1432819315440014
22.525832,6.455739444089412,0.1430191229815793
22.528216,6.46868510998556,0.1426725033711916
22.5306,6.484191955135567,0.142257176699144
22.532996,6.496625764352518,0.1418990728050432
22.53538,6.517207746181995,0.1413990393080917
22.537776,6.535927396891918,0.1409238039853348
22.540172,6.561816832826348,0.1403648894084664
22.54256,6.585145089506917,0.1398770318514771
22.54494,6.610195907680184,0.1393735206746976
22.547336,6.626819013987203,0.139032368908427
22.549724,6.646934465107858,0.1386151973565781
22.552108,6.664908045855235,0.1382362467598352
22.5545,6.687397684774643,0.1377999656324978
22.556888,6.707093827014718,0.1374046913210111
22.559268,6.734426285188122,0.1368578764893869
22.561668,6.758965246682191,0.1363517018431747
22.564052,6.7839235170568415,0.1358251483335495
22.566436,6.804737816311796,0.1353724466748325
22.56884,6.82648328112653,0.1349104798157379
22.571224,6.848228745941264,0.1344606978842207
22.573608,6.869554901875418,0.1340377258855958
22.576004,6.8884596481825735,0.1336696720856597
22.578392,6.908388107848125,0.1333266643066427
22.580772,6.931389603446732,0.132934345186419
22.583172,6.946242926432811,0.1326760442323059
22.585556,6.9658918468446425,0.1323546598089107
22.58794,6.976601198711029,0.1321660928803215
22.590336,6.988241716137192,0.1319666801275775
22.59272,6.99857898095124,0.1317607844187574
22.59512,7.014550460952202,0.1314471635837334
22.597516,7.029311236139664,0.1311628392407706
22.599904,7.049798774312657,0.1308053379776494
22.602284,7.073731435471041,0.1304239941226782
22.60468,7.098735031816065,0.1300256648825659
22.607068,7.118523721854756,0.1297139550273819
22.609448,7.1420370741325625,0.1293624777640757
22.611844,7.164199951970006,0.129045029482131
22.614232,7.194371232793119,0.1286191776862123
22.616616,7.22575321842973,0.1281743805237953
22.619012,7.245262369214704,0.1278869632864226
22.6214,7.264631750372813,0.1276082264558422
22.62378,7.288145102650618,0.1272691286418687
22.626184,7.310075663062586,0.1269369211023603
22.628572,7.331214827541635,0.1266106129895548
22.630952,7.355706567207461,0.1262258614108189
22.633356,7.37819620612687,0.1258720343199802
22.635744,7.406831916912391,0.1254290132610014
22.638124,7.433465526951494,0.1250125570989996
22.64052,7.459540058483155,0.1246249587713892
22.642908,7.481051310014542,0.124321086514616
22.645288,7.499070216732294,0.1240809619487937
22.647688,7.513224691584073,0.1238882536246247
22.650076,7.520209381211344,0.1237602199029878
22.652456,7.529196171585034,0.1236073498772248
22.654856,7.542047393824696,0.1234101573649098
22.65724,7.549683709758025,0.1232884977778412
22.664404,7.545773951921678,0.1232614666057338
22.6668,7.549266296735314,0.123198634656433
22.669196,7.555040281549087,0.1230972157668913
22.671584,7.558160539310386,0.1230176378176582
22.683528,7.552203354757248,0.122945939341904
22.685916,7.550108706212215,0.1229394429824354
22.688296,7.550295697667319,0.1228947393033874
22.6907,7.551321306883582,0.1228095692047356
22.693088,7.553976929793926,0.1226811087366181
22.695468,7.55784325751777,0.1225299080702398
22.697864,7.566505182667364,0.122326355233501
22.700252,7.570231740764346,0.1221822203827789
22.702632,7.570513175875936,0.1220612286427698
22.705028,7.574426725428021,0.12187282029694
22.707416,7.581553080540022,0.1216370059611257
22.709796,7.596036212331633,0.1213002470555619
22.712192,7.6135923800563,0.1209235867763275
22.71458,7.624770158489378,0.1206034326953866
22.71696,7.629010469123427,0.1203650041591511
22.71936,7.635113110877033,0.1201103091827086
22.721748,7.643637162257637,0.119812354763705
22.724144,7.657515889571433,0.1194390685123437
22.726544,7.665295766847361,0.1191048772271603
22.728928,7.676847528190645,0.1187000066911067
22.731308,7.685466023227737,0.1183262718233357
22.733708,7.692361956772131,0.1179637469338623
22.736092,7.696883702517769,0.1176082270907038
22.738476,7.702988240129245,0.1172496750222964
22.740872,7.710163712927359,0.1168762377557875
22.74326,7.719481056098751,0.1164749429018658
22.74564,7.727355377031166,0.1160727002286407
22.748036,7.734717841284383,0.1156566123135308
22.750424,7.739938435164324,0.1152685039122302
22.752804,7.744879489790542,0.1148952391067652
22.7552,7.751171018857121,0.1144966533769962
22.757588,7.748662749005114,0.1141908057746612
22.759972,7.743081443220052,0.1139215995528259
22.762372,7.742295734860742,0.1136059744599469
22.764756,7.74872703355418,0.1132024453300259
22.76714,7.749291799635229,0.1128587961245542
22.769536,7.748506091275917,0.1125432345204837
22.771924,7.7447871166104125,0.1122586736302666
22.77432,7.747726070490215,0.1119128280352592
22.776716,7.7479640754893,0.1116221401582885
22.779108,7.75234605160808,0.1112814030584215
22.781488,7.758590358846416,0.1109261392406868
22.783888,7.763064882763811,0.1106158737304654
22.786276,7.763535205188375,0.1103481454765016
22.788656,7.763865757986077,0.1100870830333393
22.791052,7.762054440410502,0.1098545948034142
22.79344,7.757681943581069,0.1096684938248759
22.795824,7.7587566704834465,0.1094443787391634
22.79822,7.763695829251797,0.1091838454027157
22.800608,7.767703822460369,0.1089313749973011
22.802988,7.766357139735748,0.1087473737614804
22.805388,7.767664184063602,0.1085466356489981
22.807776,7.769762624324374,0.1083441699915107
22.810156,7.768927798278951,0.1081707408282301
22.812556,7.762598526673476,0.1080724628945342
22.814944,7.759854147680254,0.1079508394364093
22.817328,7.756178603127253,0.1078364468366536
22.819724,7.750081648947254,0.1077622914484036
22.822116,7.74198259402084,0.1077089962981418
22.829284,7.709210495547103,0.1076884531801046
22.831664,7.699621196553468,0.1076673602914409
22.834068,7.693896329425808,0.1076109372979555
22.836456,7.688962858231065,0.1075536024286982
22.838836,7.6849605525961,0.1074890224125014
22.84124,7.683751743640469,0.1074029084550139
22.843624,7.679749438005505,0.1073383255039829
22.846004,7.674676197183902,0.1072870786314153
22.848408,7.668532021175661,0.1072490704045189
22.850796,7.669325312966449,0.1071431257772698
22.853176,7.674914202182988,0.1069968488136569
22.855572,7.684647062519221,0.106805064363125
22.85796,7.697964815467707,0.1065932870517644
22.86034,7.712493273229693,0.1063610383961831
22.862736,7.729163601364956,0.1061038313897989
22.865124,7.747416721366053,0.1058458778068332
22.867504,7.768882646927065,0.1055485300270753
22.8699,7.788486241368524,0.1052645940380617
22.872288,7.811302641369896,0.1049411622660851
22.874668,7.834398580624989,0.1046085726715482
22.877076,7.85921708137278,0.1042677958594467
22.87946,7.886037682866986,0.1039112935388059
22.88184,7.913137823614912,0.1035448432904084
22.884236,7.939446568429921,0.1031802583662753
22.886624,7.963613442871654,0.1028415191136807
22.889004,7.987128691007327,0.1024980879621051
22.8914,8.009712773583221,0.1021614884947817
22.893788,8.032157086532257,0.1018312481241153
22.896168,8.057534665787488,0.1014769250667691
22.898564,8.081049913923161,0.101140353433421
22.900952,8.100840499819723,0.1008317159119848
22.903336,8.11462478347703,0.1005785515020274
22.905732,8.123893008962309,0.1003507443189665
22.908116,8.137165435940423,0.1000879516047494
22.9105,8.149366927731895,0.0998386895914648
22.9129,8.16156841952337,0.0995901761234041
22.915288,8.172698976128205,0.0993542383001154
22.917668,8.191139087584407,0.0990792022112575
22.920068,8.210650134227247,0.0987947784759865
22.922452,8.228019310496808,0.0985350462724673
22.924836,8.250743162699564,0.0982213141172575
22.92724,8.268391878222847,0.0979538477432439
22.929624,8.28683198967905,0.0976886707880263
22.932004,8.306994662627949,0.0974196199675862
22.934408,8.329299205950122,0.0971286585062722
22.936796,8.353605850018713,0.0968231792620405
22.939176,8.380426451512921,0.0965138537800159
22.94158,8.409528693007266,0.0961786672961608
22.943968,8.43755999931497,0.095856759814166
22.946348,8.46237850006276,0.0955685925982892
22.948752,8.485986295997051,0.0952968121671826
22.95114,8.516671329357232,0.0949675817085276
22.95352,8.548147758650328,0.094637873216347
22.955916,8.575480216823733,0.0943474717927889
22.958304,8.601090113504442,0.0940624423099405
22.960684,8.625396757573034,0.0937661898607062
22.96308,8.652776437574682,0.0934459288987938
22.965468,8.67298633235182,0.0931573855519812
22.967848,8.689983421569046,0.0929010978248676
22.970244,8.70684074115941,0.0926504539356971
22.972632,8.718622924070305,0.0924431264153424
22.975016,8.731476042167834,0.0922247260628188
22.977412,8.738462627652975,0.0920460093080389
22.9798,8.74400619089914,0.0918613621465477
22.98218,8.747687423025749,0.0916865120822935
22.984576,8.750577259219442,0.0915119231411111
22.98696,8.751232677241237,0.0913300951658884
22.989356,8.750025764143476,0.091158051436554
22.991756,8.74723605917988,0.0909844913735077
22.994144,8.745936598283501,0.0907847847028404
22.996524,8.747058547014122,0.0905546798285769
22.99892,8.744316063878768,0.0903489770964694
23.001308,8.746648717422888,0.0901061562508039
23.003688,8.749540449474447,0.0898418047202063
23.006084,8.754574051899285,0.0895585401973903
23.008472,8.75918834544354,0.0892908893301389
23.010856,8.75542214894979,0.0890615989905505
23.013252,8.753378513948741,0.0888286305422241
23.01564,8.755898158947963,0.0885475803738422
23.01802,8.759256421708347,0.088235236150506
23.020416,8.759681418162536,0.0879400080211912
23.022804,8.762388054616862,0.087620809318458
23.0252,8.772311698123934,0.0872460066028372
23.027596,8.780884867190652,0.0868913403969167
23.029984,8.789458036257368,0.0865362725489973
23.032368,8.794678630137309,0.086214723474273
23.034764,8.799619684763528,0.0859035076446479
23.037148,8.802558638643331,0.0856054437364739
23.039532,8.804426657336496,0.0853160912643967
23.041928,8.80508397121616,0.0850414072925692
23.044316,8.803459645095687,0.0847908569457349
23.0467,8.798622513415301,0.0845675849133879
23.049096,8.785916748376106,0.0843921370444337
23.051484,8.773862609642968,0.0842228811718538
23.053864,8.761528931656112,0.0840641333835024
23.056264,8.75347899441581,0.0838689432298466
23.058648,8.753669777586651,0.0836437715151064
23.061032,8.754931495944135,0.0834099762301545
23.063428,8.747765502435367,0.083242947110307
23.06582,8.738829725605658,0.083110866467241
23.0682,8.733758380641927,0.0829581894761321
23.070596,8.726405395678055,0.0828286564684357
23.072984,8.71383750440785,0.0827384076547005
23.075364,8.701688922018228,0.082632093088339
23.077764,8.691682210001881,0.0825077470008145
23.080152,8.686099008358948,0.0823427551641966
23.082532,8.684520008208851,0.08215344636646
23.084928,8.686805439924727,0.081944967714042
23.087316,8.692024137946797,0.0817208072874082
23.089712,8.698174001528646,0.0814931661363263
23.092112,8.7038120084313,0.0812530175517298
23.094496,8.714804691267144,0.0809697409866238
23.096876,8.73101228040932,0.0806480725355732
23.099272,8.749501509551635,0.0803059367567833
23.10166,8.765337011641472,0.0799691409194513
23.104044,8.778099477798257,0.0796549393390816
23.10644,8.787416820969648,0.0793450104324703
23.108828,8.794080437088564,0.0790399731525195
23.111208,8.805307333207754,0.0786894576145351
23.113604,8.815230976714831,0.0783236314876264
23.115992,8.821709497236512,0.0779601948159168
23.118376,8.828886865892496,0.0775708323803234
23.120772,8.837554478615697,0.0771569479123766
23.12316,8.848084422458456,0.0767377570181015
23.12554,8.85582086962188,0.0763283588018825
23.127936,8.857551014546052,0.0759525263087109
23.130324,8.849689964618724,0.0756160998329527
23.132708,8.837312856519361,0.0752891896809914
23.135104,8.822282021367524,0.0749655362111418
23.137488,8.807530725469409,0.0746313916251139
23.139888,8.79464176069085,0.0742906028581198
23.142284,8.778028133673178,0.0739608821843931
23.144672,8.759272636282228,0.0736465569699797
23.147052,8.734371067025169,0.0733682292505209
23.149448,8.709609267394967,0.073083188333403
23.151836,8.682053971085432,0.0728049848078093
23.154216,8.65235680440262,0.072540891150665
23.156616,8.622240328839228,0.0722908303752518
23.159004,8.591704544395252,0.0720549150760969
23.161384,8.564753652563533,0.0718123006599211
23.16378,8.543529523717343,0.0715479822256402
23.166168,8.52253771229663,0.0713059971570032
23.168552,8.500986822368475,0.071083651180866
23.170948,8.476502666134127,0.0708730584915123
23.173336,8.453741071392475,0.0706615966388799
23.175716,8.436985778890074,0.0704191668284096
23.178112,8.431823781985592,0.0701317693418282
23.1805,8.430526216947083,0.0698293750063245
23.182896,8.431230752654992,0.0695169528659717
23.185288,8.431935288362899,0.0692049723493278
23.187676,8.433431220003728,0.0688965934399695
23.190056,8.435439008323753,0.0686007246912954
23.19246,8.439448897390195,0.0682958807872627
23.194848,8.450536023882526,0.0679559027201573
23.197228,8.466278978173746,0.0676068828795327
23.199624,8.483884263584525,0.0672529601995117
23.202012,8.507356081607696,0.0668776379167479
23.204396,8.535251410004276,0.0664703665163579
23.206792,8.566359543960775,0.0660441632094343
23.20918,8.60054071385033,0.0656068637199772
23.211564,8.632580013366608,0.0651874950608212
23.21396,8.667040722509883,0.0647472234893133
23.216348,8.703643302026435,0.064294547298696
23.218728,8.7439705437821,0.0638365338402822
23.221128,8.784018246284045,0.0633896013380457
23.223516,8.82271547434563,0.0629628023020591
23.225896,8.856337565727744,0.0625632876991409
23.228296,8.887398477856,0.0621924847045749
23.230684,8.917760541849956,0.0618470806243945
23.233064,8.94598073547063,0.0615149288248262
23.23546,8.970196727598477,0.0611985561219208
23.237848,8.996135281219017,0.0608845985266355
23.240232,9.018721259652782,0.0605948433012157
23.242628,9.037023497339993,0.0603318093740949
23.245016,9.05011082872087,0.0600959037806602
23.2474,9.066643283087142,0.0598650644107048
23.249796,9.081033867080135,0.0596482274085554
23.252184,9.093794437379051,0.0594578852223334
23.254568,9.104133598050968,0.0592899311457785
23.256964,9.107115982043275,0.0591592966158906
23.259352,9.106745790848809,0.0590510771628212
23.261736,9.10395419002734,0.0589642907674949
23.264132,9.103164689952292,0.0588709113312836
