Time,Force,Position
23.21662800000001,5.766287074209715,0.161796540998352
23.21907200000001,5.825077003097526,0.1615324839032505
23.253312000000022,5.893962400084559,0.1614778731560014
23.25575600000002,5.907089369862204,0.1614099011839738
23.258216000000004,5.91942494370693,0.1613515115683612
23.26065600000001,5.937347510910327,0.161190567522802
23.263104,5.968213848152004,0.1607547765315434
23.265547999999995,5.999127407221922,0.160269750948039
23.268,6.0322300584933615,0.1596820654757016
23.270444,6.062678982712324,0.1591477490104733
23.272896000000003,6.09820304361076,0.158518323285844
23.27533200000002,6.142247364174061,0.1577442344785636
23.277776000000017,6.193648461416972,0.156804761055527
23.28022000000001,6.234294880823124,0.1560424595107908
23.28266400000001,6.273730595415777,0.1553269636010127
23.28510400000002,6.313817936314488,0.1546303510381509
23.287540000000007,6.353905277213198,0.1539404269819754
23.289984000000004,6.403770804418516,0.1530265244555953
23.292428,6.452100761586241,0.1520784173099154
23.294872,6.497824213529735,0.1511249937891496
23.297324000000003,6.537076728383022,0.1502402522647511
23.299768,6.580892523236586,0.149256802111566
23.302216000000016,6.6200997121195,0.1483013327843354
23.304655999999994,6.655349921337824,0.147374109934734
23.307096,6.68873779943659,0.1464792553951413
23.309544000000017,6.720775203094998,0.1456337039309136
23.311988000000014,6.741311858954101,0.145028127573994
23.314436,6.761429205932626,0.1444470169627656
23.316876000000008,6.779684221791594,0.1438957993251956
23.36087600000002,6.668203214053841,0.143765149926623
23.365768000000003,6.665456939202749,0.1437613331632003
23.36820800000001,6.665736478456469,0.1437452633891852
23.370652000000007,6.669368592896965,0.1436578841192423
23.37310400000001,6.670486749911848,0.1435931053170187
23.37554800000001,6.673467238046285,0.1435016678861477
23.378004000000004,6.677471439539119,0.14343187967189
23.380448,6.682778893644069,0.1433677751812385
23.38288800000001,6.691019614055214,0.1432558931584193
23.385332000000005,6.695395902600385,0.1432056660298705
23.387788,6.703077544504089,0.1431264095288148
23.390236000000016,6.709036624915097,0.1430655867653017
23.392684000000003,6.721700855699655,0.1428599096204116
23.39512000000002,6.7265436749536525,0.1427424666862985
23.397564000000017,6.733807903834645,0.1425657623762737
23.40000800000001,6.741351671969358,0.1423731227015248
23.40245200000001,6.743820303424599,0.1422716222627254
23.404896000000008,6.74670824376042,0.1421469783107476
23.407332,6.746942457043766,0.1420535695865003
23.40978800000002,6.753974368499281,0.141855785829803
23.412232000000017,6.762681619619249,0.1416849064650724
23.41467600000001,6.7819112311505,0.1413642593535853
23.41712800000002,6.803702021935607,0.1409862002673406
23.419576000000006,6.82283908566824,0.1406385533973536
23.42202400000002,6.846631977199765,0.1402282484464288
23.424464,6.86907439429093,0.1398527073453116
23.426908,6.894357529889675,0.1394003788009464
23.429351999999994,6.916614851383608,0.1389557638519447
23.43180800000001,6.932121696533615,0.1385692930535885
23.434256000000005,6.952563908736233,0.1381084328443863
23.43669600000001,6.970212624259517,0.1376831451031208
23.439132,6.992796706835412,0.1371853361623309
23.441580000000016,7.015800098291888,0.1366755315871919
23.444019999999995,7.041596986427698,0.1361285844334858
23.44646800000001,7.068976666429345,0.1355772644852616
23.448912000000007,7.096076807177271,0.1350418799017616
23.451348,7.127320919044891,0.1344411015865638
23.45380400000002,7.156702699792955,0.133867651556546
23.456248000000016,7.18608448054102,0.1332958944848344
23.458692000000013,7.210530894236472,0.1328006511721622
23.46113600000001,7.23288265938689,0.1323053346995091
23.463588000000016,7.246342077820106,0.1319046475877828
23.466036000000003,7.251932862894515,0.1316134705551329
23.46848400000001,7.25938597908848,0.1313011980071608
23.470924,7.271402375282719,0.1309078521248681
23.473368000000026,7.290123921850511,0.1303991429607328
23.47581600000001,7.307914302858524,0.1299050341649633
23.47826000000001,7.331431446852066,0.129344061770653
23.480700000000013,7.363189311256754,0.128699983209984
23.48314000000002,7.389080643049051,0.1281324524159986
23.485584000000017,7.416322449281707,0.1275313789913434
23.48802800000001,7.437185866222775,0.1269967428876992
23.49047200000001,7.451763441670872,0.1265602175031865
23.492924000000016,7.468343117865388,0.1260996262745435
23.495360000000005,7.483619541447785,0.1256337585992367
23.497816,7.499594813164484,0.1251344122612447
23.50026,7.510774487455433,0.1246919477059959
23.502703999999994,7.519300434693905,0.12427021665455
23.50515200000001,7.527034985999459,0.1238512969307737
23.507616000000013,7.535188846185595,0.1234111218407203
23.510064,7.543342706371731,0.1229718946574496
23.512516000000005,7.551077257677288,0.1225516422365378
23.51495600000001,7.562676240848815,0.1220839034908931
23.51740000000001,7.572552662527647,0.1216293230686352
23.519848,7.574932537900008,0.1212922671449631
23.522288000000003,7.567813766219484,0.1210950083150425
23.524732,7.561905699352458,0.1208751839171262
23.527168000000017,7.554275070992737,0.1206673040069432
23.529608,7.544921881140317,0.1204711156191126
23.53206,7.539712662407592,0.1202191679893844
23.534504,7.538367875540842,0.119926326650183
23.536952000000014,7.543820786846259,0.119560768808841
23.53939600000001,7.551555338151811,0.1191573839350221
23.54185200000001,7.556356623151172,0.1187875222688162
23.544292000000013,7.560459060016231,0.1184512623374492
23.54673200000002,7.564793814306767,0.1181404671312344
23.549176000000017,7.571782295649778,0.1178108829293139
23.551628000000026,7.586359871097875,0.1174100153171568
23.55407600000001,7.603451403971586,0.1169988619593752
23.556524,7.624919225390469,0.116563260148543
23.558960000000013,7.646107507555631,0.1161416803503647
23.56140400000001,7.672370926400266,0.1156623387554466
23.563844000000017,7.701288072297376,0.1151689054502629
23.566292000000004,7.735792211553154,0.1146336922109537
23.56873200000001,7.776442422675045,0.1140295016039221
23.571168,7.822819396782465,0.113368872906622
23.573620000000005,7.863422386076111,0.1127987107759161
23.576064,7.903466296862318,0.1122579399800382
23.578508,7.93866738839453,0.1117993049600529
23.580960000000005,7.973029862165581,0.1113812587453391
23.583404,8.004970926309634,0.111008303244832
23.585848,8.031277775266773,0.1107199226603272
23.58829600000001,8.059307185716609,0.1104253668457525
23.590732000000003,8.087057056912723,0.1101426381914068
23.64694,7.975568465743496,0.1099655628608814
23.649396,7.960067308167098,0.109935105082451
23.651836000000003,7.943914524284642,0.109898844225357
23.65428,7.932045481148738,0.109810069662381
23.656724,7.923668782826472,0.1096699743856208
23.659176,7.915990932638507,0.1094991571890598
23.661624000000018,7.917811729503429,0.1092170901863735
23.664072000000004,7.92577859823446,0.1088685894770579
23.66651200000001,7.937098042152268,0.1084724273215154
23.66895600000001,7.956146349802023,0.1080094477200283
23.67140000000001,7.972121621518723,0.1075826484954479
23.673844000000003,7.985955022862145,0.1071824253759109
23.67628400000001,8.00444425200446,0.1067518556377859
23.67872,8.029591409692081,0.1062704231832974
23.681168000000014,8.053667632193065,0.1058002558376135
23.68360800000002,8.077883624320908,0.105325345005279
23.68605200000001,8.098886810888839,0.104888955812247
23.688503999999995,8.119238371150708,0.104450447936627
23.69094000000001,8.141871571412716,0.1039821345773189
23.693396000000007,8.167438037980917,0.1034905252201706
23.69583600000001,8.19421520936262,0.1029808653957017
23.69827600000002,8.216848409624628,0.1025145824213617
23.700724000000008,8.237479509140218,0.1020668545669608
23.703168000000005,8.25769129977523,0.1016395044551923
23.70561600000002,8.271757018544129,0.1012747810224278
23.708064000000007,8.288336694738643,0.100904869992425
23.7105,8.301424026119522,0.1005855832827787
23.71294400000002,8.313580191940622,0.1002745450248573
23.71538800000002,8.328250315187335,0.0999583191155623
23.717836000000005,8.3369141361948,0.0996965581422726
23.720276000000013,8.342644690896067,0.0994575692213197
23.722712,8.345581748918,0.0992350272638008
23.725168,8.341860878394625,0.0990601556857217
23.727612000000025,8.332413244885721,0.0989263283117112
23.73005600000002,8.326178416936733,0.0987573951021115
23.732500000000016,8.317801718614467,0.0986113143969359
23.73495200000002,8.30928525066534,0.0984706232575679
23.737400000000008,8.296485041969657,0.0983763108860245
23.739847999999995,8.280472027714064,0.0983165729093737
23.74228400000001,8.264459013458467,0.0982560390463088
23.74472800000001,8.245372963269816,0.0982240170706016
23.747176,8.230291114573998,0.0981571629863815
23.74962000000002,8.216931827370876,0.0980845040218535
23.75206400000002,8.201989748301918,0.0980111991734752
23.754500000000007,8.18597673404632,0.0979495994189083
23.756944000000004,8.16730999273825,0.0978986983495848
23.759388,8.146920689937483,0.097853115585709
23.761832,8.12345835120366,0.0978359298944298
23.764284000000004,8.09855299023086,0.0978113294001139
23.76672000000002,8.0747185644447,0.0977751098946875
23.769176000000016,8.054888340151374,0.097704132090684
23.771624000000003,8.039853713283797,0.0975987411343685
23.774068,8.02640187828206,0.097493398625891
23.77651600000001,8.017094014400016,0.0973472901030702
23.778964,8.00871731607775,0.0971956310251906
23.781408,8.004484588875176,0.0970042993746368
23.783860000000004,8.005466767978936,0.0967625972587635
23.78630000000001,8.014597119695225,0.0964495409364632
23.78874400000001,8.02572957215793,0.096119392926911
23.79118400000001,8.03206642719488,0.0958221310325478
23.793632,8.042547253351527,0.0954856954149514
23.796076,8.053167849135034,0.0951452905532209
23.798508,8.06527868898576,0.0947778014738388
23.80096400000002,8.08032279514268,0.0943905924356828
23.803404,8.101652742792572,0.0939433983133206
23.805848,8.123634316748522,0.0935028564919438
23.808300000000003,8.14761799145089,0.0930461444204171
23.810744,8.174814471713171,0.0925573355997857
23.81319200000001,8.200800247161956,0.0920860762095639
23.815632000000026,8.22706556186446,0.0916034613898303
23.818072,8.252399711007186,0.0911281670965992
23.820516,8.278153169030492,0.0906388919647055
23.822964000000013,8.305257101494158,0.0901281473770061
23.825412,8.330219163584548,0.0896421104318024
23.827852000000007,8.349035153808824,0.0892073473772479
23.830288,8.366919978473323,0.088780714320003
23.83273200000002,8.382151076085348,0.0883657838137825
23.83517600000002,8.391655410711842,0.0879871758347446
23.837616,8.404372550898252,0.0875809793182908
23.84007600000001,8.41802085664444,0.0871683408438549
23.842520000000007,8.433251954256464,0.0867610832599588
23.844972000000013,8.447412116681848,0.0863653462038276
23.84741600000001,8.461432509480375,0.0859775185351901
23.849856000000017,8.47037776559943,0.085627405968898
23.85230000000001,8.4801144176514,0.0852817889285105
23.85475200000002,8.488268277837538,0.0849331127594474
23.857192,8.501497274703146,0.0845514368171291
23.859644000000003,8.511653235635697,0.0841927790751266
23.86209200000002,8.521948966195108,0.0838284784478708
23.86453600000001,8.535177963060715,0.0834487569454564
23.866984,8.548406959926321,0.0830699031021917
23.869428,8.559214547164933,0.0827208577570052
23.871868000000006,8.57081353033646,0.0823746800375598
23.874312000000003,8.581341578321352,0.0820377520973329
23.876756,8.595082431866159,0.0816718678176001
23.879196000000007,8.606681415037686,0.0813249295151108
23.881643999999994,8.615858988582213,0.0810066048080292
23.88409200000001,8.62275492212661,0.0807106823371706
23.886528,8.62578642380503,0.0804360030728836
23.888984000000026,8.6348242277227,0.0801252597891586
23.89142800000002,8.640416908654977,0.0798193022681011
23.893868,8.646009589587253,0.0795138479071269
23.896311999999995,8.647458299399837,0.0792376323177169
23.89876000000001,8.654773541824813,0.0789306710571129
23.901204000000007,8.66008668350337,0.0786376977076093
23.90364400000001,8.669264257047901,0.0783268929629781
23.90608400000002,8.670433427606763,0.0780642389192548
23.90852800000001,8.6766777348451,0.0777708155844726
23.910968,8.68478437320299,0.0774716062921463
23.913412000000022,8.692611472307163,0.0771847895891195
23.915852,8.702580441784614,0.0768831422607704
23.918296,8.718043856822115,0.0765382261544105
23.92075200000002,8.730574005553422,0.0762074652501587
23.923192,8.743104154284728,0.0758764207459362
23.925636,8.760709439695507,0.0755182872696957
23.928079999999994,8.778314725106286,0.075159914553682
23.930532,8.79685117607684,0.0747977044576476
23.93298000000001,8.81953159816709,0.0744088946106217
23.935420000000025,8.842723876936542,0.07403294101505
23.93785600000001,8.8588389182801,0.0736981832761145
23.940300000000008,8.876816290743216,0.0733591449945038
23.94274000000001,8.891580857646415,0.0730426290199292
23.94518400000001,8.915284993095062,0.0726839374003921
23.94762800000001,8.934193531117957,0.0723448465099974
23.950064,8.94909786764802,0.0720260814931041
23.95252000000002,8.96386243455122,0.0717147352294962
23.95496400000001,8.980349562947119,0.0714021747693238
23.95740800000001,8.9936238857831,0.0711141447136203
23.95986000000002,9.005827273432441,0.0708344709392747
23.962304000000017,9.01416622921581,0.0705700667305199
23.96476000000001,9.018081674625764,0.0703404222106252
23.96720000000002,9.01557150891589,0.0701553278501887
23.96964,9.011850638392511,0.0699815687271918
23.972083999999995,9.009992098988697,0.0698031476785188
23.97453200000001,9.005851919584742,0.0696451457393425
23.976976000000008,9.002782675367426,0.0694798763964981
23.979428000000013,9.00399717189666,0.0692867297031079
23.981864,9.002930028425762,0.0691126798048078
23.984308,9.00335312902208,0.0689174362508672
23.98674800000001,9.007780431111234,0.0687037129977301
23.989192000000003,9.00778422282697,0.0685224370541816
23.991636,9.01300292084904,0.0683111625117711
23.994072000000017,9.006209014392612,0.0681541800467972
23.99652800000001,8.998623712003265,0.0679936135352703
23.99896800000002,8.99411144554697,0.0678165899461753
24.001408,8.98787661759798,0.0676391246027491
24.003851999999995,8.984714825582046,0.0674461393745101
24.006304,8.980761637633194,0.0672501620478196
24.008748,8.978950320057619,0.0670411237059218
24.0112,8.978861563974743,0.0668327001713018
24.01363600000002,8.98198561345178,0.0666039334266654
24.016080000000017,8.986040828488594,0.0663726216012495
24.018524000000014,8.99624211539152,0.0661108123042977
24.02096800000001,9.005931545615248,0.0658373697831983
24.023408000000018,9.010685608786364,0.0655828432153595
24.025844000000006,9.014508506397704,0.0653302453389179
24.02829200000002,9.011393936210013,0.0651046520652577
24.030732,9.0116319412091,0.0648550051167038
24.033176,9.009448536581186,0.0646281502409694
24.035628000000003,9.007544671206992,0.0643924192325076
24.038072,9.010343855459936,0.0641164193884144
24.04052000000001,9.011280708593322,0.0638446454809831
24.04296400000001,9.01957433840632,0.0635319160446055
24.04540400000002,9.033734500831704,0.0632010675064965
24.047848000000016,9.045892562510671,0.0628779539088265
24.050296000000003,9.055908753816365,0.0625673586717384
24.05274,9.06434215325622,0.0622517014223804
24.055180000000007,9.074637883815631,0.0619337295489586
24.05762000000001,9.08214011769571,0.0616210933580742
24.06006000000002,9.08805955970995,0.0613014669605275
24.06250400000002,9.091325274671718,0.0609813807785204
24.06494800000001,9.096081233700705,0.0606412319823796
24.067396,9.100465105677351,0.0602863635695123
24.06983200000002,9.101636172094084,0.0599485637685343
24.072292000000004,9.10709097925737,0.059586994473194
24.07473200000001,9.113476951980434,0.0592243856790338
24.07717600000001,9.123587586942612,0.0588559904765527
24.07962000000001,9.127691919665542,0.0585083535026727
24.08207200000001,9.129422064589717,0.0581485084808193
24.084516000000008,9.127008238394197,0.0578067476115896
24.086968000000013,9.122312772198535,0.0574814460155793
24.08940000000001,9.11654637081624,0.0571616645677867
24.09184400000001,9.111711134993724,0.0568421090362926
24.09428800000001,9.10380286323815,0.0565356298107504
24.09673600000002,9.09924716666935,0.0562078804435342
24.09918000000002,9.092829138980996,0.0558799369160198
24.101616000000007,9.085200406479146,0.0555618739574548
24.104060000000004,9.075988882111456,0.0552361872191668
24.106504,9.069570854423102,0.0549086706408573
24.108952000000016,9.064083992294526,0.0545795642129959
24.11140400000002,9.060319691658648,0.0542532110860152
24.11384800000002,9.05427375102263,0.0539415239485968
24.11629600000001,9.043245221505757,0.0536737787755453
24.118740000000003,9.03514995829508,0.0533987892974599
24.12118000000001,9.023562350270767,0.0531482400896747
24.123624000000007,9.012114511873316,0.0528929551769245
