Time,Force,Position
20.268464,5.694094535444533,0.1589298561348237
20.304296,5.901874570994123,0.1585877362348427
20.306684,5.9168185459209495,0.1584121918845996
20.309064,5.927386232302605,0.1582999689153912
20.311464,5.935439961258647,0.1582189066156971
20.313848,5.94786997875986,0.1580762937990927
20.316244,5.96476883260486,0.1579084148965393
20.318644,5.98329770014394,0.1576744627585581
20.321031999999995,5.998800753578207,0.1574566195314801
20.323412,6.022079892572666,0.1570382922078154
20.325812,6.049503002686818,0.1565344819507239
20.328196,6.0786486742936665,0.1560062808292474
20.330576,6.108818059258909,0.155504598941757
20.332972,6.139359531276492,0.1550238115567284
20.33536,6.1719031040404895,0.1544993213362483
20.33774,6.2015134104982925,0.1540309078015051
20.34014,6.230005559941213,0.1536432415158143
20.342524,6.259521422742529,0.1532754064133223
20.344908,6.283869601065756,0.1529752425165254
20.347312,6.312129433083201,0.1525565189157569
20.3497,6.339505321369111,0.1521215995979192
20.35208,6.362365151482988,0.1517631285048339
20.354476,6.373771455625804,0.1516089007998757
20.356864,6.386668003835842,0.15140309512562
20.359244,6.398540838687482,0.1511748615532373
20.36164,6.404454593128117,0.1510199270846625
20.364028,6.4141402316361065,0.1507624615171723
20.366412,6.430716116114882,0.1504234517092511
20.368804,6.453018763579186,0.1499859804854124
20.371196,6.468663482498185,0.1496636886583534
20.373592,6.476858876938954,0.1494602946517859
20.375992,6.488267076939643,0.1491912870458236
20.378376,6.499815046567188,0.1489157804233085
20.38076,6.510711389888677,0.1486374732903556
20.383156,6.52016471097119,0.1483625789215602
20.385544,6.534600620934558,0.1479576511842309
20.387924,6.548524674218728,0.1475441670403509
20.390324,6.564450828249315,0.1470946987903361
20.392708,6.584381183772736,0.1465694642833597
20.395092,6.600214790004706,0.1460861604716617
20.397488,6.60724859731809,0.1457531695100194
20.399876,6.615725426870451,0.1454188390779325
20.402256,6.634584847207233,0.144927490494777
20.404652,6.658239864969767,0.1443662762198573
20.40704,6.684828149038496,0.143760128549603
20.409424,6.712999224973063,0.1431406232790037
20.41182,6.734744689787797,0.1426557845355715
20.414208,6.750763391617,0.1422620964763187
20.416592,6.762126265647313,0.1419337941579461
20.418988,6.775119153371705,0.1415512401765536
20.42138,6.789602285163316,0.14112135806554
20.42376,6.798218884342535,0.1407881089544375
20.42616,6.8037624475887,0.1405097872027651
20.428548,6.809585550088585,0.1402151287840096
20.430932,6.81661935740197,0.1398916677506023
20.433328,6.818018949528442,0.1396898782072123
20.435716,6.818999232774333,0.1395126173046463
20.4381,6.823704178259336,0.1392865965429237
20.440496,6.827198418930842,0.1390889818894759
20.442884,6.82841101960221,0.1389396581825555
20.445264,6.833627821766411,0.1387223518651601
20.462004,6.761527723361595,0.1384968988858693
20.464392,6.752591946531888,0.1383985271975093
20.466772,6.744819652687435,0.1383144882913188
20.469172,6.737279676268461,0.138257495131742
20.47156,6.734535297275238,0.1381310665051896
20.47394,6.736726285334628,0.1379279163686377
20.47634,6.737566798953659,0.1377600264665125
20.478724,6.734914967759053,0.137668010228765
20.481108,6.735475942124363,0.1375150594673517
20.483504,6.732871332757999,0.1373796336495917
20.485892,6.722445311861074,0.1373235811713002
20.488272,6.712298830217867,0.1372514545561723
20.490672,6.705737241186914,0.1371376738286796
20.49306,6.70010681771574,0.1370115204925132
20.49544,6.693265689431066,0.1369134089292492
20.49784,6.685353625959755,0.1368350965899601
20.500228,6.683959721406891,0.1366699412811546
20.502608,6.687453962078397,0.1364697589999175
20.505008,6.694672864989016,0.1362209942815559
20.507396,6.702031537526493,0.1359656606410915
20.509776,6.71153208043725,0.1356706345657453
20.512176,6.71726073928065,0.1354693743577887
20.514564,6.7221980021911305,0.1352727322400907
20.516948,6.727834113235912,0.1350369529863115
20.519344,6.730816497228219,0.1348304705147383
20.521732,6.727140952675219,0.1347144077854013
20.524112,6.725327739241775,0.1345744068774985
20.526508,6.728589662487803,0.1343513794501437
20.528896,6.731991355360689,0.1341215342379043
20.531279999999995,6.745124012711942,0.1337549600739163
20.533676,6.762213649727784,0.1333680253499621
20.536064,6.781957013796101,0.1329564237930006
20.538444,6.800349903424059,0.1325800594697156
20.540844,6.817671857865379,0.1322239549985983
20.543228,6.835413121187281,0.1318455897477694
20.545612,6.853806010815239,0.1314709296121108
20.548008,6.8769944978689495,0.1310373131430561
20.550396,6.90088183305696,0.1305707040813343
20.552776,6.92104450600586,0.130150841627184
20.555176,6.940276013394979,0.1297439853344174
20.557564,6.956294715224184,0.1293924001445257
20.559948,6.970730625187551,0.1290462179940185
20.562344,6.987168635897336,0.128672861880273
20.564732,7.004258272913178,0.1283054255362247
20.567116,7.022139305861939,0.1279362380347281
20.569512,7.045467562542509,0.127508575696945
20.571904,7.073591416648831,0.1270259993948561
20.574288,7.101435731501432,0.1265631552827971
20.576684,7.130071442286952,0.126101441692985
20.579072,7.150279441206224,0.1257789169248283
20.581456,7.168345569752218,0.1254906718350669
20.583852,7.185480532738434,0.1252152953182015
20.58624,7.204245509418729,0.124894837778319
20.58862,7.223290025352746,0.1245605292065652
20.59102,7.245919433899016,0.1241980273103702
20.593408,7.267617676885507,0.1238446128313308
20.595792,7.283589156886468,0.1235603967564252
20.598188,7.294857587260295,0.1233646499419268
20.600576,7.308919514313456,0.1231406577976359
20.602956,7.323772837299536,0.1229151127665971
20.605356,7.345423858457784,0.1226108411968828
20.607744,7.37466397372112,0.1222278731884621
20.610128,7.401762218611177,0.121879834376568
20.612528,7.42578742756818,0.1215729430523815
20.614916,7.448881470965404,0.1212766053547982
20.617296,7.472115283989487,0.120976291092179
20.619696,7.487760002908483,0.1207578339865886
20.622084,7.49781772846881,0.1205933116134652
20.624464,7.505081957349802,0.1204566494797148
20.626864,7.512905264738236,0.1202920096563553
20.629252,7.525291852126943,0.1200508267744465
20.631636,7.538190296194848,0.1198225687226028
20.634032,7.550529661755314,0.1196226320516871
20.636416,7.56645391992803,0.119396149782433
20.638796,7.576232106234638,0.1192501130029395
20.641192,7.592947760340274,0.1190254020428156
20.643584,7.610315040751969,0.1188048996489228
20.645964,7.631174665977297,0.1185242064433079
20.64836,7.65031172970993,0.1182559844627959
20.650748,7.665304822322869,0.1180412086659622
20.653132,7.676573252696696,0.1178637172996525
20.655528,7.679321423405658,0.117769908434909
20.657916,7.682209363741478,0.1176695730148717
20.6603,7.69096383668969,0.1175062757294052
20.662696,7.701440871130599,0.1173335612007879
20.665084,7.70991580482509,0.1171846430498595
20.667463999999995,7.722906796691613,0.1170006805980793
20.669864,7.741624551543665,0.1167597160114726
20.672252,7.761925098261555,0.116515180436854
20.674648,7.785019141658779,0.1162472135793155
20.677048,7.804900379496088,0.1160260605490637
20.679435999999995,7.8225471991615025,0.1158042917177614
20.681816,7.837680061401301,0.1155935361513768
20.684212,7.852161297335042,0.1153814257445174
20.6866,7.867061842149365,0.1151482488581078
20.688984,7.873162588045101,0.1150076726193375
20.69138,7.886759880247308,0.1147702780934216
20.693768,7.900217402822654,0.1145404577485071
20.696148,7.913535155771141,0.1143173749789173
20.698548,7.93206781502596,0.1140300710409343
20.700936,7.951531639840557,0.1137374568668437
20.70332,7.9777931628273215,0.1133805175778498
20.705715999999995,8.00312352025431,0.1130310487977556
20.708108,8.025008754695904,0.1127027070021775
20.710488,8.043448866152104,0.112392260804693
20.712883999999995,8.06151689055597,0.1120646684078122
20.715276,8.078141892720856,0.1117349638453366
20.717656,8.095325973393185,0.1113839101330431
20.720051999999995,8.113348671826675,0.1109980221365079
20.72244,8.12843810395397,0.1106409319526477
20.72482,8.141804974588569,0.1102915041171569
20.72722,8.156754637089003,0.1099406569468966
20.729608,8.174917105149355,0.109550493033423
20.731988,8.185210939850897,0.1092350013884797
20.734388,8.198577810485494,0.1088860738855565
20.736776,8.215157486680011,0.1084963016390115
20.73916,8.220655723955803,0.1082232487139705
20.741556,8.22457116936576,0.1079523507968101
20.743948,8.227695218842797,0.1076822263650022
20.746328,8.22723437570758,0.1074340975341029
20.748728,8.221326308840554,0.1072210315907846
20.751116,8.20862054380136,0.1070683215674853
20.753499999999995,8.197265253202522,0.1068901833038339
20.755896,8.185118566670768,0.1067123067891821
20.758288,8.17697608163185,0.1064949858123443
20.760667999999995,8.16855405733921,0.106289248551484
20.763064,8.157990162673292,0.1061086373985832
20.765452,8.144073692820596,0.10597199338044
20.767836,8.129737914087324,0.1058528830815395
20.770236,8.117683775354186,0.1057022893880887
20.772624,8.109494068487026,0.1055193880212073
20.775008,8.098650634567386,0.1053497605518971
20.777408,8.087527661394029,0.1051919542002513
20.779796,8.080408889713505,0.1049955292094956
20.78218,8.0723589524732,0.1048055888828897
20.78458,8.062306914486483,0.1046340262011703
20.786968,8.052534415753483,0.1044493508835859
20.789352,8.043693082580264,0.1042578077300194
20.791748,8.033780814220401,0.1040782774460324
20.79414,8.027593208099656,0.1038726509805007
20.796524,8.023919559404524,0.1036586784672689
20.798919999999995,8.022248011455808,0.1034246750770416
20.801308,8.019225989066735,0.1032153643195953
20.803692,8.017507219289778,0.1030175074882342
20.806092,8.011784248019985,0.1028576607289875
20.80848,8.010996643802807,0.1026543692569278
20.81086,8.013421845145542,0.1024139370768167
20.81326,8.016917981674917,0.1021610403410151
20.815648,8.017620621524957,0.101926967880563
20.818028,8.019114657307915,0.1016938577339783
20.820428,8.017675426784677,0.1014856651853428
20.822816,8.016236196261438,0.1012766543567153
20.8252,8.01493673536506,0.101062251880925
20.827596,8.0156393752151,0.1008299189910938
20.829988,8.01634201506514,0.1005978581995751
20.832367999999995,8.02170048271407,0.1003364559444388
20.834768,8.032645943721672,0.1000389528168985
20.83716,8.043311865475552,0.0997538625191333
20.839535999999995,8.059052923908906,0.099422629077868
20.841932,8.073862816782482,0.0990996943843248
20.844316,8.088952248909777,0.0987646639684962
20.846696,8.10525238585057,0.0984125949911499
20.849088,8.12462555872442,0.0980328338789657
20.851476,8.140553608612874,0.097663487365109
20.853856,8.157273054434249,0.0972932297046878
20.85626,8.168917363576151,0.0969714592758688
20.858644,8.180421903091192,0.096657394942471
20.861024,8.192997377792873,0.0963330876428532
20.863428,8.205572852494551,0.0960075394648143
20.865816,8.210139924210566,0.0957486017886311
20.868192,8.217500492605913,0.0954736923159813
20.870588,8.227794327307457,0.0951765232100404
20.872976,8.234363499769886,0.0949012559947952
20.875356,8.236137074806566,0.0946586905744632
20.877752,8.236839714656606,0.0944274344342771
20.880136,8.234097231521252,0.0942068572153123
20.882515999999995,8.229771956520063,0.093985864755852
20.884912,8.225865990399454,0.0937475014439401
20.887296,8.215953722039595,0.0935580141868057
20.889676,8.204039352933318,0.0933845219702134
20.89208,8.191845444573323,0.0932221464425686
20.894464,8.180163392892522,0.0930717586029159
20.896844,8.165687844532387,0.0929363988019168
20.899248,8.15414556247845,0.0927794246434287
20.901636,8.144745150797787,0.0926006021859607
20.904016,8.13362217762443,0.09242546924649
20.90642,8.118495002958237,0.092281753092426
20.908804,8.099643166052934,0.0921576083942738
20.911188,8.082793429894044,0.0920169716845882
20.913584,8.076233736720962,0.0917848933181459
20.915972,8.066089150935625,0.0915669316596528
20.918352,8.055944565150288,0.0913491378881337
20.920756,8.051386972723622,0.0911018947111823
20.923144,8.054418474402041,0.0908102340073514
20.925524,8.05838114164024,0.0905136819258406
20.92792,8.061924499997858,0.0902340425904447
20.930308,8.064117383915116,0.0899764475614647
20.932692,8.064959793392015,0.0897408281073047
20.935084,8.070877339548387,0.0894642842713398
20.937472,8.080799087197592,0.0891588610247185
20.939856,8.094864805966491,0.088819304667688
20.942256,8.106276797682916,0.0884878804105462
20.944644,8.117549019772483,0.0881619513236464
20.947024,8.130823342608464,0.0878231145155244
20.94942,8.144097665444445,0.0874860847161396
20.951808,8.163378290519677,0.087106719316019
20.954188,8.186523347460883,0.0867035567687425
20.956588,8.214184462574119,0.0862845920437364
20.958976,8.242636973620275,0.0858688216325713
20.961352,8.26373270798682,0.0855190030926861
20.963752,8.28655100384606,0.0851662432031951
20.96614,8.307227429332027,0.0848340477957651
20.968536,8.324970588511798,0.0845223838175753
20.970932,8.338989085452452,0.0842298856384806
20.973316,8.350865712019832,0.0839561557651804
20.975696,8.365955144147128,0.0836546757954293
20.9781,8.38225528108792,0.0833382999395744
20.980484,8.403770324335047,0.082982315746345
20.982868,8.423143497208898,0.0826473099316741
20.98526,8.436510367843496,0.0823528855262914
20.987648,8.445453728104678,0.0821021882103594
20.990028,8.453977779485282,0.0818666980603716
20.992432,8.461430895679248,0.0816399326673098
20.99482,8.465531436686437,0.0814471427429498
20.9972,8.46641917213371,0.0812821370550537
20.9996,8.461812462020932,0.0811690449240593
21.001988,8.456274586348375,0.0810597578358468
21.004368,8.446732509182983,0.0809762212708929
21.006772,8.436119496830953,0.0809017142073613
21.009156,8.429510685971756,0.0808013416054118
21.011536,8.421970709552783,0.0807044699467973
21.013936,8.414570502760668,0.0806019147492425
21.01632,8.404888655968417,0.0805228959024277
21.018704,8.394787500295585,0.0804600552437894
21.0211,8.388970085369307,0.0803606648068123
21.030648,8.32910163786338,0.080308244654218
21.033044,8.315740454802391,0.0803054592212122
21.035444,8.305731846928174,0.0802702981308467
21.037832,8.300006979800512,0.0801994199358128
21.040212,8.297215378979047,0.0801125317666903
21.042612,8.297636583717498,0.0799991674516085
21.044996,8.301410363642724,0.0798538842538018
21.047376,8.307745322821807,0.0796745507058089
21.04978,8.31408028200089,0.0794954990717567
21.052168,8.32376781636675,0.0792847596937334
21.054548,8.330522084426415,0.0790889629215657
21.056944,8.3363451869263,0.0788971028079654
21.059328,8.342959685359103,0.0787072258965814
21.061708,8.351576284538325,0.078505655027481
21.064112,8.362754062971401,0.0782702216786291
21.0665,8.372349049538645,0.0780302913445992
21.06888,8.379941935359469,0.077803613502583
21.071276,8.392098101180569,0.0775313773828315
21.073664,8.406815446255527,0.0772272215534746
21.076044,8.42395420095748,0.0768937629364518
21.078448,8.436856436741126,0.0765598331316595
21.080836,8.447104945472294,0.0762312253657064
21.083216,8.45469972715099,0.0759079246188976
21.08562,8.462713817710265,0.0755711480795973
21.088008,8.471007447523261,0.0752252315503416
21.090388,8.479580616589976,0.0748713154015762
21.092784,8.48922472084333,0.0745115723040407
21.095172,8.50180209140288,0.0741406282192663
21.097552,8.51545039714907,0.0737628929179574
21.099948,8.528167537335477,0.0733894440818095
21.102336,8.549591928641856,0.0729509362161341
21.104716,8.570364693642178,0.072505443843401
21.107112,8.591696537149938,0.0720406743655409
21.1095,8.612376754351642,0.0715704052471244
21.11188,8.633196741180207,0.0710968285501365
21.11428,8.658440238382184,0.0705900275921169
21.116668,8.682892339651243,0.0700815408558133
21.119064,8.705202570547026,0.0695896111854533
21.12146,8.722717204017057,0.0691154379123173
21.123847999999995,8.738509275994392,0.0686397715939071
21.126228,8.761890442076815,0.0681428706952261
21.128632,8.787413478532512,0.0676332919629691
21.13102,8.813727910921127,0.0671275811190891
21.1334,8.83482743700341,0.0666536473726804
21.135796,8.856858128645474,0.0661809076802225
21.138183999999995,8.872882518048286,0.0657354005521203
21.140568,8.882900605211846,0.0653167026224469
21.142964,8.884770519762881,0.0649380351260897
21.145351999999995,8.883846937634582,0.0645650834141883
21.147732,8.885716852185613,0.06418822228735
21.150128,8.880229990057035,0.0638551828029549
21.152516,8.87567429348824,0.0635202603882359
21.1549,8.869768122479083,0.0632015515574969
21.157296,8.865584512962624,0.0628852595624995
21.15968,8.861261133819303,0.0625740645048906
21.16206,8.855307740981903,0.0622896999203706
21.164456,8.852147844823838,0.0620012829423907
21.166844,8.851921214971968,0.0617042414806261
21.16924,8.853277376985936,0.0614129914810802
21.171636,8.86115169791835,0.0611127969142683
21.17402,8.863811112544433,0.0608398709221524
21.176404,8.865259822357016,0.060578471096472
21.178799999999995,8.8667085321696,0.0603173609089095
21.181188,8.871090508288377,0.0600471826646133
21.183568,8.872678987727822,0.059781427067805
21.185964,8.881065165339434,0.0594979926287443
21.188352,8.897040437056134,0.0592010117016177
21.190732,8.918090845452307,0.0588827487082045
21.193128,8.94314545534131,0.0585518133946132
21.195516,8.961262597431288,0.0582433045861526
21.197912,8.982824862506659,0.057940503888829
21.200308,9.00196571795503,0.0576586921476753
21.202696,9.025250544523097,0.0573603137202536
21.205076,9.047324666277662,0.0570742935074173
21.207472,9.068839709524788,0.0568076133726667
21.20986,9.08849242165236,0.0565434321455553
21.21224,9.103721623406514,0.0563067084241232
21.214636,9.11373591885434,0.0560933623693283
21.217024,9.127614646168132,0.0558727459337078
21.219408,9.138420337548872,0.0556656878910628
21.221804,9.150296964116253,0.0554532300862061
21.224192,9.158960785123716,0.0552566788441581
21.226572,9.165622505384762,0.0550662905721943
21.228976,9.174146556765368,0.0548751616267442
21.231364,9.185184565571584,0.0546916650113135
21.233744,9.19100766807147,0.0545305754884388
21.236144,9.192966338705382,0.0543776919589557
21.238528,9.195856174899072,0.054224514865952
21.240912,9.197535306279264,0.0540817488519603
21.243308,9.206151905458483,0.0539213417515843
21.245696,9.211183612025453,0.0537589089549271
21.248088,9.22236139045853,0.0535757018613058
21.250484,9.229115658518197,0.0534178023398768
21.252872,9.230934559525249,0.0532711086009759
21.255252,9.235035100532436,0.0531103603826476
21.257656,9.239135641539624,0.0529494610719324
21.260044,9.24672852736045,0.0527646861063371
21.262424,9.25939654986075,0.0525641391076871
21.264828,9.268060370868213,0.0523750909490744
21.267216,9.27379092556948,0.0521918202552053
21.269596,9.27859031471097,0.0520089957417194
21.271996,9.285391804598875,0.0518201684179754
21.274384,9.294195395233205,0.0516259925100179
21.276764,9.301928050680887,0.0514376066076172
21.27916,9.303794173516184,0.0512600541258259
21.281548,9.309012871538254,0.0510635560473425
21.283932,9.312229468813907,0.0508719542338096
21.286328,9.31516652683584,0.0506898465613848
21.288716,9.314890779297858,0.0505219506727286
21.291096,9.307398024707128,0.0503782255002459
21.293496,9.302698766795732,0.0502335215486336
21.29588,9.292924372204864,0.0501037526161328
21.298264,9.285431617614137,0.0499601402767152
21.300668,9.282874230076017,0.0498060978413186
21.303052,9.276312641045063,0.0496617757425308
21.305432,9.271613383133667,0.0495170582863981
21.307832,9.26155944928908,0.049394977603598
